2.323195898312326424e+00
2.323195898312326424e+00
2.332008667256691314e+00
2.332008667256691314e+00
2.332008667256691314e+00
2.332008667256691314e+00
2.322258369701224012e+00
2.322258369701224012e+00
2.322258369701224012e+00
2.301820245979186552e+00
2.301820245979186552e+00
2.301820245979186552e+00
2.294695028534806447e+00
2.294695028534806447e+00
2.294695028534806447e+00
2.294695028534806447e+00
2.281944639423810539e+00
2.281944639423810539e+00
2.281944639423810539e+00
2.257756401257362544e+00
2.257756401257362544e+00
2.257756401257362544e+00
2.257756401257362544e+00
2.275381939146092325e+00
2.275381939146092325e+00
2.275381939146092325e+00
2.280257087923826198e+00
2.280257087923826198e+00
2.280257087923826198e+00
2.280257087923826198e+00
2.280257087923826198e+00
2.280257087923826198e+00
2.280257087923826198e+00
2.276881984923856628e+00
2.276881984923856628e+00
2.276881984923856628e+00
2.280069582201605716e+00
2.280069582201605716e+00
2.280069582201605716e+00
2.280069582201605716e+00
2.317383220923490139e+00
2.317383220923490139e+00
2.317383220923490139e+00
2.326946012756737403e+00
2.326946012756737403e+00
2.326946012756737403e+00
2.329196081423383191e+00
2.329196081423383191e+00
2.329196081423383191e+00
2.329196081423383191e+00
2.328633564256721744e+00
2.328633564256721744e+00
2.328633564256721744e+00
2.312508072145756710e+00
2.312508072145756710e+00
2.312508072145756710e+00
2.312508072145756710e+00
2.291507431257057803e+00
2.291507431257057803e+00
2.291507431257057803e+00
2.282882168034912951e+00
2.282882168034912951e+00
2.282882168034912951e+00
2.282882168034912951e+00
2.262444044312875935e+00
2.262444044312875935e+00
2.262444044312875935e+00
2.253443769646290562e+00
2.253443769646290562e+00
2.253443769646290562e+00
2.271631824701681346e+00
2.271631824701681346e+00
2.271631824701681346e+00
2.271631824701681346e+00
2.274631916257209951e+00
2.274631916257209951e+00
2.274631916257209951e+00
2.275944456312753772e+00
2.275944456312753772e+00
2.275944456312753772e+00
2.275944456312753772e+00
2.274631916257209951e+00
2.274631916257209951e+00
2.274631916257209951e+00
2.291507431257057803e+00
2.291507431257057803e+00
2.291507431257057803e+00
2.291507431257057803e+00
2.317383220923490139e+00
2.317383220923490139e+00
2.317383220923490139e+00
2.321508346812341639e+00
2.321508346812341639e+00
2.330133610034486047e+00
2.330133610034486047e+00
2.330133610034486047e+00
2.330133610034486047e+00
2.331633655812249906e+00
2.331633655812249906e+00
2.331633655812249906e+00
2.305945371868038052e+00
2.305945371868038052e+00
2.305945371868038052e+00
2.293945005645924073e+00
2.293945005645924073e+00
2.293945005645924073e+00
2.293945005645924073e+00
2.286069765312662039e+00
2.286069765312662039e+00
2.286069765312662039e+00
2.265069124423963132e+00
2.265069124423963132e+00
2.265069124423963132e+00
2.265069124423963132e+00
2.266756675923947917e+00
2.266756675923947917e+00
2.266756675923947917e+00
2.275006927701650916e+00
2.275006927701650916e+00
2.275006927701650916e+00
2.280069582201605716e+00
2.280069582201605716e+00
2.280069582201605716e+00
2.280069582201605716e+00
2.277632007812738557e+00
2.277632007812738557e+00
2.277632007812738557e+00
2.266569170201727434e+00
2.266569170201727434e+00
2.266569170201727434e+00
2.289069856868190644e+00
2.289069856868190644e+00
2.289069856868190644e+00
2.289069856868190644e+00
2.312883083590197675e+00
2.312883083590197675e+00
2.312883083590197675e+00
2.313820612201300086e+00
2.313820612201300086e+00
2.313820612201300086e+00
2.326758507034516477e+00
2.326758507034516477e+00
2.326758507034516477e+00
2.326758507034516477e+00
2.313633106479079604e+00
2.313633106479079604e+00
2.313633106479079604e+00
2.298820154423657947e+00
2.298820154423657947e+00
2.298820154423657947e+00
2.305195348979155678e+00
2.305195348979155678e+00
2.305195348979155678e+00
2.305195348979155678e+00
2.287382305368205859e+00
2.287382305368205859e+00
2.287382305368205859e+00
2.252693746757408633e+00
2.252693746757408633e+00
2.252693746757408633e+00
2.263756584368419311e+00
2.263756584368419311e+00
2.263756584368419311e+00
2.263756584368419311e+00
2.280257087923826198e+00
2.280257087923826198e+00
2.280257087923826198e+00
2.290757408368175430e+00
2.290757408368175430e+00
2.290757408368175430e+00
2.282694662312692468e+00
2.282694662312692468e+00
2.282694662312692468e+00
2.282694662312692468e+00
2.277632007812738557e+00
2.277632007812738557e+00
2.277632007812738557e+00
2.229068025757622085e+00
2.229068025757622085e+00
2.229068025757622085e+00
2.229068025757622085e+00
2.193441938535722002e+00
2.193441938535722002e+00
2.193441938535722002e+00
2.408698507644886799e+00
2.408698507644886799e+00
2.408698507644886799e+00
2.377572557756279181e+00
2.377572557756279181e+00
2.377572557756279181e+00
2.377572557756279181e+00
2.340821436201055761e+00
2.340821436201055761e+00
2.340821436201055761e+00
2.317570726645710621e+00
2.317570726645710621e+00
2.317570726645710621e+00
2.302757774590289408e+00
2.302757774590289408e+00
2.302757774590289408e+00
2.302757774590289408e+00
2.271256813257240381e+00
2.271256813257240381e+00
2.271256813257240381e+00
2.245943540757469048e+00
2.245943540757469048e+00
2.245943540757469048e+00
2.245943540757469048e+00
2.266006653035065987e+00
2.266006653035065987e+00
2.266006653035065987e+00
2.274256904812768987e+00
2.274256904812768987e+00
2.274256904812768987e+00
2.215942625202185212e+00
2.215942625202185212e+00
2.215942625202185212e+00
2.215942625202185212e+00
2.186316721091342341e+00
2.186316721091342341e+00
2.186316721091342341e+00
2.201692190313425002e+00
2.201692190313425002e+00
2.201692190313425002e+00
2.201692190313425002e+00
2.302007751701407035e+00
2.302007751701407035e+00
2.302007751701407035e+00
2.404948393200476264e+00
2.404948393200476264e+00
2.404948393200476264e+00
2.388260383922848895e+00
2.388260383922848895e+00
2.388260383922848895e+00
2.388260383922848895e+00
2.373822443311869090e+00
2.373822443311869090e+00
2.373822443311869090e+00
2.338946378978850937e+00
2.338946378978850937e+00
2.338946378978850937e+00
2.338946378978850937e+00
2.315133152256843907e+00
2.315133152256843907e+00
2.315133152256843907e+00
2.284007202368236289e+00
2.284007202368236289e+00
2.284007202368236289e+00
2.284007202368236289e+00
2.222692831202123909e+00
2.222692831202123909e+00
2.222692831202123909e+00
2.267881710257271255e+00
2.267881710257271255e+00
2.267881710257271255e+00
2.278569536423841413e+00
2.278569536423841413e+00
2.278569536423841413e+00
2.278569536423841413e+00
2.285319742423780109e+00
2.285319742423780109e+00
2.285319742423780109e+00
2.138127750480666833e+00
2.138127750480666833e+00
2.138127750480666833e+00
2.138127750480666833e+00
2.336883816034425188e+00
2.336883816034425188e+00
2.336883816034425188e+00
2.330508621478927012e+00
2.330508621478927012e+00
2.330508621478927012e+00
2.342696493423261028e+00
2.342696493423261028e+00
2.342696493423261028e+00
2.342696493423261028e+00
2.346446607867672007e+00
2.346446607867672007e+00
2.346446607867672007e+00
2.348696676534318240e+00
2.348696676534318240e+00
2.348696676534318240e+00
2.348696676534318240e+00
2.335383770256660885e+00
2.335383770256660885e+00
2.335383770256660885e+00
2.308382946256904766e+00
2.308382946256904766e+00
2.308382946256904766e+00
2.303132786034730373e+00
2.303132786034730373e+00
2.303132786034730373e+00
2.303132786034730373e+00
2.280069582201605716e+00
2.280069582201605716e+00
2.280069582201605716e+00
2.244443494979705633e+00
2.244443494979705633e+00
2.244443494979705633e+00
2.244443494979705633e+00
2.248193609424115724e+00
2.248193609424115724e+00
2.248193609424115724e+00
2.259068941312906365e+00
2.259068941312906365e+00
2.259068941312906365e+00
2.273319376201666131e+00
2.273319376201666131e+00
2.273319376201666131e+00
2.273319376201666131e+00
2.240318369090853690e+00
2.240318369090853690e+00
2.240318369090853690e+00
2.246693563646351421e+00
2.246693563646351421e+00
2.246693563646351421e+00
2.246693563646351421e+00
2.335758781701101849e+00
2.335758781701101849e+00
2.335758781701101849e+00
2.341758964812158617e+00
2.341758964812158617e+00
2.341758964812158617e+00
2.340633930478835278e+00
2.340633930478835278e+00
2.340633930478835278e+00
2.340633930478835278e+00
2.346821619312112972e+00
2.346821619312112972e+00
2.346821619312112972e+00
2.337258827478866152e+00
2.337258827478866152e+00
2.337258827478866152e+00
2.337258827478866152e+00
2.302945280312509890e+00
2.302945280312509890e+00
2.302945280312509890e+00
2.309507980590228104e+00
2.309507980590228104e+00
2.309507980590228104e+00
2.282507156590471986e+00
2.282507156590471986e+00
2.282507156590471986e+00
2.282507156590471986e+00
2.248193609424115724e+00
2.248193609424115724e+00
2.248193609424115724e+00
2.164191045869319652e+00
2.164191045869319652e+00
2.164191045869319652e+00
2.164191045869319652e+00
2.334446241645558029e+00
2.334446241645558029e+00
2.334446241645558029e+00
2.309132969145787140e+00
2.309132969145787140e+00
2.309132969145787140e+00
2.309132969145787140e+00
2.286632282479323930e+00
2.286632282479323930e+00
2.286632282479323930e+00
2.286444776757103448e+00
2.286444776757103448e+00
2.286444776757103448e+00
2.313820612201300086e+00
2.313820612201300086e+00
2.313820612201300086e+00
2.313820612201300086e+00
2.321133335367900674e+00
2.321133335367900674e+00
2.321133335367900674e+00
2.315508163701284872e+00
2.315508163701284872e+00
2.315508163701284872e+00
2.315508163701284872e+00
2.335946287423322332e+00
2.335946287423322332e+00
2.335946287423322332e+00
2.316820703756828248e+00
2.316820703756828248e+00
2.316820703756828248e+00
2.302945280312509890e+00
2.302945280312509890e+00
2.302945280312509890e+00
2.302945280312509890e+00
2.298445142979216982e+00
2.298445142979216982e+00
2.298445142979216982e+00
2.197754570146794428e+00
2.197754570146794428e+00
2.197754570146794428e+00
2.197754570146794428e+00
2.182004089480269915e+00
2.182004089480269915e+00
2.182004089480269915e+00
2.236193243202001746e+00
2.236193243202001746e+00
2.236193243202001746e+00
2.252693746757408633e+00
2.252693746757408633e+00
2.252693746757408633e+00
2.252693746757408633e+00
2.342321481978820064e+00
2.342321481978820064e+00
2.342321481978820064e+00
2.298257637256996500e+00
2.298257637256996500e+00
2.298257637256996500e+00
2.298257637256996500e+00
2.331258644367808941e+00
2.331258644367808941e+00
2.331258644367808941e+00
2.348134159367656792e+00
2.348134159367656792e+00
2.348134159367656792e+00
2.334071230201117064e+00
2.334071230201117064e+00
2.334071230201117064e+00
2.334071230201117064e+00
2.347196630756553937e+00
2.347196630756553937e+00
2.347196630756553937e+00
2.340258919034394314e+00
2.340258919034394314e+00
2.340258919034394314e+00
2.313633106479079604e+00
2.313633106479079604e+00
2.313633106479079604e+00
2.313633106479079604e+00
2.304257820368053267e+00
2.304257820368053267e+00
2.304257820368053267e+00
2.278007019257179522e+00
2.278007019257179522e+00
2.278007019257179522e+00
2.278007019257179522e+00
2.257756401257362544e+00
2.257756401257362544e+00
2.257756401257362544e+00
2.255506332590716312e+00
2.255506332590716312e+00
2.255506332590716312e+00
2.257568895535142062e+00
2.257568895535142062e+00
2.257568895535142062e+00
2.257568895535142062e+00
2.263944090090640238e+00
2.263944090090640238e+00
2.263944090090640238e+00
2.282882168034912951e+00
2.282882168034912951e+00
2.282882168034912951e+00
2.282882168034912951e+00
2.279694570757164307e+00
2.279694570757164307e+00
2.279694570757164307e+00
2.309695486312448587e+00
2.309695486312448587e+00
2.309695486312448587e+00
2.329758598590044638e+00
2.329758598590044638e+00
2.329758598590044638e+00
2.329758598590044638e+00
2.338571367534409973e+00
2.338571367534409973e+00
2.338571367534409973e+00
2.343821527756584366e+00
2.343821527756584366e+00
2.343821527756584366e+00
2.343821527756584366e+00
2.330321115756706529e+00
2.330321115756706529e+00
2.330321115756706529e+00
2.299570177312540320e+00
2.299570177312540320e+00
2.299570177312540320e+00
2.299570177312540320e+00
2.290007385479293500e+00
2.290007385479293500e+00
2.290007385479293500e+00
2.269381756035035114e+00
2.269381756035035114e+00
2.269381756035035114e+00
2.247818597979674760e+00
2.247818597979674760e+00
2.247818597979674760e+00
2.247818597979674760e+00
2.261319009979552597e+00
2.261319009979552597e+00
2.261319009979552597e+00
2.272944364757225166e+00
2.272944364757225166e+00
2.272944364757225166e+00
2.272944364757225166e+00
2.268631733146153184e+00
2.268631733146153184e+00
2.268631733146153184e+00
2.266194158757286470e+00
2.266194158757286470e+00
2.266194158757286470e+00
2.271444318979460864e+00
2.271444318979460864e+00
2.271444318979460864e+00
2.271444318979460864e+00
2.305570360423596643e+00
2.305570360423596643e+00
2.305570360423596643e+00
2.324508438367870244e+00
2.324508438367870244e+00
2.324508438367870244e+00
2.324508438367870244e+00
2.332196172978911797e+00
2.332196172978911797e+00
2.332196172978911797e+00
2.335571275978881367e+00
2.335571275978881367e+00
2.335571275978881367e+00
2.325445966978973100e+00
2.325445966978973100e+00
2.325445966978973100e+00
2.325445966978973100e+00
2.309695486312448587e+00
2.309695486312448587e+00
2.309695486312448587e+00
2.303882808923612302e+00
2.303882808923612302e+00
2.303882808923612302e+00
2.303882808923612302e+00
2.280632099368266719e+00
2.280632099368266719e+00
2.280632099368266719e+00
2.250068666646320992e+00
2.250068666646320992e+00
2.250068666646320992e+00
2.250068666646320992e+00
2.260193975646229259e+00
2.260193975646229259e+00
2.260193975646229259e+00
2.270694296090578934e+00
2.270694296090578934e+00
2.270694296090578934e+00
2.265631641590625023e+00
2.265631641590625023e+00
2.265631641590625023e+00
2.265631641590625023e+00
2.264319101535081202e+00
2.264319101535081202e+00
2.264319101535081202e+00
2.284569719534897736e+00
2.284569719534897736e+00
2.284569719534897736e+00
2.284569719534897736e+00
2.317195715201269657e+00
2.317195715201269657e+00
2.317195715201269657e+00
2.318320749534592551e+00
2.318320749534592551e+00
2.318320749534592551e+00
2.341008941923276243e+00
2.341008941923276243e+00
2.341008941923276243e+00
2.341008941923276243e+00
2.336883816034425188e+00
2.336883816034425188e+00
2.336883816034425188e+00
2.312883083590197675e+00
2.312883083590197675e+00
2.312883083590197675e+00
2.312883083590197675e+00
2.299195165868098911e+00
2.299195165868098911e+00
2.299195165868098911e+00
2.287757316812646824e+00
2.287757316812646824e+00
2.287757316812646824e+00
2.287757316812646824e+00
2.272569353312784202e+00
2.272569353312784202e+00
2.272569353312784202e+00
2.263381572923978347e+00
2.263381572923978347e+00
2.263381572923978347e+00
2.278194524979400004e+00
2.278194524979400004e+00
2.278194524979400004e+00
2.278194524979400004e+00
2.284382213812677254e+00
2.284382213812677254e+00
2.284382213812677254e+00
2.281382122257148648e+00
2.281382122257148648e+00
2.281382122257148648e+00
2.281382122257148648e+00
2.271069307535019899e+00
2.271069307535019899e+00
2.271069307535019899e+00
2.294320017090365038e+00
2.294320017090365038e+00
2.294320017090365038e+00
2.294320017090365038e+00
2.313820612201300086e+00
2.313820612201300086e+00
2.313820612201300086e+00
2.317195715201269657e+00
2.317195715201269657e+00
2.317195715201269657e+00
2.329946104312265120e+00
2.329946104312265120e+00
2.329946104312265120e+00
2.329946104312265120e+00
2.326946012756737403e+00
2.326946012756737403e+00
2.326946012756737403e+00
2.301820245979186552e+00
2.301820245979186552e+00
2.301820245979186552e+00
2.301820245979186552e+00
2.301070223090304623e+00
2.301070223090304623e+00
2.301070223090304623e+00
2.281757133701590057e+00
2.281757133701590057e+00
2.281757133701590057e+00
2.257568895535142062e+00
2.257568895535142062e+00
2.257568895535142062e+00
2.257568895535142062e+00
2.266569170201727434e+00
2.266569170201727434e+00
2.266569170201727434e+00
2.279882076479384789e+00
2.279882076479384789e+00
2.279882076479384789e+00
2.279882076479384789e+00
2.282882168034912951e+00
2.282882168034912951e+00
2.282882168034912951e+00
2.273319376201666131e+00
2.273319376201666131e+00
2.273319376201666131e+00
2.272756859035004684e+00
2.272756859035004684e+00
2.272756859035004684e+00
2.272756859035004684e+00
2.310633014923550999e+00
2.310633014923550999e+00
2.310633014923550999e+00
2.329946104312265120e+00
2.329946104312265120e+00
2.329946104312265120e+00
2.329946104312265120e+00
2.333696218756676100e+00
2.333696218756676100e+00
2.333696218756676100e+00
2.343259010589922919e+00
2.343259010589922919e+00
2.343259010589922919e+00
2.332758690145573244e+00
2.332758690145573244e+00
2.332758690145573244e+00
2.332758690145573244e+00
2.305757866145817125e+00
2.305757866145817125e+00
2.305757866145817125e+00
2.296195074312570750e+00
2.296195074312570750e+00
2.296195074312570750e+00
2.296195074312570750e+00
2.264881618701742649e+00
2.264881618701742649e+00
2.264881618701742649e+00
2.249131138035218136e+00
2.249131138035218136e+00
2.249131138035218136e+00
2.259631458479567812e+00
2.259631458479567812e+00
2.259631458479567812e+00
2.259631458479567812e+00
2.279319559312723342e+00
2.279319559312723342e+00
2.279319559312723342e+00
2.288507339701529197e+00
2.288507339701529197e+00
2.288507339701529197e+00
2.288507339701529197e+00
2.273319376201666131e+00
2.273319376201666131e+00
2.273319376201666131e+00
2.275944456312753772e+00
2.275944456312753772e+00
2.275944456312753772e+00
2.308945463423566213e+00
2.308945463423566213e+00
2.308945463423566213e+00
2.308945463423566213e+00
2.314383129367961978e+00
2.314383129367961978e+00
2.314383129367961978e+00
2.313820612201300086e+00
2.313820612201300086e+00
2.313820612201300086e+00
2.320008301034577336e+00
2.320008301034577336e+00
2.320008301034577336e+00
2.320008301034577336e+00
2.310258003479110034e+00
2.310258003479110034e+00
2.310258003479110034e+00
2.290382396923734465e+00
2.290382396923734465e+00
2.290382396923734465e+00
2.290382396923734465e+00
2.290194891201513983e+00
2.290194891201513983e+00
2.290194891201513983e+00
2.271819330423901828e+00
2.271819330423901828e+00
2.271819330423901828e+00
2.271819330423901828e+00
2.253818781090731527e+00
2.253818781090731527e+00
2.253818781090731527e+00
2.277069490646077110e+00
2.277069490646077110e+00
2.277069490646077110e+00
2.292257454145939732e+00
2.292257454145939732e+00
2.292257454145939732e+00
2.292257454145939732e+00
2.290194891201513983e+00
2.290194891201513983e+00
2.290194891201513983e+00
2.279882076479384789e+00
2.279882076479384789e+00
2.279882076479384789e+00
2.279882076479384789e+00
2.299007660145878429e+00
2.299007660145878429e+00
2.299007660145878429e+00
2.317383220923490139e+00
2.317383220923490139e+00
2.317383220923490139e+00
2.316820703756828248e+00
2.316820703756828248e+00
2.316820703756828248e+00
2.316820703756828248e+00
2.321133335367900674e+00
2.321133335367900674e+00
2.321133335367900674e+00
2.310633014923550999e+00
2.310633014923550999e+00
2.310633014923550999e+00
2.310633014923550999e+00
2.296382580034791232e+00
2.296382580034791232e+00
2.296382580034791232e+00
2.290569902645954947e+00
2.290569902645954947e+00
2.290569902645954947e+00
2.290569902645954947e+00
2.278194524979400004e+00
2.278194524979400004e+00
2.278194524979400004e+00
2.261131504257332114e+00
2.261131504257332114e+00
2.261131504257332114e+00
2.253443769646290562e+00
2.253443769646290562e+00
2.253443769646290562e+00
2.253443769646290562e+00
2.268631733146153184e+00
2.268631733146153184e+00
2.268631733146153184e+00
2.276694479201635701e+00
2.276694479201635701e+00
2.276694479201635701e+00
2.276694479201635701e+00
2.279882076479384789e+00
2.279882076479384789e+00
2.279882076479384789e+00
2.277632007812738557e+00
2.277632007812738557e+00
2.277632007812738557e+00
2.313070589312418157e+00
2.313070589312418157e+00
2.313070589312418157e+00
2.313070589312418157e+00
2.331633655812249906e+00
2.331633655812249906e+00
2.331633655812249906e+00
2.333508713034455617e+00
2.333508713034455617e+00
2.333508713034455617e+00
2.333508713034455617e+00
2.342508987701040546e+00
2.342508987701040546e+00
2.342508987701040546e+00
2.326008484145634547e+00
2.326008484145634547e+00
2.326008484145634547e+00
2.305945371868038052e+00
2.305945371868038052e+00
2.305945371868038052e+00
2.305945371868038052e+00
2.301257728812525105e+00
2.301257728812525105e+00
2.301257728812525105e+00
2.277444502090518075e+00
2.277444502090518075e+00
2.277444502090518075e+00
2.277444502090518075e+00
2.259818964201788294e+00
2.259818964201788294e+00
2.259818964201788294e+00
2.260381481368449741e+00
2.260381481368449741e+00
2.260381481368449741e+00
2.260381481368449741e+00
2.270131778923917043e+00
2.270131778923917043e+00
2.270131778923917043e+00
2.275756950590533290e+00
2.275756950590533290e+00
2.275756950590533290e+00
2.273694387646107540e+00
2.273694387646107540e+00
2.273694387646107540e+00
2.273694387646107540e+00
2.277444502090518075e+00
2.277444502090518075e+00
2.277444502090518075e+00
2.304445326090273749e+00
2.304445326090273749e+00
2.304445326090273749e+00
2.304445326090273749e+00
2.321133335367900674e+00
2.321133335367900674e+00
2.321133335367900674e+00
2.322633381145664977e+00
2.322633381145664977e+00
2.322633381145664977e+00
2.327133518478957885e+00
2.327133518478957885e+00
2.327133518478957885e+00
2.327133518478957885e+00
2.314945646534623425e+00
2.314945646534623425e+00
2.314945646534623425e+00
2.299382671590319838e+00
2.299382671590319838e+00
2.299382671590319838e+00
2.299382671590319838e+00
2.302757774590289408e+00
2.302757774590289408e+00
2.302757774590289408e+00
2.280632099368266719e+00
2.280632099368266719e+00
2.280632099368266719e+00
2.261319009979552597e+00
2.261319009979552597e+00
2.261319009979552597e+00
2.261319009979552597e+00
2.274069399090548504e+00
2.274069399090548504e+00
2.274069399090548504e+00
2.282882168034912951e+00
2.282882168034912951e+00
2.282882168034912951e+00
2.282882168034912951e+00
2.281757133701590057e+00
2.281757133701590057e+00
2.281757133701590057e+00
2.271819330423901828e+00
2.271819330423901828e+00
2.271819330423901828e+00
2.271819330423901828e+00
2.285882259590441556e+00
2.285882259590441556e+00
2.285882259590441556e+00
2.311008026367992407e+00
2.311008026367992407e+00
2.311008026367992407e+00
2.305757866145817125e+00
2.305757866145817125e+00
2.305757866145817125e+00
2.305757866145817125e+00
2.305007843256935196e+00
2.305007843256935196e+00
2.305007843256935196e+00
2.323008392590105942e+00
2.323008392590105942e+00
2.323008392590105942e+00
2.323008392590105942e+00
2.311008026367992407e+00
2.311008026367992407e+00
2.311008026367992407e+00
2.299382671590319838e+00
2.299382671590319838e+00
2.299382671590319838e+00
2.288507339701529197e+00
2.288507339701529197e+00
2.288507339701529197e+00
2.288507339701529197e+00
2.272381847590563719e+00
2.272381847590563719e+00
2.272381847590563719e+00
2.262256538590655452e+00
2.262256538590655452e+00
2.262256538590655452e+00
2.262256538590655452e+00
2.275756950590533290e+00
2.275756950590533290e+00
2.275756950590533290e+00
2.278194524979400004e+00
2.278194524979400004e+00
2.278194524979400004e+00
2.278194524979400004e+00
2.275006927701650916e+00
2.275006927701650916e+00
2.275006927701650916e+00
2.270694296090578934e+00
2.270694296090578934e+00
2.270694296090578934e+00
2.299945188756981285e+00
2.299945188756981285e+00
2.299945188756981285e+00
2.299945188756981285e+00
2.325633472701193583e+00
2.325633472701193583e+00
2.325633472701193583e+00
2.331821161534470832e+00
2.331821161534470832e+00
2.331821161534470832e+00
2.331821161534470832e+00
2.334446241645558029e+00
2.334446241645558029e+00
2.334446241645558029e+00
2.325445966978973100e+00
2.325445966978973100e+00
2.325445966978973100e+00
2.305945371868038052e+00
2.305945371868038052e+00
2.305945371868038052e+00
2.305945371868038052e+00
2.299007660145878429e+00
2.299007660145878429e+00
2.299007660145878429e+00
2.278007019257179522e+00
2.278007019257179522e+00
2.278007019257179522e+00
2.278007019257179522e+00
2.259443952757347329e+00
2.259443952757347329e+00
2.259443952757347329e+00
2.265256630146183614e+00
2.265256630146183614e+00
2.265256630146183614e+00
2.272569353312784202e+00
2.272569353312784202e+00
2.272569353312784202e+00
2.272569353312784202e+00
2.277256996368297592e+00
2.277256996368297592e+00
2.277256996368297592e+00
2.272381847590563719e+00
2.272381847590563719e+00
2.272381847590563719e+00
2.272381847590563719e+00
2.270694296090578934e+00
2.270694296090578934e+00
2.270694296090578934e+00
2.304820337534714714e+00
2.304820337534714714e+00
2.304820337534714714e+00
2.304820337534714714e+00
2.321695852534562121e+00
2.321695852534562121e+00
2.321695852534562121e+00
2.325445966978973100e+00
2.325445966978973100e+00
2.325445966978973100e+00
2.333508713034455617e+00
2.333508713034455617e+00
2.333508713034455617e+00
2.333508713034455617e+00
2.320758323923459709e+00
2.320758323923459709e+00
2.320758323923459709e+00
2.313445600756859122e+00
2.313445600756859122e+00
2.313445600756859122e+00
2.301257728812525105e+00
2.301257728812525105e+00
2.301257728812525105e+00
2.301257728812525105e+00
2.281569627979369130e+00
2.281569627979369130e+00
2.281569627979369130e+00
2.260943998535111632e+00
2.260943998535111632e+00
2.260943998535111632e+00
2.260943998535111632e+00
2.260943998535111632e+00
2.260943998535111632e+00
2.260943998535111632e+00
2.279319559312723342e+00
2.279319559312723342e+00
2.279319559312723342e+00
2.281382122257148648e+00
2.281382122257148648e+00
2.281382122257148648e+00
2.281382122257148648e+00
2.266944181646168399e+00
2.266944181646168399e+00
2.266944181646168399e+00
2.263006561479537382e+00
2.263006561479537382e+00
2.263006561479537382e+00
2.263006561479537382e+00
2.302195257423627517e+00
2.302195257423627517e+00
2.302195257423627517e+00
2.313258095034638639e+00
2.313258095034638639e+00
2.313258095034638639e+00
2.313258095034638639e+00
2.317758232367931104e+00
2.317758232367931104e+00
2.317758232367931104e+00
2.330883632923367976e+00
2.330883632923367976e+00
2.330883632923367976e+00
2.309132969145787140e+00
2.309132969145787140e+00
2.309132969145787140e+00
2.309132969145787140e+00
2.303695303201391820e+00
2.303695303201391820e+00
2.303695303201391820e+00
2.294882534257026929e+00
2.294882534257026929e+00
2.294882534257026929e+00
2.294882534257026929e+00
2.268819238868374111e+00
2.268819238868374111e+00
2.268819238868374111e+00
2.249881160924100509e+00
2.249881160924100509e+00
2.249881160924100509e+00
2.267506698812830290e+00
2.267506698812830290e+00
2.267506698812830290e+00
2.267506698812830290e+00
2.279319559312723342e+00
2.279319559312723342e+00
2.279319559312723342e+00
2.278007019257179522e+00
2.278007019257179522e+00
2.278007019257179522e+00
2.278007019257179522e+00
2.270694296090578934e+00
2.270694296090578934e+00
2.270694296090578934e+00
2.294507522812585520e+00
2.294507522812585520e+00
2.294507522812585520e+00
2.294507522812585520e+00
2.327696035645618888e+00
2.327696035645618888e+00
2.327696035645618888e+00
2.338571367534409973e+00
2.338571367534409973e+00
2.338571367534409973e+00
2.345134067812128187e+00
2.345134067812128187e+00
2.345134067812128187e+00
2.345134067812128187e+00
2.334821253089998994e+00
2.334821253089998994e+00
2.334821253089998994e+00
2.311758049256874337e+00
2.311758049256874337e+00
2.311758049256874337e+00
2.311758049256874337e+00
2.308382946256904766e+00
2.308382946256904766e+00
2.308382946256904766e+00
2.285694753868221074e+00
2.285694753868221074e+00
2.285694753868221074e+00
2.268069215979491737e+00
2.268069215979491737e+00
2.268069215979491737e+00
2.268069215979491737e+00
2.245381023590808045e+00
2.245381023590808045e+00
2.245381023590808045e+00
2.258881435590685438e+00
2.258881435590685438e+00
2.258881435590685438e+00
2.258881435590685438e+00
2.267506698812830290e+00
2.267506698812830290e+00
2.267506698812830290e+00
2.265444135868404540e+00
2.265444135868404540e+00
2.265444135868404540e+00
2.269756767479476078e+00
2.269756767479476078e+00
2.269756767479476078e+00
2.269756767479476078e+00
2.306695394756919981e+00
2.306695394756919981e+00
2.306695394756919981e+00
2.321508346812341639e+00
2.321508346812341639e+00
2.321508346812341639e+00
2.321508346812341639e+00
2.323195898312326424e+00
2.323195898312326424e+00
2.323195898312326424e+00
2.324508438367870244e+00
2.324508438367870244e+00
2.324508438367870244e+00
2.315695669423505798e+00
2.315695669423505798e+00
2.315695669423505798e+00
2.315695669423505798e+00
2.300695211645863214e+00
2.300695211645863214e+00
2.300695211645863214e+00
2.296945097201452679e+00
2.296945097201452679e+00
2.296945097201452679e+00
2.296945097201452679e+00
2.281194616534928166e+00
2.281194616534928166e+00
2.281194616534928166e+00
2.264319101535081202e+00
2.264319101535081202e+00
2.264319101535081202e+00
2.265444135868404540e+00
2.265444135868404540e+00
2.265444135868404540e+00
2.265444135868404540e+00
2.279882076479384789e+00
2.279882076479384789e+00
2.279882076479384789e+00
2.288882351145970162e+00
2.288882351145970162e+00
2.288882351145970162e+00
2.288882351145970162e+00
2.280257087923826198e+00
2.280257087923826198e+00
2.280257087923826198e+00
2.282882168034912951e+00
2.282882168034912951e+00
2.282882168034912951e+00
2.282882168034912951e+00
2.317383220923490139e+00
2.317383220923490139e+00
2.317383220923490139e+00
2.318508255256813033e+00
2.318508255256813033e+00
2.318508255256813033e+00
2.318883266701254442e+00
2.318883266701254442e+00
2.318883266701254442e+00
2.318883266701254442e+00
2.332196172978911797e+00
2.332196172978911797e+00
2.332196172978911797e+00
2.318695760979033516e+00
2.318695760979033516e+00
2.318695760979033516e+00
2.318695760979033516e+00
2.305570360423596643e+00
2.305570360423596643e+00
2.305570360423596643e+00
2.287194799645985377e+00
2.287194799645985377e+00
2.287194799645985377e+00
2.263944090090640238e+00
2.263944090090640238e+00
2.263944090090640238e+00
2.263944090090640238e+00
2.250818689535202921e+00
2.250818689535202921e+00
2.250818689535202921e+00
2.257756401257362544e+00
2.257756401257362544e+00
2.257756401257362544e+00
2.257756401257362544e+00
2.271631824701681346e+00
2.271631824701681346e+00
2.271631824701681346e+00
2.275756950590533290e+00
2.275756950590533290e+00
2.275756950590533290e+00
2.265069124423963132e+00
2.265069124423963132e+00
2.265069124423963132e+00
2.265069124423963132e+00
2.279694570757164307e+00
2.279694570757164307e+00
2.279694570757164307e+00
2.314758140812402942e+00
2.314758140812402942e+00
2.314758140812402942e+00
2.314758140812402942e+00
2.328071047090059853e+00
2.328071047090059853e+00
2.328071047090059853e+00
2.338946378978850937e+00
2.338946378978850937e+00
2.338946378978850937e+00
2.330321115756706529e+00
2.330321115756706529e+00
2.330321115756706529e+00
2.330321115756706529e+00
2.306507889034699499e+00
2.306507889034699499e+00
2.306507889034699499e+00
2.302757774590289408e+00
2.302757774590289408e+00
2.302757774590289408e+00
2.302757774590289408e+00
2.296007568590349823e+00
2.296007568590349823e+00
2.296007568590349823e+00
2.281007110812707683e+00
2.281007110812707683e+00
2.281007110812707683e+00
2.281007110812707683e+00
2.261694021423993561e+00
2.261694021423993561e+00
2.261694021423993561e+00
2.276881984923856628e+00
2.276881984923856628e+00
2.276881984923856628e+00
2.284757225257118218e+00
2.284757225257118218e+00
2.284757225257118218e+00
2.284757225257118218e+00
2.277256996368297592e+00
2.277256996368297592e+00
2.277256996368297592e+00
2.269756767479476078e+00
2.269756767479476078e+00
2.269756767479476078e+00
2.269756767479476078e+00
2.292257454145939732e+00
2.292257454145939732e+00
2.292257454145939732e+00
2.316070680867946319e+00
2.316070680867946319e+00
2.316070680867946319e+00
2.319820795312356854e+00
2.319820795312356854e+00
2.319820795312356854e+00
2.319820795312356854e+00
2.336696310312204705e+00
2.336696310312204705e+00
2.336696310312204705e+00
2.323570909756767389e+00
2.323570909756767389e+00
2.323570909756767389e+00
2.305382854701376161e+00
2.305382854701376161e+00
2.305382854701376161e+00
2.305382854701376161e+00
2.303882808923612302e+00
2.303882808923612302e+00
2.303882808923612302e+00
2.278194524979400004e+00
2.278194524979400004e+00
2.278194524979400004e+00
2.259443952757347329e+00
2.259443952757347329e+00
2.259443952757347329e+00
2.259443952757347329e+00
2.258506424146244473e+00
2.258506424146244473e+00
2.258506424146244473e+00
2.279882076479384789e+00
2.279882076479384789e+00
2.279882076479384789e+00
2.279882076479384789e+00
2.281757133701590057e+00
2.281757133701590057e+00
2.281757133701590057e+00
2.274444410534989469e+00
2.274444410534989469e+00
2.274444410534989469e+00
2.274444410534989469e+00
2.279319559312723342e+00
2.279319559312723342e+00
2.279319559312723342e+00
2.311945554979094819e+00
2.311945554979094819e+00
2.311945554979094819e+00
2.320383312479018745e+00
2.320383312479018745e+00
2.320383312479018745e+00
2.320383312479018745e+00
2.312508072145756710e+00
2.312508072145756710e+00
2.312508072145756710e+00
2.317383220923490139e+00
2.317383220923490139e+00
2.317383220923490139e+00
2.317383220923490139e+00
2.305382854701376161e+00
2.305382854701376161e+00
2.305382854701376161e+00
2.299195165868098911e+00
2.299195165868098911e+00
2.299195165868098911e+00
2.302195257423627517e+00
2.302195257423627517e+00
2.302195257423627517e+00
2.302195257423627517e+00
2.281569627979369130e+00
2.281569627979369130e+00
2.281569627979369130e+00
2.266006653035065987e+00
2.266006653035065987e+00
2.266006653035065987e+00
2.266006653035065987e+00
2.263006561479537382e+00
2.263006561479537382e+00
2.263006561479537382e+00
2.274631916257209951e+00
2.274631916257209951e+00
2.274631916257209951e+00
2.281382122257148648e+00
2.281382122257148648e+00
2.281382122257148648e+00
2.281382122257148648e+00
2.274444410534989469e+00
2.274444410534989469e+00
2.274444410534989469e+00
2.287007293923764895e+00
2.287007293923764895e+00
2.287007293923764895e+00
2.287007293923764895e+00
2.315695669423505798e+00
2.315695669423505798e+00
2.315695669423505798e+00
2.324695944090090727e+00
2.324695944090090727e+00
2.324695944090090727e+00
2.322820886867885459e+00
2.322820886867885459e+00
2.322820886867885459e+00
2.322820886867885459e+00
2.321883358256782603e+00
2.321883358256782603e+00
2.321883358256782603e+00
2.309132969145787140e+00
2.309132969145787140e+00
2.309132969145787140e+00
2.309132969145787140e+00
2.292257454145939732e+00
2.292257454145939732e+00
2.292257454145939732e+00
2.294507522812585520e+00
2.294507522812585520e+00
2.294507522812585520e+00
2.294507522812585520e+00
2.281007110812707683e+00
2.281007110812707683e+00
2.281007110812707683e+00
2.264506607257301685e+00
2.264506607257301685e+00
2.264506607257301685e+00
2.268069215979491737e+00
2.268069215979491737e+00
2.268069215979491737e+00
2.268069215979491737e+00
2.278007019257179522e+00
2.278007019257179522e+00
2.278007019257179522e+00
2.275944456312753772e+00
2.275944456312753772e+00
2.275944456312753772e+00
2.275944456312753772e+00
2.263756584368419311e+00
2.263756584368419311e+00
2.263756584368419311e+00
2.291507431257057803e+00
2.291507431257057803e+00
2.291507431257057803e+00
2.320945829645680192e+00
2.320945829645680192e+00
2.320945829645680192e+00
2.320945829645680192e+00
2.325633472701193583e+00
2.325633472701193583e+00
2.325633472701193583e+00
2.337071321756645670e+00
2.337071321756645670e+00
2.337071321756645670e+00
2.337071321756645670e+00
2.323383404034546906e+00
2.323383404034546906e+00
2.323383404034546906e+00
2.301257728812525105e+00
2.301257728812525105e+00
2.301257728812525105e+00
2.298632648701437464e+00
2.298632648701437464e+00
2.298632648701437464e+00
2.298632648701437464e+00
2.283632190923795324e+00
2.283632190923795324e+00
2.283632190923795324e+00
2.272944364757225166e+00
2.272944364757225166e+00
2.272944364757225166e+00
2.272944364757225166e+00
2.253818781090731527e+00
2.253818781090731527e+00
2.253818781090731527e+00
2.263194067201757864e+00
2.263194067201757864e+00
2.263194067201757864e+00
2.263194067201757864e+00
2.273319376201666131e+00
2.273319376201666131e+00
2.273319376201666131e+00
2.264881618701742649e+00
2.264881618701742649e+00
2.264881618701742649e+00
2.264506607257301685e+00
2.264506607257301685e+00
2.264506607257301685e+00
2.264506607257301685e+00
2.307257911923581428e+00
2.307257911923581428e+00
2.307257911923581428e+00
2.325258461256752618e+00
2.325258461256752618e+00
2.325258461256752618e+00
2.325258461256752618e+00
2.328071047090059853e+00
2.328071047090059853e+00
2.328071047090059853e+00
2.336321298867763296e+00
2.336321298867763296e+00
2.336321298867763296e+00
2.324133426923429280e+00
2.324133426923429280e+00
2.324133426923429280e+00
2.324133426923429280e+00
2.305757866145817125e+00
2.305757866145817125e+00
2.305757866145817125e+00
2.299195165868098911e+00
2.299195165868098911e+00
2.299195165868098911e+00
2.299195165868098911e+00
2.278944547868282378e+00
2.278944547868282378e+00
2.278944547868282378e+00
2.266194158757286470e+00
2.266194158757286470e+00
2.266194158757286470e+00
2.263381572923978347e+00
2.263381572923978347e+00
2.263381572923978347e+00
2.263381572923978347e+00
2.278194524979400004e+00
2.278194524979400004e+00
2.278194524979400004e+00
2.285132236701559627e+00
2.285132236701559627e+00
2.285132236701559627e+00
2.285132236701559627e+00
2.272756859035004684e+00
2.272756859035004684e+00
2.272756859035004684e+00
2.278569536423841413e+00
2.278569536423841413e+00
2.278569536423841413e+00
2.278569536423841413e+00
2.314945646534623425e+00
2.314945646534623425e+00
2.314945646534623425e+00
2.324320932645649762e+00
2.324320932645649762e+00
2.324320932645649762e+00
2.326571001312295994e+00
2.326571001312295994e+00
2.326571001312295994e+00
2.326571001312295994e+00
2.326758507034516477e+00
2.326758507034516477e+00
2.326758507034516477e+00
2.312133060701315301e+00
2.312133060701315301e+00
2.312133060701315301e+00
2.312133060701315301e+00
2.303320291756950855e+00
2.303320291756950855e+00
2.303320291756950855e+00
2.298632648701437464e+00
2.298632648701437464e+00
2.298632648701437464e+00
2.272381847590563719e+00
2.272381847590563719e+00
2.272381847590563719e+00
2.272381847590563719e+00
2.262631550035096417e+00
2.262631550035096417e+00
2.262631550035096417e+00
2.263944090090640238e+00
2.263944090090640238e+00
2.263944090090640238e+00
2.263944090090640238e+00
2.276319467757194737e+00
2.276319467757194737e+00
2.276319467757194737e+00
2.280069582201605716e+00
2.280069582201605716e+00
2.280069582201605716e+00
2.280069582201605716e+00
2.264694112979522167e+00
2.264694112979522167e+00
2.264694112979522167e+00
2.286632282479323930e+00
2.286632282479323930e+00
2.286632282479323930e+00
2.324883449812311209e+00
2.324883449812311209e+00
2.324883449812311209e+00
2.324883449812311209e+00
2.336696310312204705e+00
2.336696310312204705e+00
2.336696310312204705e+00
2.345696584978789634e+00
2.345696584978789634e+00
2.345696584978789634e+00
2.345696584978789634e+00
2.338571367534409973e+00
2.338571367534409973e+00
2.311945554979094819e+00
2.311945554979094819e+00
2.297882625812555535e+00
2.297882625812555535e+00
2.297882625812555535e+00
2.297882625812555535e+00
2.275381939146092325e+00
2.275381939146092325e+00
2.275381939146092325e+00
2.263006561479537382e+00
2.263006561479537382e+00
2.263006561479537382e+00
2.263006561479537382e+00
2.243505966368602778e+00
2.243505966368602778e+00
2.243505966368602778e+00
2.253631275368511044e+00
2.253631275368511044e+00
2.253631275368511044e+00
2.268069215979491737e+00
2.268069215979491737e+00
2.268069215979491737e+00
2.268069215979491737e+00
2.265819147312845505e+00
2.265819147312845505e+00
2.265819147312845505e+00
2.261506515701773079e+00
2.261506515701773079e+00
2.261506515701773079e+00
2.261506515701773079e+00
2.297507614368114126e+00
2.297507614368114126e+00
2.297507614368114126e+00
2.319258278145695407e+00
2.319258278145695407e+00
2.319258278145695407e+00
2.319070772423474924e+00
2.319070772423474924e+00
2.319070772423474924e+00
2.319070772423474924e+00
2.330133610034486047e+00
2.330133610034486047e+00
2.330133610034486047e+00
2.327508529923398850e+00
2.327508529923398850e+00
2.327508529923398850e+00
2.327508529923398850e+00
2.309882992034669069e+00
2.309882992034669069e+00
2.309882992034669069e+00
2.305570360423596643e+00
2.305570360423596643e+00
2.305570360423596643e+00
2.305570360423596643e+00
2.279694570757164307e+00
2.279694570757164307e+00
2.279694570757164307e+00
2.268069215979491737e+00
2.268069215979491737e+00
2.268069215979491737e+00
2.251006195257423848e+00
2.251006195257423848e+00
2.251006195257423848e+00
2.251006195257423848e+00
2.268819238868374111e+00
2.268819238868374111e+00
2.268819238868374111e+00
2.282882168034912951e+00
2.282882168034912951e+00
2.282882168034912951e+00
2.282882168034912951e+00
2.275194433423871843e+00
2.275194433423871843e+00
2.275194433423871843e+00
2.278007019257179522e+00
2.278007019257179522e+00
2.278007019257179522e+00
2.307445417645802355e+00
2.307445417645802355e+00
2.307445417645802355e+00
2.307445417645802355e+00
2.317945738090151586e+00
2.317945738090151586e+00
2.317945738090151586e+00
2.329196081423383191e+00
2.329196081423383191e+00
2.329196081423383191e+00
2.332571184423352761e+00
2.332571184423352761e+00
2.332571184423352761e+00
2.332571184423352761e+00
2.317758232367931104e+00
2.317758232367931104e+00
2.317758232367931104e+00
2.305007843256935196e+00
2.305007843256935196e+00
2.305007843256935196e+00
2.305007843256935196e+00
2.299382671590319838e+00
2.299382671590319838e+00
2.299382671590319838e+00
2.279694570757164307e+00
2.279694570757164307e+00
2.279694570757164307e+00
2.264506607257301685e+00
2.264506607257301685e+00
2.264506607257301685e+00
2.264506607257301685e+00
2.254568803979613900e+00
2.254568803979613900e+00
2.254568803979613900e+00
2.267131687368389326e+00
2.267131687368389326e+00
2.267131687368389326e+00
2.267506698812830290e+00
2.267506698812830290e+00
2.267506698812830290e+00
2.263381572923978347e+00
2.263381572923978347e+00
2.263381572923978347e+00
2.288132328257088233e+00
2.288132328257088233e+00
2.288132328257088233e+00
2.288132328257088233e+00
2.320195806756797818e+00
2.320195806756797818e+00
2.320195806756797818e+00
2.323383404034546906e+00
2.323383404034546906e+00
2.323383404034546906e+00
2.326758507034516477e+00
2.326758507034516477e+00
2.326758507034516477e+00
2.326758507034516477e+00
2.318883266701254442e+00
2.318883266701254442e+00
2.318883266701254442e+00
2.303132786034730373e+00
2.303132786034730373e+00
2.303132786034730373e+00
2.298632648701437464e+00
2.298632648701437464e+00
2.298632648701437464e+00
2.298632648701437464e+00
2.288132328257088233e+00
2.288132328257088233e+00
2.288132328257088233e+00
2.266944181646168399e+00
2.266944181646168399e+00
2.266944181646168399e+00
2.266944181646168399e+00
2.255131321146275347e+00
2.255131321146275347e+00
2.255131321146275347e+00
2.258318918424023991e+00
2.258318918424023991e+00
2.258318918424023991e+00
2.277069490646077110e+00
2.277069490646077110e+00
2.277069490646077110e+00
2.277069490646077110e+00
2.273694387646107540e+00
2.273694387646107540e+00
2.273694387646107540e+00
2.266381664479506952e+00
2.266381664479506952e+00
2.266381664479506952e+00
2.266381664479506952e+00
2.289444868312631609e+00
2.289444868312631609e+00
2.289444868312631609e+00
2.317945738090151586e+00
2.317945738090151586e+00
2.317945738090151586e+00
2.323383404034546906e+00
2.323383404034546906e+00
2.323383404034546906e+00
2.323383404034546906e+00
2.336883816034425188e+00
2.336883816034425188e+00
2.336883816034425188e+00
2.332571184423352761e+00
2.332571184423352761e+00
2.332571184423352761e+00
2.312695577867977192e+00
2.312695577867977192e+00
2.312695577867977192e+00
2.312695577867977192e+00
2.310445509201330516e+00
2.310445509201330516e+00
2.310445509201330516e+00
2.286819788201544412e+00
2.286819788201544412e+00
2.286819788201544412e+00
2.248381115146336207e+00
2.248381115146336207e+00
2.248381115146336207e+00
2.248381115146336207e+00
2.161940977202673420e+00
2.161940977202673420e+00
2.161940977202673420e+00
2.194754478591265823e+00
2.194754478591265823e+00
2.194754478591265823e+00
2.291319925534837321e+00
2.291319925534837321e+00
2.291319925534837321e+00
2.291319925534837321e+00
2.369884823145237629e+00
2.369884823145237629e+00
2.369884823145237629e+00
2.338008850367748082e+00
2.338008850367748082e+00
2.338008850367748082e+00
2.338008850367748082e+00
2.246506057924130939e+00
2.246506057924130939e+00
2.246506057924130939e+00
2.386760338145085036e+00
2.386760338145085036e+00
2.386760338145085036e+00
2.386760338145085036e+00
2.362197088534196077e+00
2.362197088534196077e+00
2.362197088534196077e+00
2.363697134311959935e+00
2.363697134311959935e+00
2.363697134311959935e+00
2.341383953367717208e+00
2.341383953367717208e+00
2.341383953367717208e+00
2.341383953367717208e+00
2.315320657979064389e+00
2.315320657979064389e+00
2.315320657979064389e+00
2.292819971312600735e+00
2.292819971312600735e+00
2.292819971312600735e+00
2.292819971312600735e+00
2.255881344035157721e+00
2.255881344035157721e+00
2.255881344035157721e+00
2.195316995757927270e+00
2.195316995757927270e+00
2.195316995757927270e+00
2.247256080813012868e+00
2.247256080813012868e+00
2.244255989257484707e+00
2.244255989257484707e+00
2.181816583758049433e+00
2.246506057924130939e+00
2.246506057924130939e+00
2.237318277535325084e+00
2.354884365367595489e+00
2.354884365367595489e+00
2.374572466200750576e+00
2.374572466200750576e+00
2.355821893978697901e+00
2.327508529923398850e+00
2.327508529923398850e+00
2.237505783257545566e+00
2.251756218146305777e+00
2.251756218146305777e+00
2.374572466200750576e+00
2.284382213812677254e+00
2.284382213812677254e+00
2.318508255256813033e+00
2.318508255256813033e+00
2.247443586535233351e+00
2.264131595812860720e+00
2.264131595812860720e+00
2.311383037812433372e+00
2.311383037812433372e+00
2.284944730979339145e+00
2.315133152256843907e+00
2.315133152256843907e+00
2.285882259590441556e+00
2.285882259590441556e+00
2.351134250923184954e+00
2.345321573534348669e+00
2.345321573534348669e+00
2.336133793145542814e+00
2.237130771813104602e+00
2.237130771813104602e+00
2.261131504257332114e+00
2.261131504257332114e+00
2.317758232367931104e+00
2.302757774590289408e+00
2.302757774590289408e+00
2.276319467757194737e+00
2.276319467757194737e+00
2.275756950590533290e+00
2.239005829035309869e+00
2.239005829035309869e+00
2.248756126590777171e+00
2.248756126590777171e+00
2.254756309701834383e+00
2.288882351145970162e+00
2.288882351145970162e+00
2.351884273812066883e+00
2.346259102145451525e+00
2.346259102145451525e+00
2.347571642200994901e+00
2.347571642200994901e+00
2.329758598590044638e+00
2.308195440534684284e+00
2.308195440534684284e+00
2.303882808923612302e+00
2.303882808923612302e+00
2.281569627979369130e+00
2.277444502090518075e+00
2.277444502090518075e+00
2.254193792535172935e+00
2.254193792535172935e+00
2.266381664479506952e+00
2.279882076479384789e+00
2.279882076479384789e+00
2.272194341868343237e+00
2.280257087923826198e+00
2.280257087923826198e+00
2.312883083590197675e+00
2.312883083590197675e+00
2.329758598590044638e+00
2.336696310312204705e+00
2.336696310312204705e+00
2.338196356089969008e+00
2.338196356089969008e+00
2.316258186590166801e+00
2.306695394756919981e+00
2.306695394756919981e+00
2.296382580034791232e+00
2.296382580034791232e+00
2.274069399090548504e+00
2.267881710257271255e+00
2.267881710257271255e+00
2.251006195257423848e+00
2.251006195257423848e+00
2.263194067201757864e+00
2.269006744590594149e+00
2.269006744590594149e+00
2.260006469924008776e+00
2.281382122257148648e+00
2.281382122257148648e+00
2.314195623645741495e+00
2.314195623645741495e+00
2.325258461256752618e+00
2.331633655812249906e+00
2.331633655812249906e+00
2.328258552812280335e+00
2.328258552812280335e+00
2.307445417645802355e+00
2.300695211645863214e+00
2.300695211645863214e+00
2.282882168034912951e+00
2.282882168034912951e+00
2.260943998535111632e+00
2.252506241035188150e+00
2.252506241035188150e+00
2.259443952757347329e+00
2.259443952757347329e+00
2.284944730979339145e+00
2.289819879757073018e+00
2.289819879757073018e+00
2.276131962034974254e+00
2.299570177312540320e+00
2.299570177312540320e+00
2.323758415478988315e+00
2.323758415478988315e+00
2.327508529923398850e+00
2.334633747367778511e+00
2.334633747367778511e+00
2.330508621478927012e+00
2.330508621478927012e+00
2.311195532090212890e+00
2.307257911923581428e+00
2.307257911923581428e+00
2.282882168034912951e+00
2.282882168034912951e+00
2.271256813257240381e+00
2.255318826868495830e+00
2.255318826868495830e+00
2.261319009979552597e+00
2.281007110812707683e+00
2.281007110812707683e+00
2.273881893368328022e+00
2.273881893368328022e+00
2.273881893368328022e+00
2.314570635090182460e+00
2.314570635090182460e+00
2.331071138645588459e+00
2.331071138645588459e+00
2.329758598590044638e+00
2.329946104312265120e+00
2.329946104312265120e+00
2.315883175145725836e+00
2.315883175145725836e+00
2.299945188756981285e+00
2.288694845423749680e+00
2.288694845423749680e+00
2.275381939146092325e+00
2.273881893368328022e+00
2.273881893368328022e+00
2.250443678090761956e+00
2.250443678090761956e+00
2.265256630146183614e+00
2.285882259590441556e+00
2.285882259590441556e+00
2.274631916257209951e+00
2.280819605090487201e+00
2.280819605090487201e+00
2.319070772423474924e+00
2.319070772423474924e+00
2.323945921201208797e+00
2.329758598590044638e+00
2.329758598590044638e+00
2.327883541367839371e+00
2.327883541367839371e+00
2.311945554979094819e+00
2.299382671590319838e+00
2.299382671590319838e+00
2.278194524979400004e+00
2.278194524979400004e+00
2.261131504257332114e+00
2.253631275368511044e+00
2.253631275368511044e+00
2.254381298257393418e+00
2.278757042146061895e+00
2.278757042146061895e+00
2.285694753868221074e+00
2.285694753868221074e+00
2.272194341868343237e+00
2.292632465590380253e+00
2.292632465590380253e+00
2.322445875423444495e+00
2.322445875423444495e+00
2.330133610034486047e+00
2.336696310312204705e+00
2.336696310312204705e+00
2.326758507034516477e+00
2.326758507034516477e+00
2.307820429090243319e+00
2.307070406201360946e+00
2.307070406201360946e+00
2.287757316812646824e+00
2.287757316812646824e+00
2.277632007812738557e+00
2.257568895535142062e+00
2.257568895535142062e+00
2.245756035035248566e+00
2.260943998535111632e+00
2.260943998535111632e+00
2.266569170201727434e+00
2.266569170201727434e+00
2.262631550035096417e+00
2.302757774590289408e+00
2.302757774590289408e+00
2.328446058534500818e+00
2.328446058534500818e+00
2.329946104312265120e+00
2.341383953367717208e+00
2.341383953367717208e+00
2.328821069978942226e+00
2.328821069978942226e+00
2.312133060701315301e+00
2.307820429090243319e+00
2.307820429090243319e+00
2.281007110812707683e+00
2.269381756035035114e+00
2.269381756035035114e+00
2.254381298257393418e+00
2.254381298257393418e+00
2.271256813257240381e+00
2.288694845423749680e+00
2.288694845423749680e+00
2.271256813257240381e+00
2.271256813257240381e+00
2.266381664479506952e+00
2.295632557145908859e+00
2.295632557145908859e+00
2.317758232367931104e+00
2.317758232367931104e+00
2.327696035645618888e+00
2.332758690145573244e+00
2.332758690145573244e+00
2.317195715201269657e+00
2.317195715201269657e+00
2.303695303201391820e+00
2.287944822534867306e+00
2.287944822534867306e+00
2.265631641590625023e+00
2.267881710257271255e+00
2.267881710257271255e+00
2.248006103701895242e+00
2.248006103701895242e+00
2.265256630146183614e+00
2.281194616534928166e+00
2.281194616534928166e+00
2.272006836146122755e+00
2.272006836146122755e+00
2.290757408368175430e+00
2.327321024201178368e+00
2.327321024201178368e+00
2.336696310312204705e+00
2.336696310312204705e+00
2.341383953367717208e+00
2.336321298867763296e+00
2.336321298867763296e+00
2.312695577867977192e+00
2.302570268868068482e+00
2.302570268868068482e+00
2.278569536423841413e+00
2.278569536423841413e+00
2.252881252479629115e+00
2.251381206701864812e+00
2.251381206701864812e+00
2.252131229590746742e+00
2.252131229590746742e+00
2.271256813257240381e+00
2.282694662312692468e+00
2.282694662312692468e+00
2.278194524979400004e+00
2.278194524979400004e+00
2.302757774590289408e+00
2.324133426923429280e+00
2.324133426923429280e+00
2.326008484145634547e+00
2.332008667256691314e+00
2.332008667256691314e+00
2.318133243812372069e+00
2.318133243812372069e+00
2.303132786034730373e+00
2.306507889034699499e+00
2.306507889034699499e+00
2.282507156590471986e+00
2.270131778923917043e+00
2.257756401257362544e+00
2.257756401257362544e+00
2.263944090090640238e+00
2.263944090090640238e+00
2.284569719534897736e+00
2.280444593646046680e+00
2.280444593646046680e+00
2.277632007812738557e+00
2.277632007812738557e+00
2.310633014923550999e+00
2.322070863979003530e+00
2.322070863979003530e+00
2.325820978423414065e+00
2.325820978423414065e+00
2.328446058534500818e+00
2.303507797479171337e+00
2.303507797479171337e+00
2.302195257423627517e+00
2.302195257423627517e+00
2.300132694479201767e+00
2.270506790368358452e+00
2.270506790368358452e+00
2.271631824701681346e+00
2.254193792535172935e+00
2.254193792535172935e+00
2.279694570757164307e+00
2.279694570757164307e+00
2.287569811090426342e+00
2.271256813257240381e+00
2.271256813257240381e+00
2.272381847590563719e+00
2.272381847590563719e+00
2.300132694479201767e+00
2.308195440534684284e+00
2.308195440534684284e+00
2.314383129367961978e+00
2.314383129367961978e+00
2.324508438367870244e+00
2.303507797479171337e+00
2.303507797479171337e+00
2.301632740256966070e+00
2.293194982757042144e+00
2.293194982757042144e+00
2.272944364757225166e+00
2.272944364757225166e+00
2.275569444868312807e+00
2.258881435590685438e+00
2.258881435590685438e+00
2.279694570757164307e+00
2.279694570757164307e+00
2.283632190923795324e+00
2.268069215979491737e+00
2.268069215979491737e+00
2.294320017090365038e+00
2.323008392590105942e+00
2.323008392590105942e+00
2.329946104312265120e+00
2.331258644367808941e+00
2.331258644367808941e+00
2.322258369701224012e+00
2.322258369701224012e+00
2.295445051423688376e+00
2.303132786034730373e+00
2.303132786034730373e+00
2.290382396923734465e+00
2.279507065034943825e+00
2.279507065034943825e+00
2.272194341868343237e+00
2.272194341868343237e+00
2.269756767479476078e+00
2.290757408368175430e+00
2.290757408368175430e+00
2.281194616534928166e+00
2.281194616534928166e+00
2.267881710257271255e+00
2.296757591479232197e+00
2.296757591479232197e+00
2.319633289590136371e+00
2.323008392590105942e+00
2.323008392590105942e+00
2.329196081423383191e+00
2.329196081423383191e+00
2.313633106479079604e+00
2.300320200201422249e+00
2.300320200201422249e+00
2.297320108645893644e+00
2.297320108645893644e+00
2.271256813257240381e+00
2.271069307535019899e+00
2.271069307535019899e+00
2.260756492812891150e+00
2.260756492812891150e+00
2.269756767479476078e+00
2.284382213812677254e+00
2.284382213812677254e+00
2.274444410534989469e+00
2.282319650868251504e+00
2.282319650868251504e+00
2.316820703756828248e+00
2.316820703756828248e+00
2.322633381145664977e+00
2.325445966978973100e+00
2.325445966978973100e+00
2.308195440534684284e+00
2.308195440534684284e+00
2.318508255256813033e+00
2.302945280312509890e+00
2.302945280312509890e+00
2.296945097201452679e+00
2.296945097201452679e+00
2.272381847590563719e+00
2.269756767479476078e+00
2.269756767479476078e+00
2.250256172368541474e+00
2.270319284646137969e+00
2.270319284646137969e+00
2.280444593646046680e+00
2.280444593646046680e+00
2.270319284646137969e+00
2.285132236701559627e+00
2.285132236701559627e+00
2.320008301034577336e+00
2.320008301034577336e+00
2.325633472701193583e+00
2.337633838923307117e+00
2.337633838923307117e+00
2.341383953367717208e+00
2.341383953367717208e+00
2.321508346812341639e+00
2.315695669423505798e+00
2.315695669423505798e+00
2.290382396923734465e+00
2.268631733146153184e+00
2.268631733146153184e+00
2.263381572923978347e+00
2.263381572923978347e+00
2.254568803979613900e+00
2.272756859035004684e+00
2.272756859035004684e+00
2.270319284646137969e+00
2.259818964201788294e+00
2.259818964201788294e+00
2.283632190923795324e+00
2.283632190923795324e+00
2.299757683034760802e+00
2.309132969145787140e+00
2.309132969145787140e+00
2.326195989867855030e+00
2.326195989867855030e+00
2.328258552812280335e+00
2.303132786034730373e+00
2.303132786034730373e+00
2.304820337534714714e+00
2.304820337534714714e+00
2.278757042146061895e+00
2.268631733146153184e+00
2.268631733146153184e+00
2.261131504257332114e+00
2.266194158757286470e+00
2.266194158757286470e+00
2.291694936979278285e+00
2.291694936979278285e+00
2.283069673757133433e+00
2.275944456312753772e+00
2.275944456312753772e+00
2.308945463423566213e+00
2.308945463423566213e+00
2.304070314645832784e+00
2.336133793145542814e+00
2.336133793145542814e+00
2.343821527756584366e+00
2.343821527756584366e+00
2.323195898312326424e+00
2.304632831812494231e+00
2.304632831812494231e+00
2.296945097201452679e+00
2.278757042146061895e+00
2.278757042146061895e+00
2.285694753868221074e+00
2.285694753868221074e+00
2.263944090090640238e+00
2.268631733146153184e+00
2.268631733146153184e+00
2.278382030701620931e+00
2.278382030701620931e+00
2.259631458479567812e+00
2.268631733146153184e+00
2.268631733146153184e+00
2.311945554979094819e+00
2.311945554979094819e+00
2.319633289590136371e+00
2.320383312479018745e+00
2.320383312479018745e+00
2.317945738090151586e+00
2.317945738090151586e+00
2.305945371868038052e+00
2.301632740256966070e+00
2.301632740256966070e+00
2.297132602923673161e+00
2.281007110812707683e+00
2.281007110812707683e+00
2.280632099368266719e+00
2.280632099368266719e+00
2.256818872646260132e+00
2.272756859035004684e+00
2.272756859035004684e+00
2.281757133701590057e+00
2.281757133701590057e+00
2.273131870479445649e+00
2.297320108645893644e+00
2.297320108645893644e+00
2.327883541367839371e+00
2.327883541367839371e+00
2.337446333201086635e+00
2.340071413312173831e+00
2.340071413312173831e+00
2.327133518478957885e+00
2.306320383312479017e+00
2.306320383312479017e+00
2.309507980590228104e+00
2.309507980590228104e+00
2.294132511368144556e+00
2.281007110812707683e+00
2.281007110812707683e+00
2.270881801812799416e+00
2.270881801812799416e+00
2.254943815424054865e+00
2.264506607257301685e+00
2.264506607257301685e+00
2.266381664479506952e+00
2.266381664479506952e+00
2.264131595812860720e+00
2.300695211645863214e+00
2.300695211645863214e+00
2.321133335367900674e+00
2.321133335367900674e+00
2.317758232367931104e+00
2.318695760979033516e+00
2.318695760979033516e+00
2.291132419812616394e+00
2.284569719534897736e+00
2.284569719534897736e+00
2.295070039979247412e+00
2.295070039979247412e+00
2.271631824701681346e+00
2.275944456312753772e+00
2.275944456312753772e+00
2.288319833979308715e+00
2.288319833979308715e+00
2.297132602923673161e+00
2.290944914090395912e+00
2.290944914090395912e+00
2.266569170201727434e+00
2.266569170201727434e+00
2.258131412701803509e+00
2.302195257423627517e+00
2.302195257423627517e+00
2.329008575701162709e+00
2.318508255256813033e+00
2.318508255256813033e+00
2.322258369701224012e+00
2.322258369701224012e+00
2.314758140812402942e+00
2.296945097201452679e+00
2.296945097201452679e+00
2.292632465590380253e+00
2.292632465590380253e+00
2.269194250312814631e+00
2.290944914090395912e+00
2.290944914090395912e+00
2.278569536423841413e+00
2.302382763145847999e+00
2.302382763145847999e+00
2.299382671590319838e+00
2.299382671590319838e+00
2.272006836146122755e+00
2.285694753868221074e+00
2.285694753868221074e+00
2.340446424756614796e+00
2.340446424756614796e+00
2.360884548478652700e+00
2.331821161534470832e+00
2.331821161534470832e+00
2.318320749534592551e+00
2.318320749534592551e+00
2.291882442701498768e+00
2.301820245979186552e+00
2.301820245979186552e+00
2.256818872646260132e+00
2.233568163090914993e+00
2.233568163090914993e+00
2.237505783257545566e+00
2.237505783257545566e+00
2.231693105868709726e+00
2.276694479201635701e+00
2.276694479201635701e+00
2.272006836146122755e+00
2.272006836146122755e+00
2.262069032868434526e+00
2.311195532090212890e+00
2.311195532090212890e+00
2.347384136478774419e+00
2.347384136478774419e+00
2.342133976256599581e+00
2.331633655812249906e+00
2.331633655812249906e+00
2.323570909756767389e+00
2.323570909756767389e+00
2.334071230201117064e+00
2.319070772423474924e+00
2.319070772423474924e+00
2.280819605090487201e+00
2.273506881923887057e+00
2.273506881923887057e+00
2.261319009979552597e+00
2.261319009979552597e+00
2.270694296090578934e+00
2.285319742423780109e+00
2.285319742423780109e+00
2.281382122257148648e+00
2.281382122257148648e+00
2.283069673757133433e+00
2.318695760979033516e+00
2.318695760979033516e+00
2.310070497756889552e+00
2.310070497756889552e+00
2.318508255256813033e+00
2.304445326090273749e+00
2.304445326090273749e+00
2.275569444868312807e+00
2.275569444868312807e+00
2.254756309701834383e+00
2.258131412701803509e+00
2.258131412701803509e+00
2.226817957090975852e+00
2.242193426313058957e+00
2.242193426313058957e+00
2.259631458479567812e+00
2.259631458479567812e+00
2.306507889034699499e+00
2.340071413312173831e+00
2.340071413312173831e+00
2.300695211645863214e+00
2.300695211645863214e+00
2.318508255256813033e+00
2.328446058534500818e+00
2.328446058534500818e+00
2.317195715201269657e+00
2.317195715201269657e+00
2.322070863979003530e+00
2.307445417645802355e+00
2.307445417645802355e+00
2.296007568590349823e+00
2.296007568590349823e+00
2.292444959868159771e+00
2.291507431257057803e+00
2.291507431257057803e+00
2.274256904812768987e+00
2.283069673757133433e+00
2.283069673757133433e+00
2.262819055757316900e+00
2.262819055757316900e+00
2.268631733146153184e+00
2.261131504257332114e+00
2.261131504257332114e+00
2.250068666646320992e+00
2.250068666646320992e+00
2.274631916257209951e+00
2.311195532090212890e+00
2.311195532090212890e+00
2.316070680867946319e+00
2.316070680867946319e+00
2.319633289590136371e+00
2.308195440534684284e+00
2.308195440534684284e+00
2.309882992034669069e+00
2.309882992034669069e+00
2.335946287423322332e+00
2.298445142979216982e+00
2.298445142979216982e+00
2.281194616534928166e+00
2.277632007812738557e+00
2.277632007812738557e+00
2.251381206701864812e+00
2.251381206701864812e+00
2.264131595812860720e+00
2.266194158757286470e+00
2.266194158757286470e+00
2.277819513534959039e+00
2.277819513534959039e+00
2.315695669423505798e+00
2.323195898312326424e+00
2.323195898312326424e+00
2.320195806756797818e+00
2.320195806756797818e+00
2.328821069978942226e+00
2.320758323923459709e+00
2.320758323923459709e+00
2.309132969145787140e+00
2.316070680867946319e+00
2.316070680867946319e+00
2.289632374034852091e+00
2.289632374034852091e+00
2.276694479201635701e+00
2.256068849757378203e+00
2.256068849757378203e+00
2.258693929868464956e+00
2.258693929868464956e+00
2.275006927701650916e+00
2.266006653035065987e+00
2.266006653035065987e+00
2.269006744590594149e+00
2.310070497756889552e+00
2.310070497756889552e+00
2.320758323923459709e+00
2.320758323923459709e+00
2.324883449812311209e+00
2.331446150090029423e+00
2.331446150090029423e+00
2.284194708090456771e+00
2.284194708090456771e+00
2.267506698812830290e+00
2.283069673757133433e+00
2.283069673757133433e+00
2.273319376201666131e+00
2.273319376201666131e+00
2.251381206701864812e+00
2.260381481368449741e+00
2.260381481368449741e+00
2.280632099368266719e+00
2.280632099368266719e+00
2.299195165868098911e+00
2.284194708090456771e+00
2.284194708090456771e+00
2.298445142979216982e+00
2.318508255256813033e+00
2.318508255256813033e+00
2.347384136478774419e+00
2.347384136478774419e+00
2.353384319589831186e+00
2.349071687978759204e+00
2.349071687978759204e+00
2.318508255256813033e+00
2.318508255256813033e+00
2.311570543534653854e+00
2.296945097201452679e+00
2.296945097201452679e+00
2.273881893368328022e+00
2.273881893368328022e+00
2.284944730979339145e+00
2.265631641590625023e+00
2.265631641590625023e+00
2.282132145146031021e+00
2.282132145146031021e+00
2.258506424146244473e+00
2.240130863368633207e+00
2.240130863368633207e+00
2.277632007812738557e+00
2.321133335367900674e+00
2.321133335367900674e+00
2.311008026367992407e+00
2.311008026367992407e+00
2.307820429090243319e+00
2.296195074312570750e+00
2.296195074312570750e+00
2.287944822534867306e+00
2.287944822534867306e+00
2.294320017090365038e+00
2.283444685201574842e+00
2.283444685201574842e+00
2.280444593646046680e+00
2.280444593646046680e+00
2.289632374034852091e+00
2.289257362590411127e+00
2.289257362590411127e+00
2.306882900479140464e+00
2.306882900479140464e+00
2.305945371868038052e+00
2.302757774590289408e+00
2.302757774590289408e+00
2.329758598590044638e+00
2.327321024201178368e+00
2.327321024201178368e+00
2.326383495590075512e+00
2.326383495590075512e+00
2.320758323923459709e+00
2.304445326090273749e+00
2.304445326090273749e+00
2.284007202368236289e+00
2.284007202368236289e+00
2.285694753868221074e+00
2.263944090090640238e+00
2.263944090090640238e+00
2.274819421979430434e+00
2.274819421979430434e+00
2.267131687368389326e+00
2.260568987090670667e+00
2.260568987090670667e+00
2.249693655201880027e+00
2.249693655201880027e+00
2.249318643757439062e+00
2.297882625812555535e+00
2.297882625812555535e+00
2.339883907589953349e+00
2.294507522812585520e+00
2.294507522812585520e+00
2.273506881923887057e+00
2.273506881923887057e+00
2.287757316812646824e+00
2.304445326090273749e+00
2.304445326090273749e+00
2.320945829645680192e+00
2.320945829645680192e+00
2.308570451979125249e+00
2.264506607257301685e+00
2.264506607257301685e+00
2.257756401257362544e+00
2.257756401257362544e+00
2.227192968535416817e+00
2.284007202368236289e+00
2.284007202368236289e+00
2.302757774590289408e+00
2.302757774590289408e+00
2.296757591479232197e+00
2.312883083590197675e+00
2.312883083590197675e+00
2.322258369701224012e+00
2.341008941923276243e+00
2.341008941923276243e+00
2.341196447645496725e+00
2.341196447645496725e+00
2.320758323923459709e+00
2.309882992034669069e+00
2.309882992034669069e+00
2.311383037812433372e+00
2.311383037812433372e+00
2.268819238868374111e+00
2.269006744590594149e+00
2.269006744590594149e+00
2.256818872646260132e+00
2.260943998535111632e+00
2.260943998535111632e+00
2.283069673757133433e+00
2.283069673757133433e+00
2.279507065034943825e+00
2.272756859035004684e+00
2.272756859035004684e+00
2.296007568590349823e+00
2.296007568590349823e+00
2.331821161534470832e+00
2.350571733756523507e+00
2.350571733756523507e+00
2.358259468367565059e+00
2.358259468367565059e+00
2.349634205145421095e+00
2.332758690145573244e+00
2.332758690145573244e+00
2.337633838923307117e+00
2.270319284646137969e+00
2.270319284646137969e+00
2.242380932035279439e+00
2.242380932035279439e+00
2.222692831202123909e+00
2.228693014313181120e+00
2.228693014313181120e+00
2.244631000701926116e+00
2.244631000701926116e+00
2.228505508590960638e+00
2.247818597979674760e+00
2.247818597979674760e+00
2.316633198034607766e+00
2.316633198034607766e+00
2.325445966978973100e+00
2.344009033478804849e+00
2.344009033478804849e+00
2.362009582811975594e+00
2.362009582811975594e+00
2.338571367534409973e+00
2.320758323923459709e+00
2.320758323923459709e+00
2.295070039979247412e+00
2.271069307535019899e+00
2.271069307535019899e+00
2.270131778923917043e+00
2.270131778923917043e+00
2.237130771813104602e+00
2.258693929868464956e+00
2.258693929868464956e+00
2.298820154423657947e+00
2.298820154423657947e+00
2.256256355479598685e+00
2.229255531479842567e+00
2.229255531479842567e+00
2.270881801812799416e+00
2.270881801812799416e+00
2.330883632923367976e+00
2.336508804589983779e+00
2.336508804589983779e+00
2.338946378978850937e+00
2.338946378978850937e+00
2.316070680867946319e+00
2.326195989867855030e+00
2.326195989867855030e+00
2.312508072145756710e+00
2.307445417645802355e+00
2.307445417645802355e+00
2.314383129367961978e+00
2.314383129367961978e+00
2.284194708090456771e+00
2.267506698812830290e+00
2.267506698812830290e+00
2.269006744590594149e+00
2.269006744590594149e+00
2.269006744590594149e+00
2.311570543534653854e+00
2.311570543534653854e+00
2.336508804589983779e+00
2.336508804589983779e+00
2.318133243812372069e+00
2.320758323923459709e+00
2.320758323923459709e+00
2.302007751701407035e+00
2.302007751701407035e+00
2.291132419812616394e+00
2.267131687368389326e+00
2.267131687368389326e+00
2.252131229590746742e+00
2.248193609424115724e+00
2.248193609424115724e+00
2.270506790368358452e+00
2.270506790368358452e+00
2.250631183812982439e+00
2.247256080813012868e+00
2.247256080813012868e+00
2.247068575090792386e+00
2.247068575090792386e+00
2.294320017090365038e+00
2.324883449812311209e+00
2.324883449812311209e+00
2.338946378978850937e+00
2.338946378978850937e+00
2.365572191534165203e+00
2.342508987701040546e+00
2.342508987701040546e+00
2.319633289590136371e+00
2.261319009979552597e+00
2.261319009979552597e+00
2.244631000701926116e+00
2.244631000701926116e+00
2.243693472090823260e+00
2.245006012146367080e+00
2.245006012146367080e+00
2.266569170201727434e+00
2.266569170201727434e+00
2.286069765312662039e+00
2.309695486312448587e+00
2.309695486312448587e+00
2.286257271034882521e+00
2.286257271034882521e+00
2.269006744590594149e+00
2.295257545701467894e+00
2.295257545701467894e+00
2.342883999145481511e+00
2.326008484145634547e+00
2.326008484145634547e+00
2.328633564256721744e+00
2.328633564256721744e+00
2.322445875423444495e+00
2.277444502090518075e+00
2.277444502090518075e+00
2.277819513534959039e+00
2.277819513534959039e+00
2.303695303201391820e+00
2.307445417645802355e+00
2.307445417645802355e+00
2.272944364757225166e+00
2.283069673757133433e+00
2.283069673757133433e+00
2.285132236701559627e+00
2.285132236701559627e+00
2.278007019257179522e+00
2.311758049256874337e+00
2.311758049256874337e+00
2.328633564256721744e+00
2.328633564256721744e+00
2.321320841090121156e+00
2.330133610034486047e+00
2.330133610034486047e+00
2.296007568590349823e+00
2.296007568590349823e+00
2.284569719534897736e+00
2.299382671590319838e+00
2.299382671590319838e+00
2.284569719534897736e+00
2.281757133701590057e+00
2.281757133701590057e+00
2.261881527146214044e+00
2.261881527146214044e+00
2.241443403424177028e+00
2.293945005645924073e+00
2.293945005645924073e+00
2.273506881923887057e+00
2.273506881923887057e+00
2.261319009979552597e+00
2.275194433423871843e+00
2.275194433423871843e+00
2.309320474868007622e+00
2.309320474868007622e+00
2.327696035645618888e+00
2.323570909756767389e+00
2.323570909756767389e+00
2.326008484145634547e+00
2.326008484145634547e+00
2.344571550645466296e+00
2.343634022034363884e+00
2.343634022034363884e+00
2.303882808923612302e+00
2.247068575090792386e+00
2.247068575090792386e+00
2.240130863368633207e+00
2.240130863368633207e+00
2.231693105868709726e+00
2.258506424146244473e+00
2.258506424146244473e+00
2.270506790368358452e+00
2.270506790368358452e+00
2.268819238868374111e+00
2.284757225257118218e+00
2.284757225257118218e+00
2.290569902645954947e+00
2.290569902645954947e+00
2.319070772423474924e+00
2.322820886867885459e+00
2.322820886867885459e+00
2.314570635090182460e+00
2.314570635090182460e+00
2.352821802423169739e+00
2.310633014923550999e+00
2.310633014923550999e+00
2.245381023590808045e+00
2.243130954924161813e+00
2.243130954924161813e+00
2.245006012146367080e+00
2.245006012146367080e+00
2.246506057924130939e+00
2.294507522812585520e+00
2.294507522812585520e+00
2.289819879757073018e+00
2.289819879757073018e+00
2.307445417645802355e+00
2.321883358256782603e+00
2.321883358256782603e+00
2.334446241645558029e+00
2.334446241645558029e+00
2.379635120700704931e+00
2.345884090701010116e+00
2.345884090701010116e+00
2.295632557145908859e+00
2.295632557145908859e+00
2.320758323923459709e+00
2.325445966978973100e+00
2.325445966978973100e+00
2.305007843256935196e+00
2.246506057924130939e+00
2.246506057924130939e+00
2.279319559312723342e+00
2.279319559312723342e+00
2.276881984923856628e+00
2.250068666646320992e+00
2.250068666646320992e+00
2.278382030701620931e+00
2.278382030701620931e+00
2.286257271034882521e+00
2.349821710867641578e+00
2.349821710867641578e+00
2.358071962645344577e+00
2.358071962645344577e+00
2.359009491256446989e+00
2.337258827478866152e+00
2.337258827478866152e+00
2.304257820368053267e+00
2.304257820368053267e+00
2.247068575090792386e+00
2.208067384868923178e+00
2.208067384868923178e+00
2.185754203924680450e+00
2.229443037202063049e+00
2.229443037202063049e+00
2.223630359813226764e+00
2.223630359813226764e+00
2.270694296090578934e+00
2.275006927701650916e+00
2.275006927701650916e+00
2.272569353312784202e+00
2.272569353312784202e+00
2.310258003479110034e+00
2.321883358256782603e+00
2.321883358256782603e+00
2.320008301034577336e+00
2.320008301034577336e+00
2.350384228034303025e+00
2.331258644367808941e+00
2.331258644367808941e+00
2.322070863979003530e+00
2.319445783867915889e+00
2.319445783867915889e+00
2.284757225257118218e+00
2.284757225257118218e+00
2.269194250312814631e+00
2.270694296090578934e+00
2.270694296090578934e+00
2.285319742423780109e+00
2.332758690145573244e+00
2.332758690145573244e+00
2.316445692312387283e+00
2.265069124423963132e+00
2.265069124423963132e+00
2.237130771813104602e+00
2.242005920590838475e+00
2.242005920590838475e+00
2.286819788201544412e+00
2.286819788201544412e+00
2.296757591479232197e+00
2.324883449812311209e+00
2.324883449812311209e+00
2.276694479201635701e+00
2.276694479201635701e+00
2.229630542924283532e+00
2.197567064424573946e+00
2.197567064424573946e+00
2.245193517868587563e+00
2.245193517868587563e+00
2.264319101535081202e+00
2.312695577867977192e+00
2.312695577867977192e+00
2.292632465590380253e+00
2.278944547868282378e+00
2.278944547868282378e+00
2.317383220923490139e+00
2.317383220923490139e+00
2.340071413312173831e+00
2.360697042756431774e+00
2.360697042756431774e+00
2.353946836756492633e+00
2.353946836756492633e+00
2.339696401867732423e+00
2.305757866145817125e+00
2.305757866145817125e+00
2.314195623645741495e+00
2.357321939756462204e+00
2.357321939756462204e+00
2.320383312479018745e+00
2.320383312479018745e+00
2.197192052980132537e+00
2.114689535203100768e+00
2.114689535203100768e+00
2.186504226813562823e+00
2.186504226813562823e+00
2.257943906979583026e+00
2.281757133701590057e+00
2.281757133701590057e+00
2.305757866145817125e+00
2.305757866145817125e+00
2.380010132145145896e+00
2.375885006256294396e+00
2.375885006256294396e+00
2.372884914700766235e+00
2.358071962645344577e+00
2.358071962645344577e+00
2.325070955534531691e+00
2.267319193090609808e+00
2.267319193090609808e+00
2.212755027924436124e+00
2.212755027924436124e+00
2.253068758201849597e+00
2.303320291756950855e+00
2.303320291756950855e+00
2.283632190923795324e+00
2.252693746757408633e+00
2.252693746757408633e+00
2.259443952757347329e+00
2.259443952757347329e+00
2.288882351145970162e+00
2.356196905423139309e+00
2.356196905423139309e+00
2.299757683034760802e+00
2.299757683034760802e+00
2.289069856868190644e+00
2.338383861812189490e+00
2.338383861812189490e+00
2.311758049256874337e+00
2.311758049256874337e+00
2.283257179479354360e+00
2.257006378368480615e+00
2.257006378368480615e+00
2.255506332590716312e+00
2.283069673757133433e+00
2.283069673757133433e+00
2.282132145146031021e+00
2.282132145146031021e+00
2.289444868312631609e+00
2.326008484145634547e+00
2.326008484145634547e+00
2.300695211645863214e+00
2.300695211645863214e+00
2.287569811090426342e+00
2.328633564256721744e+00
2.328633564256721744e+00
2.371009857478560967e+00
2.371009857478560967e+00
2.383010223700674501e+00
2.329196081423383191e+00
2.329196081423383191e+00
2.339508896145511940e+00
2.292069948423719250e+00
2.292069948423719250e+00
2.330321115756706529e+00
2.330321115756706529e+00
2.245193517868587563e+00
2.152753196813867564e+00
2.152753196813867564e+00
2.200192144535660699e+00
2.200192144535660699e+00
2.263194067201757864e+00
2.261131504257332114e+00
2.261131504257332114e+00
2.247818597979674760e+00
2.256631366924039650e+00
2.256631366924039650e+00
2.290757408368175430e+00
2.290757408368175430e+00
2.332008667256691314e+00
2.377385052034058699e+00
2.377385052034058699e+00
2.307632923368022837e+00
2.307632923368022837e+00
2.270506790368358452e+00
2.288507339701529197e+00
2.288507339701529197e+00
2.272006836146122755e+00
2.272006836146122755e+00
2.257568895535142062e+00
2.233568163090914993e+00
2.233568163090914993e+00
2.235818231757560781e+00
2.322258369701224012e+00
2.322258369701224012e+00
2.341383953367717208e+00
2.341383953367717208e+00
2.382447706534013054e+00
2.370634846034120002e+00
2.370634846034120002e+00
2.350384228034303025e+00
2.350384228034303025e+00
2.346821619312112972e+00
2.263194067201757864e+00
2.263194067201757864e+00
2.198317087313455875e+00
2.215942625202185212e+00
2.215942625202185212e+00
2.259068941312906365e+00
2.259068941312906365e+00
2.267131687368389326e+00
2.281382122257148648e+00
2.281382122257148648e+00
2.358821985534226506e+00
2.358821985534226506e+00
2.356759422589800756e+00
2.304070314645832784e+00
2.304070314645832784e+00
2.239943357646412725e+00
2.239943357646412725e+00
2.245381023590808045e+00
2.300507705923642732e+00
2.300507705923642732e+00
2.313070589312418157e+00
2.357509445478682686e+00
2.357509445478682686e+00
2.340446424756614796e+00
2.340446424756614796e+00
2.320570818201239227e+00
2.311945554979094819e+00
2.311945554979094819e+00
2.302007751701407035e+00
2.302007751701407035e+00
2.228130497146519229e+00
2.253443769646290562e+00
2.253443769646290562e+00
2.299007660145878429e+00
2.284757225257118218e+00
2.284757225257118218e+00
2.242943449201941331e+00
2.242943449201941331e+00
2.254568803979613900e+00
2.316258186590166801e+00
2.316258186590166801e+00
2.369322305978576182e+00
2.369322305978576182e+00
2.390135441145054607e+00
2.302195257423627517e+00
2.302195257423627517e+00
2.250631183812982439e+00
2.250631183812982439e+00
2.251381206701864812e+00
2.244443494979705633e+00
2.244443494979705633e+00
2.240880886257515137e+00
2.235255714590899334e+00
2.235255714590899334e+00
2.284007202368236289e+00
2.284007202368236289e+00
2.254568803979613900e+00
2.302945280312509890e+00
2.302945280312509890e+00
2.322258369701224012e+00
2.322258369701224012e+00
2.326758507034516477e+00
2.315695669423505798e+00
2.315695669423505798e+00
2.329946104312265120e+00
2.329946104312265120e+00
2.365572191534165203e+00
2.387322855311746483e+00
2.387322855311746483e+00
2.330321115756706529e+00
2.302195257423627517e+00
2.302195257423627517e+00
2.296195074312570750e+00
2.296195074312570750e+00
2.242380932035279439e+00
2.233943174535355514e+00
2.233943174535355514e+00
2.268069215979491737e+00
2.268069215979491737e+00
2.255506332590716312e+00
2.251568712424085295e+00
2.251568712424085295e+00
2.284757225257118218e+00
2.284757225257118218e+00
2.289257362590411127e+00
2.230005554368724940e+00
2.230005554368724940e+00
2.302007751701407035e+00
2.302007751701407035e+00
2.428761619922483295e+00
2.434949308755760100e+00
2.434949308755760100e+00
2.383010223700674501e+00
2.316633198034607766e+00
2.316633198034607766e+00
2.305195348979155678e+00
2.305195348979155678e+00
2.244068483535264225e+00
2.192316904202398664e+00
2.192316904202398664e+00
2.205442304757835537e+00
2.205442304757835537e+00
2.218567705313272853e+00
2.195129490035706787e+00
2.195129490035706787e+00
2.204692281868953607e+00
2.204692281868953607e+00
2.350384228034303025e+00
2.438324411755729670e+00
2.438324411755729670e+00
2.449762260811182202e+00
2.449762260811182202e+00
2.474513016144291644e+00
2.355821893978697901e+00
2.355821893978697901e+00
2.304820337534714714e+00
2.310258003479110034e+00
2.310258003479110034e+00
2.325258461256752618e+00
2.325258461256752618e+00
2.287194799645985377e+00
2.212567522202215642e+00
2.212567522202215642e+00
2.132315073091830104e+00
2.182754112369151844e+00
2.182754112369151844e+00
2.248006103701895242e+00
2.248006103701895242e+00
2.249318643757439062e+00
2.296007568590349823e+00
2.296007568590349823e+00
2.289632374034852091e+00
2.289632374034852091e+00
2.301257728812525105e+00
2.319633289590136371e+00
2.319633289590136371e+00
2.321508346812341639e+00
2.321508346812341639e+00
2.345696584978789634e+00
2.281007110812707683e+00
2.281007110812707683e+00
2.231693105868709726e+00
2.231693105868709726e+00
2.261506515701773079e+00
2.267881710257271255e+00
2.267881710257271255e+00
2.271069307535019899e+00
2.250256172368541474e+00
2.250256172368541474e+00
2.221755302591021497e+00
2.221755302591021497e+00
2.239755851924192243e+00
2.368009765923032361e+00
2.368009765923032361e+00
2.362384594256416559e+00
2.362384594256416559e+00
2.355259376812036454e+00
2.296945097201452679e+00
2.296945097201452679e+00
2.219505233924375265e+00
2.219505233924375265e+00
2.158565874202703849e+00
2.315133152256843907e+00
2.315133152256843907e+00
2.335196264534440402e+00
2.326383495590075512e+00
2.326383495590075512e+00
2.338196356089969008e+00
2.338196356089969008e+00
2.322445875423444495e+00
2.347946653645436310e+00
2.347946653645436310e+00
2.330696127201147494e+00
2.330696127201147494e+00
2.334633747367778511e+00
2.307257911923581428e+00
2.307257911923581428e+00
2.349071687978759204e+00
2.349071687978759204e+00
2.327883541367839371e+00
2.320195806756797818e+00
2.320195806756797818e+00
2.372322397534104788e+00
2.372322397534104788e+00
2.243318460646382295e+00
2.189129306924649576e+00
2.189129306924649576e+00
2.291319925534837321e+00
2.308007934812463802e+00
2.308007934812463802e+00
2.193816949980162967e+00
2.193816949980162967e+00
2.186691732535783306e+00
2.219880245368816230e+00
2.219880245368816230e+00
2.231880611590930208e+00
2.231880611590930208e+00
2.339133884701071420e+00
2.328446058534500818e+00
2.328446058534500818e+00
2.388635395367290304e+00
2.388635395367290304e+00
2.443949583422345917e+00
2.397448164311655194e+00
2.397448164311655194e+00
2.298820154423657947e+00
2.266569170201727434e+00
2.266569170201727434e+00
2.226817957090975852e+00
2.226817957090975852e+00
2.300320200201422249e+00
2.348134159367656792e+00
2.348134159367656792e+00
2.323945921201208797e+00
2.323945921201208797e+00
2.292444959868159771e+00
2.203754753257850751e+00
2.203754753257850751e+00
2.106814294869838289e+00
2.106814294869838289e+00
2.186691732535783306e+00
2.269006744590594149e+00
2.269006744590594149e+00
2.365759697256386129e+00
2.365759697256386129e+00
2.456887478255561863e+00
2.411698599200414961e+00
2.411698599200414961e+00
2.271256813257240381e+00
2.209942442091128445e+00
2.209942442091128445e+00
2.173753837702566916e+00
2.173753837702566916e+00
2.255881344035157721e+00
2.392760521256141804e+00
2.392760521256141804e+00
2.399323221533860018e+00
2.399323221533860018e+00
2.262819055757316900e+00
2.265444135868404540e+00
2.265444135868404540e+00
2.378322580645161111e+00
2.378322580645161111e+00
2.521951963866084778e+00
2.303882808923612302e+00
2.303882808923612302e+00
2.149753105258339403e+00
2.121252235480818982e+00
2.121252235480818982e+00
2.181254066591387542e+00
2.181254066591387542e+00
2.257006378368480615e+00
2.336508804589983779e+00
2.336508804589983779e+00
2.303507797479171337e+00
2.303507797479171337e+00
2.249693655201880027e+00
2.216692648091067142e+00
2.216692648091067142e+00
2.225692922757652514e+00
2.303695303201391820e+00
2.378322580645161111e+00
2.378322580645161111e+00
2.385072786645100695e+00
2.385072786645100695e+00
2.425199011200292798e+00
2.399885738700521909e+00
2.399885738700521909e+00
2.251006195257423848e+00
2.251006195257423848e+00
2.224192876979888212e+00
2.306320383312479017e+00
2.306320383312479017e+00
2.287944822534867306e+00
2.287944822534867306e+00
2.243505966368602778e+00
2.278382030701620931e+00
2.278382030701620931e+00
2.254381298257393418e+00
2.436261848811303921e+00
2.436261848811303921e+00
2.451824823755607952e+00
2.451824823755607952e+00
2.461200109866634289e+00
2.340821436201055761e+00
2.340821436201055761e+00
2.151440656758324188e+00
2.151440656758324188e+00
2.134752647480697263e+00
2.202629718924527857e+00
2.202629718924527857e+00
2.216692648091067142e+00
2.216692648091067142e+00
2.362009582811975594e+00
2.479575670644245999e+00
2.479575670644245999e+00
2.339508896145511940e+00
2.339508896145511940e+00
2.254193792535172935e+00
2.305757866145817125e+00
2.305757866145817125e+00
2.246881069368571904e+00
2.176941434980315559e+00
2.176941434980315559e+00
2.224755394146549659e+00
2.224755394146549659e+00
2.224942899868770141e+00
2.176003906369212704e+00
2.176003906369212704e+00
2.379635120700704931e+00
2.379635120700704931e+00
2.491576036866359534e+00
2.386197820978423145e+00
2.386197820978423145e+00
2.346634113589892490e+00
2.346634113589892490e+00
2.262256538590655452e+00
2.226255439924313961e+00
2.412073610644855925e+00
2.412073610644855925e+00
2.294507522812585520e+00
2.294507522812585520e+00
2.246131046479689974e+00
2.231693105868709726e+00
2.231693105868709726e+00
2.261506515701773079e+00
2.334633747367778511e+00
2.334633747367778511e+00
2.242943449201941331e+00
2.242943449201941331e+00
2.242755943479720404e+00
2.319258278145695407e+00
2.319258278145695407e+00
2.376635029145176325e+00
2.376635029145176325e+00
2.465512741477706271e+00
2.341758964812158617e+00
2.341758964812158617e+00
2.071750724814600098e+00
2.071750724814600098e+00
2.022811731315042216e+00
2.292257454145939732e+00
2.292257454145939732e+00
2.297882625812555535e+00
2.297882625812555535e+00
2.287569811090426342e+00
2.313820612201300086e+00
2.313820612201300086e+00
2.254193792535172935e+00
2.276506973479415219e+00
2.276506973479415219e+00
2.429699148533585706e+00
2.429699148533585706e+00
2.430636677144688562e+00
2.399510727256080500e+00
2.399510727256080500e+00
2.370072328867458111e+00
2.370072328867458111e+00
2.378510086367381593e+00
2.339696401867732423e+00
2.339696401867732423e+00
2.221192785424360050e+00
2.221192785424360050e+00
2.214817590868861874e+00
2.227942991424298746e+00
2.227942991424298746e+00
2.259631458479567812e+00
2.081876033814508364e+00
2.081876033814508364e+00
2.003311136204107612e+00
2.003311136204107612e+00
2.393885555589465142e+00
2.490075991088595231e+00
2.490075991088595231e+00
2.410761070589312105e+00
2.410761070589312105e+00
2.409073519089327764e+00
2.439636951811273491e+00
2.439636951811273491e+00
2.382635212256233537e+00
2.382635212256233537e+00
2.453137363811151772e+00
2.575203588976714197e+00
2.575203588976714197e+00
2.415261207922605013e+00
2.142065370647297406e+00
2.142065370647297406e+00
1.935809076204718204e+00
1.935809076204718204e+00
2.039312234870449103e+00
2.192504409924619146e+00
2.192504409924619146e+00
2.090688802758873255e+00
2.090688802758873255e+00
2.217442670979949515e+00
2.239380840479750834e+00
2.239380840479750834e+00
2.202067201757865966e+00
2.315508163701284872e+00
2.315508163701284872e+00
2.562640705587938772e+00
2.562640705587938772e+00
2.378885097811823002e+00
2.405698416089358194e+00
2.405698416089358194e+00
2.324883449812311209e+00
2.324883449812311209e+00
2.234880703146458369e+00
2.270131778923917043e+00
2.270131778923917043e+00
2.338008850367748082e+00
2.338008850367748082e+00
2.280444593646046680e+00
2.390510452589495571e+00
2.390510452589495571e+00
2.440199468977935382e+00
2.332008667256691314e+00
2.332008667256691314e+00
2.206754844813379357e+00
2.206754844813379357e+00
2.266006653035065987e+00
2.273881893368328022e+00
2.273881893368328022e+00
2.259818964201788294e+00
2.259818964201788294e+00
2.375885006256294396e+00
2.359759514145329362e+00
2.359759514145329362e+00
2.260568987090670667e+00
2.260568987090670667e+00
2.207504867702261730e+00
2.017186559648426858e+00
2.017186559648426858e+00
1.950059511093478193e+00
1.950059511093478193e+00
2.128002441480758122e+00
2.401385784478286212e+00
2.401385784478286212e+00
2.428199102755821404e+00
2.489138462477492819e+00
2.489138462477492819e+00
2.454449903866695148e+00
2.454449903866695148e+00
2.294507522812585520e+00
2.261506515701773079e+00
2.261506515701773079e+00
2.210692464980010374e+00
2.210692464980010374e+00
2.439824457533493973e+00
2.430824182866909045e+00
2.430824182866909045e+00
2.433074251533554833e+00
2.433074251533554833e+00
2.420323862422559369e+00
2.426699056978057101e+00
2.426699056978057101e+00
2.419948850978118404e+00
2.177128940702536042e+00
2.177128940702536042e+00
2.117314615314187964e+00
2.117314615314187964e+00
2.060687887203588975e+00
1.919308572649311984e+00
1.919308572649311984e+00
2.094063905758842381e+00
2.094063905758842381e+00
2.084688619647816488e+00
2.357696951200903612e+00
2.357696951200903612e+00
2.777334757530442122e+00
2.669143955809198054e+00
2.669143955809198054e+00
2.566390820032349751e+00
2.566390820032349751e+00
2.336321298867763296e+00
2.109626880703146412e+00
2.109626880703146412e+00
2.034812097537156195e+00
2.034812097537156195e+00
2.223442854091006282e+00
1.989998229926450479e+00
1.989998229926450479e+00
2.285132236701559627e+00
2.285132236701559627e+00
2.299007660145878429e+00
2.339133884701071420e+00
2.339133884701071420e+00
2.542015076143681274e+00
2.542015076143681274e+00
2.356946928312021239e+00
2.179566515091402756e+00
2.179566515091402756e+00
2.215755119479964730e+00
2.377010040589617734e+00
2.377010040589617734e+00
2.342883999145481511e+00
2.342883999145481511e+00
2.556640522476882449e+00
2.521014435254982367e+00
2.521014435254982367e+00
2.302007751701407035e+00
2.302007751701407035e+00
2.204879787591174090e+00
1.907683217871639192e+00
1.907683217871639192e+00
1.943121799371318792e+00
1.943121799371318792e+00
2.325820978423414065e+00
2.035749626148258606e+00
2.035749626148258606e+00
2.101751640369884377e+00
2.346259102145451525e+00
2.346259102145451525e+00
2.544265144810327506e+00
2.544265144810327506e+00
2.630705282753990293e+00
2.544077639088107023e+00
2.544077639088107023e+00
2.342883999145481511e+00
2.342883999145481511e+00
2.203379741813409787e+00
2.425949034089175171e+00
2.425949034089175171e+00
2.420323862422559369e+00
2.420323862422559369e+00
2.264131595812860720e+00
2.068750633259071936e+00
2.068750633259071936e+00
2.022624225592822178e+00
2.096688985869930022e+00
2.096688985869930022e+00
2.191941892757957699e+00
2.191941892757957699e+00
2.521389446699423331e+00
2.260193975646229259e+00
2.260193975646229259e+00
2.470012878810998735e+00
2.423136448255867048e+00
2.423136448255867048e+00
2.186691732535783306e+00
2.186691732535783306e+00
2.526639606921598169e+00
2.240693380535294654e+00
2.240693380535294654e+00
2.135502670369579192e+00
2.135502670369579192e+00
2.043999877925962494e+00
1.985310586870937088e+00
1.985310586870937088e+00
2.130252510147404355e+00
2.130252510147404355e+00
2.402135807367168141e+00
2.451449812311166987e+00
2.451449812311166987e+00
2.440574480422376347e+00
2.440574480422376347e+00
2.418261299478133619e+00
2.289069856868190644e+00
2.289069856868190644e+00
2.238068300424207457e+00
2.169066194647053525e+00
2.169066194647053525e+00
2.227567979979857782e+00
2.227567979979857782e+00
2.501138828699606353e+00
2.362572099978637485e+00
2.362572099978637485e+00
2.094813928647724754e+00
2.094813928647724754e+00
2.177503952146977007e+00
2.575953611865596571e+00
2.575953611865596571e+00
2.601829401532029351e+00
2.601829401532029351e+00
2.511826654866176511e+00
2.309882992034669069e+00
2.309882992034669069e+00
2.086563676870021755e+00
2.086563676870021755e+00
1.957184728537858298e+00
1.974622760704367153e+00
1.974622760704367153e+00
2.131940061647389140e+00
2.173003814813684542e+00
2.173003814813684542e+00
2.278007019257179522e+00
2.278007019257179522e+00
2.488575945310831372e+00
2.741708670308542040e+00
2.741708670308542040e+00
2.530014709921567295e+00
2.530014709921567295e+00
2.429511642811365224e+00
2.267881710257271255e+00
2.267881710257271255e+00
2.242380932035279439e+00
2.242380932035279439e+00
2.139252784813989727e+00
2.290382396923734465e+00
2.290382396923734465e+00
2.298632648701437464e+00
2.208629902035584625e+00
2.208629902035584625e+00
2.074000793481246330e+00
2.074000793481246330e+00
2.254381298257393418e+00
2.391447981200597983e+00
2.391447981200597983e+00
2.126127384258552855e+00
2.126127384258552855e+00
2.199817133091219734e+00
2.238630817590868904e+00
2.238630817590868904e+00
2.418261299478133619e+00
2.418261299478133619e+00
2.478638142033143144e+00
2.175816400646992221e+00
2.175816400646992221e+00
2.167566148869289222e+00
2.167566148869289222e+00
2.405135898922696747e+00
2.485013336588640875e+00
2.485013336588640875e+00
2.527577135532700581e+00
2.431386700033570492e+00
2.431386700033570492e+00
2.463825189977721486e+00
2.463825189977721486e+00
2.375322489089632505e+00
2.188379284035767647e+00
2.188379284035767647e+00
1.936746604815820838e+00
1.936746604815820838e+00
2.010998870815149164e+00
2.355821893978697901e+00
2.355821893978697901e+00
2.386197820978423145e+00
2.386197820978423145e+00
2.315883175145725836e+00
2.165878597369304437e+00
2.165878597369304437e+00
2.174691366313669327e+00
2.174691366313669327e+00
2.070063173314615312e+00
2.367259743034150432e+00
2.367259743034150432e+00
2.480513199255348411e+00
2.280632099368266719e+00
2.280632099368266719e+00
2.254943815424054865e+00
2.254943815424054865e+00
2.258318918424023991e+00
2.355259376812036454e+00
2.355259376812036454e+00
2.484825830866420393e+00
2.484825830866420393e+00
2.372322397534104788e+00
2.178441480758079862e+00
2.178441480758079862e+00
2.191004364146854844e+00
2.191004364146854844e+00
2.281569627979369130e+00
2.374197454756310055e+00
2.374197454756310055e+00
2.351884273812066883e+00
2.229068025757622085e+00
2.229068025757622085e+00
2.291507431257057803e+00
2.291507431257057803e+00
2.284757225257118218e+00
2.172253791924802613e+00
2.172253791924802613e+00
2.287757316812646824e+00
2.287757316812646824e+00
2.426511551255836618e+00
2.268631733146153184e+00
2.268631733146153184e+00
2.160815942869350526e+00
2.160815942869350526e+00
2.360697042756431774e+00
2.413386150700399746e+00
2.413386150700399746e+00
2.261694021423993561e+00
2.257568895535142062e+00
2.257568895535142062e+00
2.098939054536576698e+00
2.098939054536576698e+00
2.116002075258644588e+00
2.347571642200994901e+00
2.347571642200994901e+00
2.334446241645558029e+00
2.334446241645558029e+00
2.558703085421308199e+00
2.703645008697775243e+00
2.703645008697775243e+00
2.506388988921781191e+00
2.506388988921781191e+00
2.216692648091067142e+00
2.226067934202093479e+00
2.226067934202093479e+00
2.213505050813318054e+00
2.213505050813318054e+00
2.034812097537156195e+00
1.947621936704611478e+00
1.947621936704611478e+00
2.385822809533982625e+00
2.363322122867518971e+00
2.363322122867518971e+00
2.289819879757073018e+00
2.289819879757073018e+00
2.294320017090365038e+00
2.322258369701224012e+00
2.322258369701224012e+00
2.216130130924405695e+00
2.216130130924405695e+00
2.267319193090609808e+00
2.288507339701529197e+00
2.288507339701529197e+00
2.366697225867488541e+00
2.366697225867488541e+00
2.320570818201239227e+00
2.516701803643909940e+00
2.516701803643909940e+00
2.398948210089419053e+00
2.347759147923215384e+00
2.347759147923215384e+00
2.262256538590655452e+00
2.262256538590655452e+00
2.308007934812463802e+00
2.155378276924954761e+00
2.155378276924954761e+00
1.966560014648884636e+00
1.966560014648884636e+00
1.982122989593188223e+00
2.279694570757164307e+00
2.279694570757164307e+00
2.458950041199987613e+00
2.458950041199987613e+00
2.641393108920560451e+00
2.599954344309823639e+00
2.599954344309823639e+00
2.437949400311288706e+00
2.358634479812006024e+00
2.358634479812006024e+00
2.347946653645436310e+00
2.347946653645436310e+00
2.272569353312784202e+00
2.378510086367381593e+00
2.378510086367381593e+00
2.342321481978820064e+00
2.342321481978820064e+00
2.210879970702230857e+00
1.947809442426831961e+00
1.947809442426831961e+00
1.811117770928067916e+00
1.811117770928067916e+00
2.107001800592058771e+00
2.265819147312845505e+00
2.265819147312845505e+00
2.425199011200292798e+00
2.425199011200292798e+00
2.355634388256477418e+00
2.578391186254463285e+00
2.578391186254463285e+00
2.457074983977782345e+00
2.292444959868159771e+00
2.292444959868159771e+00
2.374947477645191540e+00
2.374947477645191540e+00
2.247068575090792386e+00
2.176003906369212704e+00
2.176003906369212704e+00
2.216130130924405695e+00
2.216130130924405695e+00
2.314195623645741495e+00
2.262256538590655452e+00
2.262256538590655452e+00
2.265631641590625023e+00
2.265631641590625023e+00
2.254006286812952009e+00
2.104751731925412539e+00
2.104751731925412539e+00
2.072500747703482027e+00
2.072500747703482027e+00
2.379072603534043484e+00
2.607079561754204189e+00
2.607079561754204189e+00
2.471137913144322074e+00
2.189316812646870059e+00
2.189316812646870059e+00
2.241630909146397510e+00
2.241630909146397510e+00
2.497576219977416301e+00
2.363509628589739453e+00
2.363509628589739453e+00
2.146190496536149350e+00
2.146190496536149350e+00
2.342883999145481511e+00
2.412636127811517817e+00
2.412636127811517817e+00
2.370822351756340485e+00
2.345134067812128187e+00
2.345134067812128187e+00
2.255506332590716312e+00
2.255506332590716312e+00
2.215192602313302839e+00
2.284757225257118218e+00
2.284757225257118218e+00
2.290757408368175430e+00
2.290757408368175430e+00
2.121439741203039464e+00
2.373072420422986717e+00
2.373072420422986717e+00
2.197379558702353020e+00
2.197379558702353020e+00
2.208442396313364142e+00
2.318320749534592551e+00
2.318320749534592551e+00
2.389572923978392716e+00
2.389572923978392716e+00
2.288132328257088233e+00
2.313633106479079604e+00
2.313633106479079604e+00
2.212942533646656607e+00
2.444324594866786882e+00
2.444324594866786882e+00
2.386760338145085036e+00
2.386760338145085036e+00
2.293007477034821662e+00
2.305007843256935196e+00
2.305007843256935196e+00
2.256443861201819168e+00
2.256443861201819168e+00
2.204692281868953607e+00
2.180316537980285130e+00
2.180316537980285130e+00
2.169628711813714972e+00
2.169628711813714972e+00
2.253443769646290562e+00
2.341946470534379099e+00
2.341946470534379099e+00
2.291319925534837321e+00
2.291319925534837321e+00
2.187254249702444309e+00
2.342696493423261028e+00
2.342696493423261028e+00
2.412261116367076408e+00
2.468137821588793912e+00
2.468137821588793912e+00
2.368009765923032361e+00
2.368009765923032361e+00
2.338758873256630455e+00
2.404760887478255782e+00
2.404760887478255782e+00
2.230568071535386387e+00
2.230568071535386387e+00
2.243880977813043742e+00
2.177316446424756524e+00
2.177316446424756524e+00
2.299007660145878429e+00
2.299007660145878429e+00
2.245381023590808045e+00
2.388447889645069822e+00
2.388447889645069822e+00
2.401948301644947659e+00
2.291694936979278285e+00
2.291694936979278285e+00
2.331258644367808941e+00
2.331258644367808941e+00
2.345696584978789634e+00
2.281569627979369130e+00
2.281569627979369130e+00
2.109626880703146412e+00
2.109626880703146412e+00
2.145627979369487459e+00
2.297320108645893644e+00
2.297320108645893644e+00
2.623767571031830670e+00
2.623767571031830670e+00
2.511264137699515064e+00
2.295632557145908859e+00
2.295632557145908859e+00
2.195316995757927270e+00
2.195316995757927270e+00
2.202817224646748340e+00
2.251568712424085295e+00
2.251568712424085295e+00
2.278944547868282378e+00
2.336133793145542814e+00
2.336133793145542814e+00
2.284569719534897736e+00
2.284569719534897736e+00
2.277256996368297592e+00
2.274631916257209951e+00
2.274631916257209951e+00
2.222130314035462462e+00
2.222130314035462462e+00
2.191004364146854844e+00
2.446949674977874079e+00
2.446949674977874079e+00
2.458575029755546648e+00
2.458575029755546648e+00
2.359196996978667915e+00
2.293757499923703591e+00
2.293757499923703591e+00
2.303132786034730373e+00
2.303132786034730373e+00
2.290569902645954947e+00
2.205254799035615054e+00
2.205254799035615054e+00
2.172066286202582130e+00
2.094251411481063307e+00
2.094251411481063307e+00
2.125752372814111890e+00
2.125752372814111890e+00
2.380385143589587305e+00
2.447699697866756008e+00
2.447699697866756008e+00
2.394073061311685624e+00
2.394073061311685624e+00
2.338571367534409973e+00
2.418823816644795066e+00
2.418823816644795066e+00
2.380572649311807787e+00
2.380572649311807787e+00
2.232255623035371173e+00
2.155940794091616652e+00
2.155940794091616652e+00
2.289069856868190644e+00
2.289069856868190644e+00
2.378322580645161111e+00
2.407760979033784388e+00
2.407760979033784388e+00
2.258693929868464956e+00
2.349821710867641578e+00
2.349821710867641578e+00
2.328071047090059853e+00
2.328071047090059853e+00
2.131002533036286284e+00
2.190629352702413879e+00
2.190629352702413879e+00
2.340821436201055761e+00
2.340821436201055761e+00
2.332758690145573244e+00
2.349634205145421095e+00
2.349634205145421095e+00
2.417886288033692654e+00
2.308382946256904766e+00
2.308382946256904766e+00
2.302945280312509890e+00
2.302945280312509890e+00
2.393135532700583212e+00
2.307070406201360946e+00
2.307070406201360946e+00
2.287757316812646824e+00
2.287757316812646824e+00
2.327321024201178368e+00
2.133627613147373925e+00
2.133627613147373925e+00
2.075125827814569668e+00
2.075125827814569668e+00
2.160065919980468152e+00
2.333883724478896582e+00
2.333883724478896582e+00
2.412823633533738299e+00
2.397823175756096159e+00
2.397823175756096159e+00
2.270881801812799416e+00
2.270881801812799416e+00
2.300320200201422249e+00
2.337071321756645670e+00
2.337071321756645670e+00
2.221567796868801015e+00
2.221567796868801015e+00
2.254193792535172935e+00
2.237880794701986531e+00
2.237880794701986531e+00
2.439449446089053009e+00
2.439449446089053009e+00
2.359572008423108880e+00
2.340633930478835278e+00
2.340633930478835278e+00
2.263006561479537382e+00
2.263006561479537382e+00
2.392760521256141804e+00
2.320008301034577336e+00
2.320008301034577336e+00
2.155378276924954761e+00
2.234693197424237443e+00
2.234693197424237443e+00
2.285132236701559627e+00
2.285132236701559627e+00
2.324320932645649762e+00
2.284569719534897736e+00
2.284569719534897736e+00
2.294695028534806447e+00
2.294695028534806447e+00
2.307632923368022837e+00
2.325820978423414065e+00
2.325820978423414065e+00
2.277819513534959039e+00
2.277819513534959039e+00
2.363134617145298488e+00
2.302757774590289408e+00
2.302757774590289408e+00
2.260381481368449741e+00
2.260381481368449741e+00
2.277632007812738557e+00
2.282507156590471986e+00
2.282507156590471986e+00
2.257006378368480615e+00
2.297882625812555535e+00
2.297882625812555535e+00
2.332758690145573244e+00
2.332758690145573244e+00
2.376635029145176325e+00
2.293194982757042144e+00
2.293194982757042144e+00
2.385072786645100695e+00
2.385072786645100695e+00
2.392385509811700839e+00
2.374947477645191540e+00
2.374947477645191540e+00
2.194379467146824858e+00
2.194379467146824858e+00
2.161753471480452937e+00
2.126127384258552855e+00
2.126127384258552855e+00
2.149565599536118921e+00
2.149565599536118921e+00
2.452574846644489881e+00
2.438136906033509188e+00
2.438136906033509188e+00
2.340633930478835278e+00
2.299382671590319838e+00
2.299382671590319838e+00
2.366134708700827094e+00
2.366134708700827094e+00
2.362197088534196077e+00
2.260943998535111632e+00
2.260943998535111632e+00
2.325258461256752618e+00
2.325258461256752618e+00
2.279319559312723342e+00
2.265069124423963132e+00
2.265069124423963132e+00
2.248943632312997654e+00
2.248943632312997654e+00
2.261506515701773079e+00
2.291507431257057803e+00
2.291507431257057803e+00
2.289444868312631609e+00
2.289444868312631609e+00
2.179003997924741309e+00
2.322258369701224012e+00
2.322258369701224012e+00
2.374384960478530537e+00
2.338571367534409973e+00
2.338571367534409973e+00
2.318695760979033516e+00
2.318695760979033516e+00
2.280069582201605716e+00
2.287944822534867306e+00
2.287944822534867306e+00
2.318883266701254442e+00
2.418448805200354101e+00
2.418448805200354101e+00
2.330133610034486047e+00
2.330133610034486047e+00
2.317383220923490139e+00
2.306132877590258534e+00
2.306132877590258534e+00
2.276881984923856628e+00
2.330696127201147494e+00
2.330696127201147494e+00
2.346446607867672007e+00
2.284382213812677254e+00
2.284382213812677254e+00
2.383947752311777357e+00
2.364634662923062791e+00
2.364634662923062791e+00
2.282132145146031021e+00
2.282132145146031021e+00
2.097814020203253360e+00
2.079063447981200685e+00
2.079063447981200685e+00
2.276319467757194737e+00
2.276319467757194737e+00
2.393698049867244659e+00
2.358821985534226506e+00
2.358821985534226506e+00
2.191754387035737217e+00
2.191754387035737217e+00
2.267131687368389326e+00
2.350946745200964472e+00
2.350946745200964472e+00
2.359196996978667915e+00
2.359196996978667915e+00
2.390697958311716054e+00
2.411886104922635443e+00
2.411886104922635443e+00
2.290569902645954947e+00
2.164566057313760616e+00
2.164566057313760616e+00
2.190066835535752432e+00
2.190066835535752432e+00
2.283069673757133433e+00
2.269569261757255596e+00
2.269569261757255596e+00
2.185754203924680450e+00
2.185754203924680450e+00
2.243130954924161813e+00
2.298632648701437464e+00
2.298632648701437464e+00
2.344384044923245813e+00
2.452012329477828434e+00
2.452012329477828434e+00
2.373447431867427682e+00
2.373447431867427682e+00
2.429886654255806189e+00
2.477888119144261214e+00
2.477888119144261214e+00
2.361634571367534630e+00
2.361634571367534630e+00
2.305570360423596643e+00
2.172253791924802613e+00
2.172253791924802613e+00
2.199067110202337361e+00
2.199067110202337361e+00
2.235443220313119816e+00
2.315320657979064389e+00
2.317383220923490139e+00
2.317383220923490139e+00
2.332758690145573244e+00
2.332758690145573244e+00
2.252693746757408633e+00
2.226067934202093479e+00
2.226067934202093479e+00
2.249881160924100509e+00
2.249881160924100509e+00
2.343071504867702437e+00
2.311195532090212890e+00
2.311195532090212890e+00
2.359384502700888397e+00
2.340821436201055761e+00
2.340821436201055761e+00
2.317758232367931104e+00
2.317758232367931104e+00
2.305945371868038052e+00
2.287944822534867306e+00
2.287944822534867306e+00
2.279694570757164307e+00
2.279694570757164307e+00
2.321133335367900674e+00
2.259256447035126847e+00
2.259256447035126847e+00
2.205442304757835537e+00
2.205442304757835537e+00
2.220630268257698603e+00
2.244068483535264225e+00
2.244068483535264225e+00
2.258318918424023991e+00
2.341946470534379099e+00
2.341946470534379099e+00
2.290569902645954947e+00
2.290569902645954947e+00
2.410198553422650658e+00
2.411511093478194478e+00
2.411511093478194478e+00
2.363509628589739453e+00
2.363509628589739453e+00
2.299382671590319838e+00
2.232818140202032620e+00
2.232818140202032620e+00
2.262819055757316900e+00
2.262819055757316900e+00
2.298632648701437464e+00
2.299945188756981285e+00
2.299945188756981285e+00
2.272381847590563719e+00
2.294507522812585520e+00
2.294507522812585520e+00
2.308757957701345731e+00
2.308757957701345731e+00
2.329008575701162709e+00
2.304820337534714714e+00
2.304820337534714714e+00
2.327883541367839371e+00
2.327883541367839371e+00
2.334633747367778511e+00
2.295070039979247412e+00
2.295070039979247412e+00
2.284757225257118218e+00
2.284757225257118218e+00
2.258693929868464956e+00
2.301070223090304623e+00
2.301070223090304623e+00
2.322445875423444495e+00
2.291319925534837321e+00
2.291319925534837321e+00
2.286444776757103448e+00
2.286444776757103448e+00
2.257756401257362544e+00
2.307820429090243319e+00
2.307820429090243319e+00
2.404573381756035300e+00
2.404573381756035300e+00
2.420698873867000778e+00
2.350009216589862060e+00
2.350009216589862060e+00
2.312508072145756710e+00
2.332383678701132279e+00
2.332383678701132279e+00
2.274819421979430434e+00
2.274819421979430434e+00
2.232443128757591655e+00
2.233943174535355514e+00
2.233943174535355514e+00
2.245568529313028083e+00
2.245568529313028083e+00
2.283632190923795324e+00
2.289257362590411127e+00
2.289257362590411127e+00
2.254568803979613900e+00
2.284757225257118218e+00
2.284757225257118218e+00
2.196817041535691573e+00
2.196817041535691573e+00
2.229818048646504014e+00
2.311945554979094819e+00
2.311945554979094819e+00
2.292444959868159771e+00
2.292444959868159771e+00
2.324508438367870244e+00
2.387322855311746483e+00
2.387322855311746483e+00
2.336696310312204705e+00
2.336696310312204705e+00
2.354696859645375007e+00
2.342696493423261028e+00
2.342696493423261028e+00
2.292257454145939732e+00
2.305757866145817125e+00
2.305757866145817125e+00
2.312133060701315301e+00
2.312133060701315301e+00
2.289257362590411127e+00
2.287007293923764895e+00
2.287007293923764895e+00
2.284757225257118218e+00
2.284757225257118218e+00
2.291694936979278285e+00
2.335571275978881367e+00
2.335571275978881367e+00
2.339696401867732423e+00
2.339696401867732423e+00
2.350946745200964472e+00
2.313820612201300086e+00
2.313820612201300086e+00
2.311758049256874337e+00
2.275381939146092325e+00
2.275381939146092325e+00
2.248756126590777171e+00
2.248756126590777171e+00
2.307445417645802355e+00
2.311008026367992407e+00
2.311008026367992407e+00
2.333133701590014208e+00
2.333133701590014208e+00
2.273694387646107540e+00
2.224755394146549659e+00
2.224755394146549659e+00
2.279319559312723342e+00
2.279319559312723342e+00
2.297320108645893644e+00
2.319445783867915889e+00
2.319445783867915889e+00
2.368572283089693808e+00
2.328258552812280335e+00
2.328258552812280335e+00
2.212192510757774677e+00
2.212192510757774677e+00
2.257943906979583026e+00
2.306882900479140464e+00
2.306882900479140464e+00
2.242380932035279439e+00
2.242380932035279439e+00
2.230943082979827352e+00
2.250256172368541474e+00
2.250256172368541474e+00
2.376447523422955843e+00
2.376447523422955843e+00
2.337071321756645670e+00
2.349634205145421095e+00
2.349634205145421095e+00
2.325633472701193583e+00
2.325633472701193583e+00
2.313445600756859122e+00
2.352821802423169739e+00
2.352821802423169739e+00
2.305382854701376161e+00
2.268444227423932702e+00
2.268444227423932702e+00
2.318320749534592551e+00
2.318320749534592551e+00
2.359759514145329362e+00
2.344196539201025331e+00
2.344196539201025331e+00
2.302007751701407035e+00
2.302007751701407035e+00
2.281757133701590057e+00
2.270694296090578934e+00
2.270694296090578934e+00
2.273881893368328022e+00
2.273881893368328022e+00
2.283257179479354360e+00
2.328633564256721744e+00
2.328633564256721744e+00
2.358634479812006024e+00
2.358634479812006024e+00
2.304445326090273749e+00
2.275194433423871843e+00
2.275194433423871843e+00
2.274256904812768987e+00
2.308757957701345731e+00
2.308757957701345731e+00
2.377010040589617734e+00
2.377010040589617734e+00
2.364259651478621826e+00
2.298820154423657947e+00
2.298820154423657947e+00
2.274256904812768987e+00
2.274256904812768987e+00
2.206004821924497428e+00
2.249131138035218136e+00
2.249131138035218136e+00
2.219880245368816230e+00
2.243130954924161813e+00
2.243130954924161813e+00
2.303507797479171337e+00
2.303507797479171337e+00
2.310070497756889552e+00
2.306132877590258534e+00
2.306132877590258534e+00
2.292632465590380253e+00
2.292632465590380253e+00
2.285882259590441556e+00
2.300695211645863214e+00
2.300695211645863214e+00
2.378697592089602519e+00
2.334821253089998994e+00
2.334821253089998994e+00
2.281382122257148648e+00
2.281382122257148648e+00
2.293757499923703591e+00
2.286632282479323930e+00
2.286632282479323930e+00
2.261694021423993561e+00
2.261694021423993561e+00
2.263756584368419311e+00
2.314008117923521013e+00
2.314008117923521013e+00
2.400260750144962874e+00
2.400260750144962874e+00
2.365572191534165203e+00
2.411511093478194478e+00
2.411511093478194478e+00
2.288882351145970162e+00
2.154628254036072832e+00
2.154628254036072832e+00
2.161753471480452937e+00
2.161753471480452937e+00
2.278569536423841413e+00
2.326008484145634547e+00
2.326008484145634547e+00
2.357321939756462204e+00
2.357321939756462204e+00
2.324133426923429280e+00
2.263194067201757864e+00
2.263194067201757864e+00
2.284194708090456771e+00
2.266194158757286470e+00
2.266194158757286470e+00
2.233568163090914993e+00
2.233568163090914993e+00
2.331071138645588459e+00
2.393323038422803695e+00
2.393323038422803695e+00
2.396323129978331856e+00
2.396323129978331856e+00
2.376635029145176325e+00
2.325258461256752618e+00
2.325258461256752618e+00
2.325258461256752618e+00
2.325258461256752618e+00
2.302382763145847999e+00
2.254193792535172935e+00
2.254193792535172935e+00
2.239380840479750834e+00
2.207129856257820322e+00
2.207129856257820322e+00
2.335758781701101849e+00
2.335758781701101849e+00
2.201129673146763555e+00
2.229630542924283532e+00
2.229630542924283532e+00
2.358071962645344577e+00
2.358071962645344577e+00
2.397073152867214230e+00
2.316258186590166801e+00
2.316258186590166801e+00
2.277819513534959039e+00
2.277819513534959039e+00
2.348884182256538722e+00
2.315133152256843907e+00
2.315133152256843907e+00
2.323383404034546906e+00
2.323383404034546906e+00
2.314383129367961978e+00
2.299757683034760802e+00
2.299757683034760802e+00
2.277819513534959039e+00
2.261694021423993561e+00
2.261694021423993561e+00
2.357884456923124095e+00
2.357884456923124095e+00
2.287757316812646824e+00
2.261131504257332114e+00
2.261131504257332114e+00
2.268819238868374111e+00
2.268819238868374111e+00
2.303507797479171337e+00
2.332571184423352761e+00
2.332571184423352761e+00
2.328258552812280335e+00
2.328258552812280335e+00
2.308570451979125249e+00
2.324320932645649762e+00
2.324320932645649762e+00
2.304445326090273749e+00
2.263194067201757864e+00
2.263194067201757864e+00
2.263381572923978347e+00
2.263381572923978347e+00
2.251193700979644330e+00
2.282507156590471986e+00
2.282507156590471986e+00
2.322445875423444495e+00
2.322445875423444495e+00
2.319820795312356854e+00
2.317570726645710621e+00
2.317570726645710621e+00
2.275756950590533290e+00
2.275756950590533290e+00
2.204504776146733125e+00
2.268256721701712220e+00
2.268256721701712220e+00
2.377010040589617734e+00
2.364259651478621826e+00
2.364259651478621826e+00
2.353759331034272151e+00
2.353759331034272151e+00
2.333508713034455617e+00
2.295257545701467894e+00
2.295257545701467894e+00
2.286632282479323930e+00
2.286632282479323930e+00
2.293194982757042144e+00
2.307070406201360946e+00
2.307070406201360946e+00
2.312133060701315301e+00
2.312133060701315301e+00
2.278007019257179522e+00
2.287007293923764895e+00
2.287007293923764895e+00
2.305945371868038052e+00
2.242380932035279439e+00
2.242380932035279439e+00
2.292444959868159771e+00
2.317383220923490139e+00
2.307445417645802355e+00
2.307445417645802355e+00
2.315695669423505798e+00
2.315695669423505798e+00
2.270506790368358452e+00
2.253631275368511044e+00
2.253631275368511044e+00
2.283632190923795324e+00
2.283632190923795324e+00
2.273319376201666131e+00
2.296007568590349823e+00
2.296007568590349823e+00
2.225692922757652514e+00
2.225692922757652514e+00
2.262819055757316900e+00
2.361259559923093665e+00
2.361259559923093665e+00
2.376635029145176325e+00
2.376635029145176325e+00
2.357321939756462204e+00
2.349446699423200169e+00
2.349446699423200169e+00
2.324883449812311209e+00
2.337258827478866152e+00
2.337258827478866152e+00
2.330508621478927012e+00
2.330508621478927012e+00
2.275756950590533290e+00
2.276131962034974254e+00
2.276131962034974254e+00
2.270694296090578934e+00
2.270694296090578934e+00
2.270881801812799416e+00
2.268631733146153184e+00
2.268631733146153184e+00
2.245381023590808045e+00
2.259818964201788294e+00
2.259818964201788294e+00
2.310070497756889552e+00
2.310070497756889552e+00
2.334258735923337547e+00
2.324883449812311209e+00
2.324883449812311209e+00
2.344384044923245813e+00
2.344384044923245813e+00
2.307070406201360946e+00
2.308195440534684284e+00
2.308195440534684284e+00
2.352821802423169739e+00
2.352821802423169739e+00
2.258881435590685438e+00
2.252693746757408633e+00
2.252693746757408633e+00
2.294882534257026929e+00
2.294882534257026929e+00
2.294882534257026929e+00
2.231693105868709726e+00
2.244068483535264225e+00
2.244068483535264225e+00
2.266569170201727434e+00
2.337821344645527599e+00
2.337821344645527599e+00
2.381510177922910199e+00
2.381510177922910199e+00
2.362384594256416559e+00
2.338946378978850937e+00
2.338946378978850937e+00
2.310258003479110034e+00
2.310258003479110034e+00
2.288882351145970162e+00
2.292632465590380253e+00
2.292632465590380253e+00
2.321133335367900674e+00
2.290382396923734465e+00
2.290382396923734465e+00
2.278382030701620931e+00
2.278382030701620931e+00
2.304632831812494231e+00
2.310258003479110034e+00
2.310258003479110034e+00
2.279694570757164307e+00
2.279694570757164307e+00
2.287569811090426342e+00
2.333883724478896582e+00
2.333883724478896582e+00
2.284757225257118218e+00
2.284757225257118218e+00
2.256631366924039650e+00
2.283069673757133433e+00
2.283069673757133433e+00
2.329383587145603673e+00
2.329383587145603673e+00
2.383760246589556875e+00
2.308570451979125249e+00
2.308570451979125249e+00
2.264694112979522167e+00
2.252318735312967224e+00
2.252318735312967224e+00
2.290569902645954947e+00
2.290569902645954947e+00
2.294507522812585520e+00
2.211442487868892304e+00
2.211442487868892304e+00
2.264319101535081202e+00
2.264319101535081202e+00
2.338571367534409973e+00
2.371197363200781449e+00
2.371197363200781449e+00
2.367634754478591397e+00
2.367634754478591397e+00
2.379447614978484449e+00
2.341383953367717208e+00
2.341383953367717208e+00
2.325445966978973100e+00
2.306132877590258534e+00
2.306132877590258534e+00
2.233380657368694511e+00
2.233380657368694511e+00
2.214630085146641392e+00
2.273131870479445649e+00
2.273131870479445649e+00
2.286444776757103448e+00
2.286444776757103448e+00
2.317008209479048730e+00
2.274631916257209951e+00
2.274631916257209951e+00
2.271819330423901828e+00
2.271819330423901828e+00
2.314758140812402942e+00
2.314570635090182460e+00
2.314570635090182460e+00
2.314008117923521013e+00
2.317383220923490139e+00
2.317383220923490139e+00
2.308757957701345731e+00
2.308757957701345731e+00
2.297132602923673161e+00
2.311008026367992407e+00
2.311008026367992407e+00
2.266569170201727434e+00
2.251381206701864812e+00
2.251381206701864812e+00
2.269006744590594149e+00
2.269006744590594149e+00
2.299945188756981285e+00
2.252693746757408633e+00
2.252693746757408633e+00
2.242005920590838475e+00
2.242005920590838475e+00
2.281194616534928166e+00
2.350571733756523507e+00
2.350571733756523507e+00
2.387510361033966966e+00
2.387510361033966966e+00
2.346071596423230599e+00
2.340258919034394314e+00
2.340258919034394314e+00
2.345321573534348669e+00
2.317195715201269657e+00
2.317195715201269657e+00
2.283444685201574842e+00
2.283444685201574842e+00
2.249131138035218136e+00
2.237880794701986531e+00
2.237880794701986531e+00
2.245568529313028083e+00
2.245568529313028083e+00
2.278007019257179522e+00
2.279694570757164307e+00
2.279694570757164307e+00
2.273319376201666131e+00
2.273319376201666131e+00
2.327133518478957885e+00
2.333321207312235135e+00
2.333321207312235135e+00
2.320195806756797818e+00
2.320195806756797818e+00
2.344009033478804849e+00
2.328071047090059853e+00
2.328071047090059853e+00
2.282319650868251504e+00
2.289257362590411127e+00
2.289257362590411127e+00
2.261319009979552597e+00
2.261319009979552597e+00
2.335946287423322332e+00
2.343634022034363884e+00
2.343634022034363884e+00
2.242755943479720404e+00
2.242755943479720404e+00
2.251756218146305777e+00
2.243130954924161813e+00
2.243130954924161813e+00
2.262819055757316900e+00
2.263944090090640238e+00
2.263944090090640238e+00
2.330508621478927012e+00
2.330508621478927012e+00
2.345134067812128187e+00
2.357884456923124095e+00
2.357884456923124095e+00
2.372697408978545752e+00
2.372697408978545752e+00
2.350946745200964472e+00
2.311383037812433372e+00
2.311383037812433372e+00
2.281194616534928166e+00
2.281194616534928166e+00
2.282319650868251504e+00
2.289257362590411127e+00
2.289257362590411127e+00
2.284382213812677254e+00
2.284382213812677254e+00
2.285694753868221074e+00
2.272194341868343237e+00
2.272194341868343237e+00
2.297320108645893644e+00
2.321883358256782603e+00
2.321883358256782603e+00
2.341946470534379099e+00
2.341946470534379099e+00
2.338196356089969008e+00
2.335946287423322332e+00
2.335946287423322332e+00
2.299195165868098911e+00
2.299195165868098911e+00
2.288882351145970162e+00
2.276506973479415219e+00
2.276506973479415219e+00
2.245193517868587563e+00
2.245193517868587563e+00
2.263381572923978347e+00
2.250068666646320992e+00
2.250068666646320992e+00
2.262631550035096417e+00
2.262631550035096417e+00
2.302570268868068482e+00
2.292069948423719250e+00
2.292069948423719250e+00
2.321883358256782603e+00
2.348509170812097757e+00
2.348509170812097757e+00
2.341571459089938134e+00
2.341571459089938134e+00
2.319258278145695407e+00
2.306132877590258534e+00
2.306132877590258534e+00
2.296757591479232197e+00
2.296757591479232197e+00
2.300695211645863214e+00
2.288507339701529197e+00
2.288507339701529197e+00
2.302570268868068482e+00
2.275756950590533290e+00
2.275756950590533290e+00
2.297695120090334608e+00
2.297695120090334608e+00
2.289819879757073018e+00
2.236193243202001746e+00
2.236193243202001746e+00
2.262819055757316900e+00
2.262819055757316900e+00
2.330508621478927012e+00
2.332008667256691314e+00
2.332008667256691314e+00
2.332758690145573244e+00
2.332758690145573244e+00
2.329383587145603673e+00
2.326383495590075512e+00
2.326383495590075512e+00
2.299382671590319838e+00
2.280819605090487201e+00
2.280819605090487201e+00
2.262444044312875935e+00
2.262444044312875935e+00
2.264881618701742649e+00
2.262256538590655452e+00
2.262256538590655452e+00
2.266756675923947917e+00
2.266756675923947917e+00
2.294695028534806447e+00
2.231505600146489243e+00
2.231505600146489243e+00
2.252131229590746742e+00
