2.289069856868190644e+00
2.289069856868190644e+00
2.292632465590380253e+00
2.292632465590380253e+00
2.292632465590380253e+00
2.276506973479415219e+00
2.276506973479415219e+00
2.276506973479415219e+00
2.284944730979339145e+00
2.284944730979339145e+00
2.284944730979339145e+00
2.284944730979339145e+00
2.275569444868312807e+00
2.275569444868312807e+00
2.275569444868312807e+00
2.256256355479598685e+00
2.256256355479598685e+00
2.256256355479598685e+00
2.256256355479598685e+00
2.279132053590502860e+00
2.279132053590502860e+00
2.279132053590502860e+00
2.311570543534653854e+00
2.311570543534653854e+00
2.311570543534653854e+00
2.329383587145603673e+00
2.329383587145603673e+00
2.329383587145603673e+00
2.329383587145603673e+00
2.361822077089755112e+00
2.361822077089755112e+00
2.361822077089755112e+00
2.358259468367565059e+00
2.358259468367565059e+00
2.358259468367565059e+00
2.358259468367565059e+00
2.322258369701224012e+00
2.322258369701224012e+00
2.322258369701224012e+00
2.313070589312418157e+00
2.313070589312418157e+00
2.313070589312418157e+00
2.313070589312418157e+00
2.287569811090426342e+00
2.287569811090426342e+00
2.287569811090426342e+00
2.273694387646107540e+00
2.273694387646107540e+00
2.273694387646107540e+00
2.273694387646107540e+00
2.278007019257179522e+00
2.278007019257179522e+00
2.278007019257179522e+00
2.260381481368449741e+00
2.260381481368449741e+00
2.260381481368449741e+00
2.271631824701681346e+00
2.271631824701681346e+00
2.271631824701681346e+00
2.271631824701681346e+00
2.248006103701895242e+00
2.248006103701895242e+00
2.248006103701895242e+00
2.246318552201910457e+00
2.246318552201910457e+00
2.246318552201910457e+00
2.246318552201910457e+00
2.291694936979278285e+00
2.291694936979278285e+00
2.291694936979278285e+00
2.326383495590075512e+00
2.326383495590075512e+00
2.326383495590075512e+00
2.326383495590075512e+00
2.337821344645527599e+00
2.337821344645527599e+00
2.337821344645527599e+00
2.358446974089785542e+00
2.358446974089785542e+00
2.358446974089785542e+00
2.355259376812036454e+00
2.355259376812036454e+00
2.355259376812036454e+00
2.355259376812036454e+00
2.330133610034486047e+00
2.330133610034486047e+00
2.330133610034486047e+00
2.323008392590105942e+00
2.323008392590105942e+00
2.323008392590105942e+00
2.323008392590105942e+00
2.295445051423688376e+00
2.295445051423688376e+00
2.295445051423688376e+00
2.280069582201605716e+00
2.280069582201605716e+00
2.265256630146183614e+00
2.265256630146183614e+00
2.265256630146183614e+00
2.265256630146183614e+00
2.253631275368511044e+00
2.253631275368511044e+00
2.253631275368511044e+00
2.263944090090640238e+00
2.263944090090640238e+00
2.263944090090640238e+00
2.249881160924100509e+00
2.249881160924100509e+00
2.249881160924100509e+00
2.249881160924100509e+00
2.269381756035035114e+00
2.269381756035035114e+00
2.269381756035035114e+00
2.316820703756828248e+00
2.316820703756828248e+00
2.316820703756828248e+00
2.316820703756828248e+00
2.331633655812249906e+00
2.331633655812249906e+00
2.331633655812249906e+00
2.351321756645405436e+00
2.351321756645405436e+00
2.351321756645405436e+00
2.368009765923032361e+00
2.368009765923032361e+00
2.368009765923032361e+00
2.368009765923032361e+00
2.339133884701071420e+00
2.339133884701071420e+00
2.339133884701071420e+00
2.320758323923459709e+00
2.320758323923459709e+00
2.320758323923459709e+00
2.320758323923459709e+00
2.307820429090243319e+00
2.307820429090243319e+00
2.307820429090243319e+00
2.284569719534897736e+00
2.284569719534897736e+00
2.274256904812768987e+00
2.274256904812768987e+00
2.274256904812768987e+00
2.250631183812982439e+00
2.250631183812982439e+00
2.250631183812982439e+00
2.251568712424085295e+00
2.251568712424085295e+00
2.251568712424085295e+00
2.264506607257301685e+00
2.264506607257301685e+00
2.264506607257301685e+00
2.191191869869075770e+00
2.191191869869075770e+00
2.191191869869075770e+00
2.218942716757713818e+00
2.218942716757713818e+00
2.218942716757713818e+00
2.218942716757713818e+00
2.335571275978881367e+00
2.335571275978881367e+00
2.335571275978881367e+00
2.362759605700857524e+00
2.362759605700857524e+00
2.362759605700857524e+00
2.362759605700857524e+00
2.377197546311838217e+00
2.377197546311838217e+00
2.377197546311838217e+00
2.370634846034120002e+00
2.370634846034120002e+00
2.370634846034120002e+00
2.370634846034120002e+00
2.338196356089969008e+00
2.338196356089969008e+00
2.338196356089969008e+00
2.314945646534623425e+00
2.314945646534623425e+00
2.314945646534623425e+00
2.314945646534623425e+00
2.296382580034791232e+00
2.296382580034791232e+00
2.296382580034791232e+00
2.293945005645924073e+00
2.293945005645924073e+00
2.293945005645924073e+00
2.291507431257057803e+00
2.291507431257057803e+00
2.291507431257057803e+00
2.291507431257057803e+00
2.264881618701742649e+00
2.264881618701742649e+00
2.264881618701742649e+00
2.271819330423901828e+00
2.271819330423901828e+00
2.271819330423901828e+00
2.261881527146214044e+00
2.261881527146214044e+00
2.261881527146214044e+00
2.261881527146214044e+00
2.262256538590655452e+00
2.262256538590655452e+00
2.262256538590655452e+00
2.293757499923703591e+00
2.293757499923703591e+00
2.293757499923703591e+00
2.293757499923703591e+00
2.301257728812525105e+00
2.301257728812525105e+00
2.301257728812525105e+00
2.316258186590166801e+00
2.316258186590166801e+00
2.316258186590166801e+00
2.363884640034180418e+00
2.363884640034180418e+00
2.363884640034180418e+00
2.363884640034180418e+00
2.356946928312021239e+00
2.356946928312021239e+00
2.356946928312021239e+00
2.320945829645680192e+00
2.320945829645680192e+00
2.320945829645680192e+00
2.320945829645680192e+00
2.310070497756889552e+00
2.310070497756889552e+00
2.310070497756889552e+00
2.291319925534837321e+00
2.291319925534837321e+00
2.291319925534837321e+00
2.281382122257148648e+00
2.281382122257148648e+00
2.281382122257148648e+00
2.281382122257148648e+00
2.258881435590685438e+00
2.258881435590685438e+00
2.258881435590685438e+00
2.194754478591265823e+00
2.194754478591265823e+00
2.194754478591265823e+00
2.194754478591265823e+00
2.295257545701467894e+00
2.295257545701467894e+00
2.295257545701467894e+00
2.244631000701926116e+00
2.244631000701926116e+00
2.244631000701926116e+00
2.244631000701926116e+00
2.278569536423841413e+00
2.278569536423841413e+00
2.278569536423841413e+00
2.321133335367900674e+00
2.321133335367900674e+00
2.321133335367900674e+00
2.334446241645558029e+00
2.334446241645558029e+00
2.334446241645558029e+00
2.352259285256507848e+00
2.352259285256507848e+00
2.352259285256507848e+00
2.366134708700827094e+00
2.366134708700827094e+00
2.366134708700827094e+00
2.363134617145298488e+00
2.363134617145298488e+00
2.363134617145298488e+00
2.363134617145298488e+00
2.332571184423352761e+00
2.332571184423352761e+00
2.332571184423352761e+00
2.315695669423505798e+00
2.315695669423505798e+00
2.315695669423505798e+00
2.286257271034882521e+00
2.286257271034882521e+00
2.286257271034882521e+00
2.286257271034882521e+00
2.269006744590594149e+00
2.269006744590594149e+00
2.269006744590594149e+00
2.242005920590838475e+00
2.242005920590838475e+00
2.242005920590838475e+00
2.245943540757469048e+00
2.245943540757469048e+00
2.245943540757469048e+00
2.245943540757469048e+00
2.271819330423901828e+00
2.271819330423901828e+00
2.271819330423901828e+00
2.244631000701926116e+00
2.244631000701926116e+00
2.244631000701926116e+00
2.251756218146305777e+00
2.251756218146305777e+00
2.251756218146305777e+00
2.251756218146305777e+00
2.316070680867946319e+00
2.316070680867946319e+00
2.316070680867946319e+00
2.324695944090090727e+00
2.324695944090090727e+00
2.324695944090090727e+00
2.324695944090090727e+00
2.358259468367565059e+00
2.358259468367565059e+00
2.358259468367565059e+00
2.360884548478652700e+00
2.360884548478652700e+00
2.360884548478652700e+00
2.343259010589922919e+00
2.343259010589922919e+00
2.343259010589922919e+00
2.343259010589922919e+00
2.329571092867824156e+00
2.329571092867824156e+00
2.329571092867824156e+00
2.310258003479110034e+00
2.310258003479110034e+00
2.310258003479110034e+00
2.293007477034821662e+00
2.293007477034821662e+00
2.293007477034821662e+00
2.293007477034821662e+00
2.286069765312662039e+00
2.286069765312662039e+00
2.286069765312662039e+00
2.266381664479506952e+00
2.266381664479506952e+00
2.266381664479506952e+00
2.266381664479506952e+00
2.276131962034974254e+00
2.276131962034974254e+00
2.276131962034974254e+00
2.245381023590808045e+00
2.245381023590808045e+00
2.245381023590808045e+00
2.251193700979644330e+00
2.251193700979644330e+00
2.251193700979644330e+00
2.251193700979644330e+00
2.289632374034852091e+00
2.289632374034852091e+00
2.289632374034852091e+00
2.322258369701224012e+00
2.322258369701224012e+00
2.322258369701224012e+00
2.322258369701224012e+00
2.281007110812707683e+00
2.281007110812707683e+00
2.281007110812707683e+00
2.286632282479323930e+00
2.286632282479323930e+00
2.286632282479323930e+00
2.314945646534623425e+00
2.314945646534623425e+00
2.314945646534623425e+00
2.314945646534623425e+00
2.310633014923550999e+00
2.310633014923550999e+00
2.310633014923550999e+00
2.306132877590258534e+00
2.306132877590258534e+00
2.306132877590258534e+00
2.306132877590258534e+00
2.274819421979430434e+00
2.274819421979430434e+00
2.274819421979430434e+00
2.323570909756767389e+00
2.323570909756767389e+00
2.323570909756767389e+00
2.314570635090182460e+00
2.314570635090182460e+00
2.314570635090182460e+00
2.314570635090182460e+00
2.278194524979400004e+00
2.278194524979400004e+00
2.278194524979400004e+00
2.294695028534806447e+00
2.294695028534806447e+00
2.294695028534806447e+00
2.294695028534806447e+00
2.267131687368389326e+00
2.267131687368389326e+00
2.267131687368389326e+00
2.261131504257332114e+00
2.261131504257332114e+00
2.261131504257332114e+00
2.302382763145847999e+00
2.302382763145847999e+00
2.302382763145847999e+00
2.302382763145847999e+00
2.327696035645618888e+00
2.327696035645618888e+00
2.327696035645618888e+00
2.347009125034333454e+00
2.347009125034333454e+00
2.347009125034333454e+00
2.347009125034333454e+00
2.362197088534196077e+00
2.362197088534196077e+00
2.362197088534196077e+00
2.343071504867702437e+00
2.343071504867702437e+00
2.343071504867702437e+00
2.343071504867702437e+00
2.312133060701315301e+00
2.312133060701315301e+00
2.312133060701315301e+00
2.325258461256752618e+00
2.325258461256752618e+00
2.325258461256752618e+00
2.291132419812616394e+00
2.291132419812616394e+00
2.291132419812616394e+00
2.291132419812616394e+00
2.292632465590380253e+00
2.292632465590380253e+00
2.292632465590380253e+00
2.273319376201666131e+00
2.273319376201666131e+00
2.273319376201666131e+00
2.254756309701834383e+00
2.254756309701834383e+00
2.254756309701834383e+00
2.254756309701834383e+00
2.273881893368328022e+00
2.273881893368328022e+00
2.273881893368328022e+00
2.246131046479689974e+00
2.246131046479689974e+00
2.246131046479689974e+00
2.239568346201971760e+00
2.239568346201971760e+00
2.239568346201971760e+00
2.239568346201971760e+00
2.314383129367961978e+00
2.314383129367961978e+00
2.314383129367961978e+00
2.320195806756797818e+00
2.320195806756797818e+00
2.320195806756797818e+00
2.320195806756797818e+00
2.336508804589983779e+00
2.336508804589983779e+00
2.336508804589983779e+00
2.364072145756401344e+00
2.364072145756401344e+00
2.364072145756401344e+00
2.324133426923429280e+00
2.324133426923429280e+00
2.324133426923429280e+00
2.324133426923429280e+00
2.332946195867793726e+00
2.332946195867793726e+00
2.332946195867793726e+00
2.316258186590166801e+00
2.316258186590166801e+00
2.316258186590166801e+00
2.316258186590166801e+00
2.293007477034821662e+00
2.293007477034821662e+00
2.293007477034821662e+00
2.291694936979278285e+00
2.291694936979278285e+00
2.291694936979278285e+00
2.291694936979278285e+00
2.272381847590563719e+00
2.272381847590563719e+00
2.272381847590563719e+00
2.266944181646168399e+00
2.266944181646168399e+00
2.266944181646168399e+00
2.263756584368419311e+00
2.263756584368419311e+00
2.263756584368419311e+00
2.263756584368419311e+00
2.239568346201971760e+00
2.239568346201971760e+00
2.239568346201971760e+00
2.274069399090548504e+00
2.274069399090548504e+00
2.274069399090548504e+00
2.274069399090548504e+00
2.311008026367992407e+00
2.311008026367992407e+00
2.311008026367992407e+00
2.326383495590075512e+00
2.326383495590075512e+00
2.326383495590075512e+00
2.356946928312021239e+00
2.356946928312021239e+00
2.356946928312021239e+00
2.356946928312021239e+00
2.358821985534226506e+00
2.358821985534226506e+00
2.358821985534226506e+00
2.330883632923367976e+00
2.330883632923367976e+00
2.330883632923367976e+00
2.330883632923367976e+00
2.308945463423566213e+00
2.308945463423566213e+00
2.308945463423566213e+00
2.292069948423719250e+00
2.292069948423719250e+00
2.292069948423719250e+00
2.285507248146000592e+00
2.285507248146000592e+00
2.285507248146000592e+00
2.285507248146000592e+00
2.290194891201513983e+00
2.290194891201513983e+00
2.290194891201513983e+00
2.268069215979491737e+00
2.268069215979491737e+00
2.268069215979491737e+00
2.268069215979491737e+00
2.278382030701620931e+00
2.278382030701620931e+00
2.278382030701620931e+00
2.270319284646137969e+00
2.270319284646137969e+00
2.270319284646137969e+00
2.263944090090640238e+00
2.263944090090640238e+00
2.263944090090640238e+00
2.263944090090640238e+00
2.299570177312540320e+00
2.299570177312540320e+00
2.299570177312540320e+00
2.322633381145664977e+00
2.322633381145664977e+00
2.322633381145664977e+00
2.322633381145664977e+00
2.334071230201117064e+00
2.334071230201117064e+00
2.334071230201117064e+00
2.364259651478621826e+00
2.364259651478621826e+00
2.364259651478621826e+00
2.364259651478621826e+00
2.356384411145359792e+00
2.356384411145359792e+00
2.356384411145359792e+00
2.324133426923429280e+00
2.324133426923429280e+00
2.324133426923429280e+00
2.305195348979155678e+00
2.305195348979155678e+00
2.305195348979155678e+00
2.305195348979155678e+00
2.271444318979460864e+00
2.271444318979460864e+00
2.271444318979460864e+00
2.253256263924070080e+00
2.253256263924070080e+00
2.253256263924070080e+00
2.253256263924070080e+00
2.254756309701834383e+00
2.254756309701834383e+00
2.254756309701834383e+00
2.247068575090792386e+00
2.247068575090792386e+00
2.247068575090792386e+00
2.247068575090792386e+00
2.260943998535111632e+00
2.260943998535111632e+00
2.260943998535111632e+00
2.237130771813104602e+00
2.237130771813104602e+00
2.237130771813104602e+00
2.257381389812921579e+00
2.257381389812921579e+00
2.257381389812921579e+00
2.257381389812921579e+00
2.299195165868098911e+00
2.299195165868098911e+00
2.299195165868098911e+00
2.322258369701224012e+00
2.322258369701224012e+00
2.322258369701224012e+00
2.322258369701224012e+00
2.348321665089877275e+00
2.348321665089877275e+00
2.348321665089877275e+00
2.365197180089724238e+00
2.365197180089724238e+00
2.365197180089724238e+00
2.346821619312112972e+00
2.346821619312112972e+00
2.346821619312112972e+00
2.346821619312112972e+00
2.319445783867915889e+00
2.319445783867915889e+00
2.319445783867915889e+00
2.308195440534684284e+00
2.308195440534684284e+00
2.308195440534684284e+00
2.308195440534684284e+00
2.286257271034882521e+00
2.286257271034882521e+00
2.286257271034882521e+00
2.290569902645954947e+00
2.290569902645954947e+00
2.290569902645954947e+00
2.290569902645954947e+00
2.286444776757103448e+00
2.286444776757103448e+00
2.286444776757103448e+00
2.270506790368358452e+00
2.270506790368358452e+00
2.270506790368358452e+00
2.275381939146092325e+00
2.275381939146092325e+00
2.275381939146092325e+00
2.275381939146092325e+00
2.248568620868556689e+00
2.248568620868556689e+00
2.248568620868556689e+00
2.261506515701773079e+00
2.261506515701773079e+00
2.261506515701773079e+00
2.261506515701773079e+00
2.293382488479262626e+00
2.293382488479262626e+00
2.293382488479262626e+00
2.317195715201269657e+00
2.317195715201269657e+00
2.317195715201269657e+00
2.317195715201269657e+00
2.354134342478713116e+00
2.354134342478713116e+00
2.354134342478713116e+00
2.361822077089755112e+00
2.361822077089755112e+00
2.361822077089755112e+00
2.335946287423322332e+00
2.335946287423322332e+00
2.335946287423322332e+00
2.335946287423322332e+00
2.325070955534531691e+00
2.325070955534531691e+00
2.325070955534531691e+00
2.305007843256935196e+00
2.305007843256935196e+00
2.305007843256935196e+00
2.305007843256935196e+00
2.284194708090456771e+00
2.284194708090456771e+00
2.284194708090456771e+00
2.275381939146092325e+00
2.275381939146092325e+00
2.275381939146092325e+00
2.262444044312875935e+00
2.262444044312875935e+00
2.262444044312875935e+00
2.262444044312875935e+00
2.263756584368419311e+00
2.263756584368419311e+00
2.263756584368419311e+00
2.266381664479506952e+00
2.266381664479506952e+00
2.266381664479506952e+00
2.266381664479506952e+00
2.256631366924039650e+00
2.256631366924039650e+00
2.256631366924039650e+00
2.295070039979247412e+00
2.295070039979247412e+00
2.295070039979247412e+00
2.295070039979247412e+00
2.317758232367931104e+00
2.317758232367931104e+00
2.317758232367931104e+00
2.339508896145511940e+00
2.339508896145511940e+00
2.339508896145511940e+00
2.365572191534165203e+00
2.365572191534165203e+00
2.365572191534165203e+00
2.365572191534165203e+00
2.361634571367534630e+00
2.361634571367534630e+00
2.361634571367534630e+00
2.339133884701071420e+00
2.339133884701071420e+00
2.339133884701071420e+00
2.339133884701071420e+00
2.327883541367839371e+00
2.327883541367839371e+00
2.327883541367839371e+00
2.304632831812494231e+00
2.304632831812494231e+00
2.304632831812494231e+00
2.304632831812494231e+00
2.292632465590380253e+00
2.292632465590380253e+00
2.292632465590380253e+00
2.280819605090487201e+00
2.280819605090487201e+00
2.280819605090487201e+00
2.260006469924008776e+00
2.260006469924008776e+00
2.260006469924008776e+00
2.260006469924008776e+00
2.254756309701834383e+00
2.254756309701834383e+00
2.254756309701834383e+00
2.221380291146580532e+00
2.221380291146580532e+00
2.221380291146580532e+00
2.226067934202093479e+00
2.226067934202093479e+00
2.226067934202093479e+00
2.226067934202093479e+00
2.279882076479384789e+00
2.279882076479384789e+00
2.279882076479384789e+00
2.291882442701498768e+00
2.291882442701498768e+00
2.291882442701498768e+00
2.291882442701498768e+00
2.321320841090121156e+00
2.321320841090121156e+00
2.321320841090121156e+00
2.342696493423261028e+00
2.342696493423261028e+00
2.342696493423261028e+00
2.333508713034455617e+00
2.333508713034455617e+00
2.333508713034455617e+00
2.333508713034455617e+00
2.310258003479110034e+00
2.310258003479110034e+00
2.310258003479110034e+00
2.316258186590166801e+00
2.316258186590166801e+00
2.316258186590166801e+00
2.316258186590166801e+00
2.297320108645893644e+00
2.297320108645893644e+00
2.297320108645893644e+00
2.290944914090395912e+00
2.290944914090395912e+00
2.290944914090395912e+00
2.290944914090395912e+00
2.289069856868190644e+00
2.289069856868190644e+00
2.289069856868190644e+00
2.269194250312814631e+00
2.269194250312814631e+00
2.269194250312814631e+00
2.281944639423810539e+00
2.281944639423810539e+00
2.281944639423810539e+00
2.281944639423810539e+00
2.257381389812921579e+00
2.257381389812921579e+00
2.257381389812921579e+00
2.276881984923856628e+00
2.276881984923856628e+00
2.276881984923856628e+00
2.276881984923856628e+00
2.316258186590166801e+00
2.316258186590166801e+00
2.316258186590166801e+00
2.325633472701193583e+00
2.325633472701193583e+00
2.325633472701193583e+00
2.355259376812036454e+00
2.355259376812036454e+00
2.355259376812036454e+00
2.355259376812036454e+00
2.360697042756431774e+00
2.360697042756431774e+00
2.360697042756431774e+00
2.343446516312143402e+00
2.343446516312143402e+00
2.343446516312143402e+00
2.343446516312143402e+00
2.329758598590044638e+00
2.329758598590044638e+00
2.329758598590044638e+00
2.316258186590166801e+00
2.316258186590166801e+00
2.316258186590166801e+00
2.316258186590166801e+00
2.294507522812585520e+00
2.294507522812585520e+00
2.294507522812585520e+00
2.291319925534837321e+00
2.291319925534837321e+00
2.291319925534837321e+00
2.276506973479415219e+00
2.276506973479415219e+00
2.276506973479415219e+00
2.276506973479415219e+00
2.261319009979552597e+00
2.261319009979552597e+00
2.261319009979552597e+00
2.266569170201727434e+00
2.266569170201727434e+00
2.266569170201727434e+00
2.266569170201727434e+00
2.248568620868556689e+00
2.248568620868556689e+00
2.248568620868556689e+00
2.272006836146122755e+00
2.272006836146122755e+00
2.272006836146122755e+00
2.300132694479201767e+00
2.300132694479201767e+00
2.300132694479201767e+00
2.300132694479201767e+00
2.317570726645710621e+00
2.317570726645710621e+00
2.317570726645710621e+00
2.351509262367625919e+00
2.351509262367625919e+00
2.351509262367625919e+00
2.351509262367625919e+00
2.354696859645375007e+00
2.354696859645375007e+00
2.354696859645375007e+00
2.334071230201117064e+00
2.334071230201117064e+00
2.334071230201117064e+00
2.334071230201117064e+00
2.314383129367961978e+00
2.314383129367961978e+00
2.314383129367961978e+00
2.294320017090365038e+00
2.294320017090365038e+00
2.294320017090365038e+00
2.282132145146031021e+00
2.282132145146031021e+00
2.282132145146031021e+00
2.282132145146031021e+00
2.278382030701620931e+00
2.278382030701620931e+00
2.278382030701620931e+00
2.270319284646137969e+00
2.270319284646137969e+00
2.270319284646137969e+00
2.270319284646137969e+00
2.277256996368297592e+00
2.277256996368297592e+00
2.277256996368297592e+00
2.258693929868464956e+00
2.258693929868464956e+00
2.258693929868464956e+00
2.258693929868464956e+00
2.248943632312997654e+00
2.248943632312997654e+00
2.248943632312997654e+00
2.293382488479262626e+00
2.293382488479262626e+00
2.293382488479262626e+00
2.319445783867915889e+00
2.319445783867915889e+00
2.319445783867915889e+00
2.319445783867915889e+00
2.339883907589953349e+00
2.339883907589953349e+00
2.339883907589953349e+00
2.362009582811975594e+00
2.362009582811975594e+00
2.362009582811975594e+00
2.362009582811975594e+00
2.347384136478774419e+00
2.347384136478774419e+00
2.347384136478774419e+00
2.320570818201239227e+00
2.320570818201239227e+00
2.320570818201239227e+00
2.315695669423505798e+00
2.315695669423505798e+00
2.315695669423505798e+00
2.315695669423505798e+00
2.296007568590349823e+00
2.296007568590349823e+00
2.296007568590349823e+00
2.285882259590441556e+00
2.285882259590441556e+00
2.285882259590441556e+00
2.285882259590441556e+00
2.271444318979460864e+00
2.271444318979460864e+00
2.271444318979460864e+00
2.246693563646351421e+00
2.246693563646351421e+00
2.246693563646351421e+00
2.246693563646351421e+00
2.264694112979522167e+00
2.264694112979522167e+00
2.264694112979522167e+00
2.246693563646351421e+00
2.246693563646351421e+00
2.246693563646351421e+00
2.266194158757286470e+00
2.266194158757286470e+00
2.266194158757286470e+00
2.266194158757286470e+00
2.300507705923642732e+00
2.300507705923642732e+00
2.300507705923642732e+00
2.315320657979064389e+00
2.315320657979064389e+00
2.315320657979064389e+00
2.315320657979064389e+00
2.327883541367839371e+00
2.327883541367839371e+00
2.327883541367839371e+00
2.354134342478713116e+00
2.354134342478713116e+00
2.354134342478713116e+00
2.354134342478713116e+00
2.344571550645466296e+00
2.344571550645466296e+00
2.344571550645466296e+00
2.322445875423444495e+00
2.322445875423444495e+00
2.322445875423444495e+00
2.311945554979094819e+00
2.311945554979094819e+00
2.311945554979094819e+00
2.311945554979094819e+00
2.294507522812585520e+00
2.294507522812585520e+00
2.294507522812585520e+00
2.281382122257148648e+00
2.281382122257148648e+00
2.281382122257148648e+00
2.281382122257148648e+00
2.272569353312784202e+00
2.272569353312784202e+00
2.272569353312784202e+00
2.248756126590777171e+00
2.248756126590777171e+00
2.248756126590777171e+00
2.254568803979613900e+00
2.254568803979613900e+00
2.254568803979613900e+00
2.254568803979613900e+00
2.245943540757469048e+00
2.245943540757469048e+00
2.245943540757469048e+00
2.285882259590441556e+00
2.285882259590441556e+00
2.285882259590441556e+00
2.285882259590441556e+00
2.319258278145695407e+00
2.319258278145695407e+00
2.319258278145695407e+00
2.331633655812249906e+00
2.331633655812249906e+00
2.331633655812249906e+00
2.331633655812249906e+00
2.354509353923154524e+00
2.354509353923154524e+00
2.354509353923154524e+00
2.350759239478743989e+00
2.350759239478743989e+00
2.350759239478743989e+00
2.334821253089998994e+00
2.334821253089998994e+00
2.334821253089998994e+00
2.334821253089998994e+00
2.320383312479018745e+00
2.320383312479018745e+00
2.320383312479018745e+00
2.303882808923612302e+00
2.303882808923612302e+00
2.303882808923612302e+00
2.303882808923612302e+00
2.289257362590411127e+00
2.289257362590411127e+00
2.289257362590411127e+00
2.285882259590441556e+00
2.285882259590441556e+00
2.285882259590441556e+00
2.261319009979552597e+00
2.261319009979552597e+00
2.261319009979552597e+00
2.261319009979552597e+00
2.260756492812891150e+00
2.260756492812891150e+00
2.260756492812891150e+00
2.259631458479567812e+00
2.259631458479567812e+00
2.259631458479567812e+00
2.247631092257453833e+00
2.247631092257453833e+00
2.247631092257453833e+00
2.247631092257453833e+00
2.289257362590411127e+00
2.289257362590411127e+00
2.289257362590411127e+00
2.317195715201269657e+00
2.317195715201269657e+00
2.317195715201269657e+00
2.317195715201269657e+00
2.337821344645527599e+00
2.337821344645527599e+00
2.337821344645527599e+00
2.365384685811944721e+00
2.365384685811944721e+00
2.365384685811944721e+00
2.365384685811944721e+00
2.352259285256507848e+00
2.352259285256507848e+00
2.352259285256507848e+00
2.319633289590136371e+00
2.319633289590136371e+00
2.319633289590136371e+00
2.311008026367992407e+00
2.311008026367992407e+00
2.311008026367992407e+00
2.311008026367992407e+00
2.283444685201574842e+00
2.283444685201574842e+00
2.283444685201574842e+00
2.264506607257301685e+00
2.264506607257301685e+00
2.264506607257301685e+00
2.264506607257301685e+00
2.264131595812860720e+00
2.264131595812860720e+00
2.264131595812860720e+00
2.256818872646260132e+00
2.256818872646260132e+00
2.256818872646260132e+00
2.261881527146214044e+00
2.261881527146214044e+00
2.261881527146214044e+00
2.261881527146214044e+00
2.251943723868526259e+00
2.251943723868526259e+00
2.251943723868526259e+00
2.261319009979552597e+00
2.261319009979552597e+00
2.261319009979552597e+00
2.261319009979552597e+00
2.312133060701315301e+00
2.312133060701315301e+00
2.312133060701315301e+00
2.331071138645588459e+00
2.331071138645588459e+00
2.331071138645588459e+00
2.331071138645588459e+00
2.352821802423169739e+00
2.352821802423169739e+00
2.352821802423169739e+00
2.368009765923032361e+00
2.368009765923032361e+00
2.368009765923032361e+00
2.354134342478713116e+00
2.354134342478713116e+00
2.354134342478713116e+00
2.354134342478713116e+00
2.339883907589953349e+00
2.339883907589953349e+00
2.339883907589953349e+00
2.331258644367808941e+00
2.331258644367808941e+00
2.331258644367808941e+00
2.331258644367808941e+00
2.295257545701467894e+00
2.295257545701467894e+00
2.295257545701467894e+00
2.273131870479445649e+00
2.273131870479445649e+00
2.273131870479445649e+00
2.249506149479659545e+00
2.249506149479659545e+00
2.249506149479659545e+00
2.249506149479659545e+00
2.236005737479781263e+00
2.236005737479781263e+00
2.236005737479781263e+00
2.260568987090670667e+00
2.260568987090670667e+00
2.260568987090670667e+00
2.260568987090670667e+00
2.244818506424146598e+00
2.244818506424146598e+00
2.244818506424146598e+00
2.272194341868343237e+00
2.272194341868343237e+00
2.272194341868343237e+00
2.272194341868343237e+00
2.321320841090121156e+00
2.321320841090121156e+00
2.321320841090121156e+00
2.331071138645588459e+00
2.331071138645588459e+00
2.331071138645588459e+00
2.351696768089846401e+00
2.351696768089846401e+00
2.351696768089846401e+00
2.351696768089846401e+00
2.347571642200994901e+00
2.347571642200994901e+00
2.347571642200994901e+00
2.323383404034546906e+00
2.323383404034546906e+00
2.323383404034546906e+00
2.323383404034546906e+00
2.304445326090273749e+00
2.304445326090273749e+00
2.304445326090273749e+00
2.296382580034791232e+00
2.296382580034791232e+00
2.296382580034791232e+00
2.296382580034791232e+00
2.284569719534897736e+00
2.284569719534897736e+00
2.284569719534897736e+00
2.284194708090456771e+00
2.284194708090456771e+00
2.284194708090456771e+00
2.276694479201635701e+00
2.276694479201635701e+00
2.276694479201635701e+00
2.276694479201635701e+00
2.261694021423993561e+00
2.261694021423993561e+00
2.261694021423993561e+00
2.268256721701712220e+00
2.268256721701712220e+00
2.268256721701712220e+00
2.241255897701956545e+00
2.241255897701956545e+00
2.241255897701956545e+00
2.241255897701956545e+00
2.287007293923764895e+00
2.287007293923764895e+00
2.287007293923764895e+00
2.320195806756797818e+00
2.320195806756797818e+00
2.320195806756797818e+00
2.320195806756797818e+00
2.337633838923307117e+00
2.337633838923307117e+00
2.337633838923307117e+00
2.360697042756431774e+00
2.360697042756431774e+00
2.360697042756431774e+00
2.360697042756431774e+00
2.351696768089846401e+00
2.351696768089846401e+00
2.351696768089846401e+00
2.326571001312295994e+00
2.326571001312295994e+00
2.326571001312295994e+00
2.314570635090182460e+00
2.314570635090182460e+00
2.314570635090182460e+00
2.314570635090182460e+00
2.284194708090456771e+00
2.284194708090456771e+00
2.284194708090456771e+00
2.274631916257209951e+00
2.274631916257209951e+00
2.274631916257209951e+00
2.274631916257209951e+00
2.278944547868282378e+00
2.278944547868282378e+00
2.278944547868282378e+00
2.272006836146122755e+00
2.272006836146122755e+00
2.272006836146122755e+00
2.272006836146122755e+00
2.275944456312753772e+00
2.275944456312753772e+00
2.275944456312753772e+00
2.266006653035065987e+00
2.266006653035065987e+00
2.266006653035065987e+00
2.266381664479506952e+00
2.266381664479506952e+00
2.266381664479506952e+00
2.266381664479506952e+00
2.311570543534653854e+00
2.311570543534653854e+00
2.311570543534653854e+00
2.327321024201178368e+00
2.327321024201178368e+00
2.327321024201178368e+00
2.327321024201178368e+00
2.344946562089907705e+00
2.344946562089907705e+00
2.344946562089907705e+00
2.349071687978759204e+00
2.349071687978759204e+00
2.349071687978759204e+00
2.338008850367748082e+00
2.338008850367748082e+00
2.338008850367748082e+00
2.338008850367748082e+00
2.318695760979033516e+00
2.318695760979033516e+00
2.318695760979033516e+00
2.305757866145817125e+00
2.305757866145817125e+00
2.305757866145817125e+00
2.305757866145817125e+00
2.283069673757133433e+00
2.283069673757133433e+00
2.283069673757133433e+00
2.276881984923856628e+00
2.276881984923856628e+00
2.276881984923856628e+00
2.270694296090578934e+00
2.270694296090578934e+00
2.270694296090578934e+00
2.270694296090578934e+00
2.254943815424054865e+00
2.254943815424054865e+00
2.254943815424054865e+00
2.269381756035035114e+00
2.269381756035035114e+00
2.269381756035035114e+00
2.269381756035035114e+00
2.249506149479659545e+00
2.249506149479659545e+00
2.249506149479659545e+00
2.266944181646168399e+00
2.266944181646168399e+00
2.266944181646168399e+00
2.266944181646168399e+00
2.303882808923612302e+00
2.303882808923612302e+00
2.303882808923612302e+00
2.319445783867915889e+00
2.319445783867915889e+00
2.319445783867915889e+00
2.341196447645496725e+00
2.341196447645496725e+00
2.341196447645496725e+00
2.341196447645496725e+00
2.355071871089815971e+00
2.355071871089815971e+00
2.355071871089815971e+00
2.339321390423291458e+00
2.339321390423291458e+00
2.339321390423291458e+00
2.339321390423291458e+00
2.332946195867793726e+00
2.332946195867793726e+00
2.332946195867793726e+00
2.311008026367992407e+00
2.311008026367992407e+00
2.311008026367992407e+00
2.283257179479354360e+00
2.283257179479354360e+00
2.283257179479354360e+00
2.283257179479354360e+00
2.278757042146061895e+00
2.278757042146061895e+00
2.278757042146061895e+00
2.278757042146061895e+00
2.278757042146061895e+00
2.278757042146061895e+00
2.278757042146061895e+00
2.257193884090700653e+00
2.257193884090700653e+00
2.257193884090700653e+00
2.268444227423932702e+00
2.268444227423932702e+00
2.268444227423932702e+00
2.247068575090792386e+00
2.247068575090792386e+00
2.247068575090792386e+00
2.247068575090792386e+00
2.275569444868312807e+00
2.275569444868312807e+00
2.275569444868312807e+00
2.313445600756859122e+00
2.313445600756859122e+00
2.313445600756859122e+00
2.336883816034425188e+00
2.336883816034425188e+00
2.336883816034425188e+00
2.336883816034425188e+00
2.364259651478621826e+00
2.364259651478621826e+00
2.364259651478621826e+00
2.358821985534226506e+00
2.358821985534226506e+00
2.358821985534226506e+00
2.358821985534226506e+00
2.327508529923398850e+00
2.327508529923398850e+00
2.327508529923398850e+00
2.305382854701376161e+00
2.305382854701376161e+00
2.305382854701376161e+00
2.305382854701376161e+00
2.297320108645893644e+00
2.297320108645893644e+00
2.297320108645893644e+00
2.290382396923734465e+00
2.290382396923734465e+00
2.290382396923734465e+00
2.283819696646015807e+00
2.283819696646015807e+00
2.283819696646015807e+00
2.283819696646015807e+00
2.269194250312814631e+00
2.269194250312814631e+00
2.269194250312814631e+00
2.256631366924039650e+00
2.256631366924039650e+00
2.256631366924039650e+00
2.256631366924039650e+00
2.246318552201910457e+00
2.246318552201910457e+00
2.246318552201910457e+00
2.237693288979766049e+00
2.237693288979766049e+00
2.237693288979766049e+00
2.292257454145939732e+00
2.292257454145939732e+00
2.292257454145939732e+00
2.292257454145939732e+00
2.325070955534531691e+00
2.325070955534531691e+00
2.325070955534531691e+00
2.345321573534348669e+00
2.345321573534348669e+00
2.345321573534348669e+00
2.345321573534348669e+00
2.364447157200842309e+00
2.364447157200842309e+00
2.364447157200842309e+00
2.350759239478743989e+00
2.350759239478743989e+00
2.350759239478743989e+00
2.326571001312295994e+00
2.326571001312295994e+00
2.326571001312295994e+00
2.326571001312295994e+00
2.322820886867885459e+00
2.322820886867885459e+00
2.322820886867885459e+00
2.296195074312570750e+00
2.296195074312570750e+00
2.296195074312570750e+00
2.296195074312570750e+00
2.284944730979339145e+00
2.284944730979339145e+00
2.284944730979339145e+00
2.270131778923917043e+00
2.270131778923917043e+00
2.270131778923917043e+00
2.248756126590777171e+00
2.248756126590777171e+00
2.248756126590777171e+00
2.248756126590777171e+00
2.252693746757408633e+00
2.252693746757408633e+00
2.252693746757408633e+00
2.240318369090853690e+00
2.240318369090853690e+00
2.240318369090853690e+00
2.240318369090853690e+00
2.251756218146305777e+00
2.251756218146305777e+00
2.251756218146305777e+00
2.298257637256996500e+00
2.298257637256996500e+00
2.298257637256996500e+00
2.323758415478988315e+00
2.323758415478988315e+00
2.323758415478988315e+00
2.323758415478988315e+00
2.353759331034272151e+00
2.353759331034272151e+00
2.353759331034272151e+00
2.368197271645252844e+00
2.368197271645252844e+00
2.368197271645252844e+00
2.368197271645252844e+00
2.348509170812097757e+00
2.348509170812097757e+00
2.348509170812097757e+00
2.329946104312265120e+00
2.329946104312265120e+00
2.329946104312265120e+00
2.329946104312265120e+00
2.316445692312387283e+00
2.316445692312387283e+00
2.316445692312387283e+00
2.294132511368144556e+00
2.294132511368144556e+00
2.294132511368144556e+00
2.284194708090456771e+00
2.284194708090456771e+00
2.284194708090456771e+00
2.284194708090456771e+00
2.266944181646168399e+00
2.266944181646168399e+00
2.266944181646168399e+00
2.255131321146275347e+00
2.255131321146275347e+00
2.255131321146275347e+00
2.255131321146275347e+00
2.266381664479506952e+00
2.266381664479506952e+00
2.266381664479506952e+00
2.245193517868587563e+00
2.245193517868587563e+00
2.245193517868587563e+00
2.275194433423871843e+00
2.275194433423871843e+00
2.275194433423871843e+00
2.275194433423871843e+00
2.308195440534684284e+00
2.308195440534684284e+00
2.308195440534684284e+00
2.313258095034638639e+00
2.313258095034638639e+00
2.313258095034638639e+00
2.313258095034638639e+00
2.334633747367778511e+00
2.334633747367778511e+00
2.334633747367778511e+00
2.338196356089969008e+00
2.338196356089969008e+00
2.338196356089969008e+00
2.330321115756706529e+00
2.330321115756706529e+00
2.330321115756706529e+00
2.330321115756706529e+00
2.325633472701193583e+00
2.325633472701193583e+00
2.325633472701193583e+00
2.305570360423596643e+00
2.305570360423596643e+00
2.305570360423596643e+00
2.305570360423596643e+00
2.284944730979339145e+00
2.284944730979339145e+00
2.284944730979339145e+00
2.282882168034912951e+00
2.282882168034912951e+00
2.282882168034912951e+00
2.282882168034912951e+00
2.280444593646046680e+00
2.280444593646046680e+00
2.280444593646046680e+00
2.268444227423932702e+00
2.268444227423932702e+00
2.268444227423932702e+00
2.271819330423901828e+00
2.271819330423901828e+00
2.271819330423901828e+00
2.271819330423901828e+00
2.252693746757408633e+00
2.252693746757408633e+00
2.252693746757408633e+00
2.293757499923703591e+00
2.293757499923703591e+00
2.293757499923703591e+00
2.293757499923703591e+00
2.323008392590105942e+00
2.323008392590105942e+00
2.323008392590105942e+00
2.337446333201086635e+00
2.337446333201086635e+00
2.337446333201086635e+00
2.362572099978637485e+00
2.362572099978637485e+00
2.362572099978637485e+00
2.362572099978637485e+00
2.356571916867580274e+00
2.356571916867580274e+00
2.356571916867580274e+00
2.333133701590014208e+00
2.333133701590014208e+00
2.333133701590014208e+00
2.333133701590014208e+00
2.313070589312418157e+00
2.313070589312418157e+00
2.313070589312418157e+00
2.285882259590441556e+00
2.285882259590441556e+00
2.285882259590441556e+00
2.277444502090518075e+00
2.277444502090518075e+00
2.277444502090518075e+00
2.277444502090518075e+00
2.263944090090640238e+00
2.263944090090640238e+00
2.263944090090640238e+00
2.250631183812982439e+00
2.250631183812982439e+00
2.250631183812982439e+00
2.250631183812982439e+00
2.252131229590746742e+00
2.252131229590746742e+00
2.252131229590746742e+00
2.260006469924008776e+00
2.260006469924008776e+00
2.260006469924008776e+00
2.260006469924008776e+00
2.260756492812891150e+00
2.260756492812891150e+00
2.260756492812891150e+00
2.299945188756981285e+00
2.299945188756981285e+00
2.299945188756981285e+00
2.316070680867946319e+00
2.316070680867946319e+00
2.316070680867946319e+00
2.316070680867946319e+00
2.342883999145481511e+00
2.342883999145481511e+00
2.342883999145481511e+00
2.362572099978637485e+00
2.362572099978637485e+00
2.362572099978637485e+00
2.362572099978637485e+00
2.347759147923215384e+00
2.347759147923215384e+00
2.347759147923215384e+00
2.332383678701132279e+00
2.332383678701132279e+00
2.332383678701132279e+00
2.332383678701132279e+00
2.320195806756797818e+00
2.320195806756797818e+00
2.320195806756797818e+00
2.291319925534837321e+00
2.291319925534837321e+00
2.291319925534837321e+00
2.279507065034943825e+00
2.279507065034943825e+00
2.279507065034943825e+00
2.279507065034943825e+00
2.262819055757316900e+00
2.262819055757316900e+00
2.262819055757316900e+00
2.250631183812982439e+00
2.250631183812982439e+00
2.250631183812982439e+00
2.264131595812860720e+00
2.264131595812860720e+00
2.264131595812860720e+00
2.264131595812860720e+00
2.251568712424085295e+00
2.251568712424085295e+00
2.251568712424085295e+00
2.267131687368389326e+00
2.267131687368389326e+00
2.267131687368389326e+00
2.306507889034699499e+00
2.306507889034699499e+00
2.306507889034699499e+00
2.306507889034699499e+00
2.322820886867885459e+00
2.322820886867885459e+00
2.322820886867885459e+00
2.352071779534287366e+00
2.352071779534287366e+00
2.352071779534287366e+00
2.352071779534287366e+00
2.357509445478682686e+00
2.357509445478682686e+00
2.357509445478682686e+00
2.335383770256660885e+00
2.335383770256660885e+00
2.335383770256660885e+00
2.335383770256660885e+00
2.322633381145664977e+00
2.322633381145664977e+00
2.322633381145664977e+00
2.306882900479140464e+00
2.306882900479140464e+00
2.306882900479140464e+00
2.292819971312600735e+00
2.292819971312600735e+00
2.292819971312600735e+00
2.292819971312600735e+00
2.295257545701467894e+00
2.295257545701467894e+00
2.295257545701467894e+00
2.288319833979308715e+00
2.288319833979308715e+00
2.288319833979308715e+00
2.288319833979308715e+00
2.263006561479537382e+00
2.263006561479537382e+00
2.263006561479537382e+00
2.260006469924008776e+00
2.260006469924008776e+00
2.260006469924008776e+00
2.240130863368633207e+00
2.240130863368633207e+00
2.240130863368633207e+00
2.240130863368633207e+00
2.273881893368328022e+00
2.273881893368328022e+00
2.273881893368328022e+00
2.316633198034607766e+00
2.316633198034607766e+00
2.316633198034607766e+00
2.316633198034607766e+00
2.333696218756676100e+00
2.333696218756676100e+00
2.333696218756676100e+00
2.359009491256446989e+00
2.359009491256446989e+00
2.359009491256446989e+00
2.359009491256446989e+00
2.350571733756523507e+00
2.350571733756523507e+00
2.350571733756523507e+00
2.324320932645649762e+00
2.324320932645649762e+00
2.324320932645649762e+00
2.320008301034577336e+00
2.320008301034577336e+00
2.320008301034577336e+00
2.320008301034577336e+00
2.302007751701407035e+00
2.302007751701407035e+00
2.302007751701407035e+00
2.286632282479323930e+00
2.286632282479323930e+00
2.286632282479323930e+00
2.286632282479323930e+00
2.284757225257118218e+00
2.284757225257118218e+00
2.284757225257118218e+00
2.281382122257148648e+00
2.281382122257148648e+00
2.281382122257148648e+00
2.268631733146153184e+00
2.268631733146153184e+00
2.268631733146153184e+00
2.268631733146153184e+00
2.269944273201696561e+00
2.269944273201696561e+00
2.269944273201696561e+00
2.256631366924039650e+00
2.256631366924039650e+00
2.256631366924039650e+00
2.256631366924039650e+00
2.293945005645924073e+00
2.293945005645924073e+00
2.293945005645924073e+00
2.320008301034577336e+00
2.320008301034577336e+00
2.320008301034577336e+00
2.320008301034577336e+00
2.339321390423291458e+00
2.339321390423291458e+00
2.339321390423291458e+00
2.362759605700857524e+00
2.362759605700857524e+00
2.362759605700857524e+00
2.345696584978789634e+00
2.345696584978789634e+00
2.345696584978789634e+00
2.345696584978789634e+00
2.317008209479048730e+00
2.317008209479048730e+00
2.317008209479048730e+00
2.302945280312509890e+00
2.302945280312509890e+00
2.302945280312509890e+00
2.302945280312509890e+00
2.274256904812768987e+00
2.274256904812768987e+00
2.274256904812768987e+00
2.263194067201757864e+00
2.263194067201757864e+00
2.263194067201757864e+00
2.263194067201757864e+00
2.256256355479598685e+00
2.256256355479598685e+00
2.256256355479598685e+00
2.247068575090792386e+00
2.247068575090792386e+00
2.247068575090792386e+00
2.252506241035188150e+00
2.252506241035188150e+00
2.252506241035188150e+00
2.252506241035188150e+00
2.251943723868526259e+00
2.251943723868526259e+00
2.251943723868526259e+00
2.260943998535111632e+00
2.260943998535111632e+00
2.260943998535111632e+00
2.260943998535111632e+00
2.303132786034730373e+00
2.303132786034730373e+00
2.303132786034730373e+00
2.324508438367870244e+00
2.324508438367870244e+00
2.324508438367870244e+00
2.350384228034303025e+00
2.350384228034303025e+00
2.350384228034303025e+00
2.350384228034303025e+00
2.355634388256477418e+00
2.355634388256477418e+00
2.355634388256477418e+00
2.336508804589983779e+00
2.336508804589983779e+00
2.336508804589983779e+00
2.336508804589983779e+00
2.330508621478927012e+00
2.330508621478927012e+00
2.330508621478927012e+00
2.316070680867946319e+00
2.316070680867946319e+00
2.316070680867946319e+00
2.301820245979186552e+00
2.301820245979186552e+00
2.301820245979186552e+00
2.301820245979186552e+00
2.297695120090334608e+00
2.297695120090334608e+00
2.297695120090334608e+00
2.287569811090426342e+00
2.287569811090426342e+00
2.287569811090426342e+00
2.287569811090426342e+00
2.268069215979491737e+00
2.268069215979491737e+00
2.268069215979491737e+00
2.265256630146183614e+00
2.265256630146183614e+00
2.265256630146183614e+00
2.236943266090884119e+00
2.236943266090884119e+00
2.236943266090884119e+00
2.236943266090884119e+00
2.260756492812891150e+00
2.260756492812891150e+00
2.260756492812891150e+00
2.314758140812402942e+00
2.314758140812402942e+00
2.314758140812402942e+00
2.314758140812402942e+00
2.339883907589953349e+00
2.339883907589953349e+00
2.339883907589953349e+00
2.370447340311899076e+00
2.370447340311899076e+00
2.370447340311899076e+00
2.370447340311899076e+00
2.374009949034089573e+00
2.374009949034089573e+00
2.374009949034089573e+00
2.347946653645436310e+00
2.347946653645436310e+00
2.347946653645436310e+00
2.319070772423474924e+00
2.319070772423474924e+00
2.319070772423474924e+00
2.319070772423474924e+00
2.291694936979278285e+00
2.291694936979278285e+00
2.291694936979278285e+00
2.276506973479415219e+00
2.276506973479415219e+00
2.276506973479415219e+00
2.276506973479415219e+00
2.279132053590502860e+00
2.279132053590502860e+00
2.279132053590502860e+00
2.283632190923795324e+00
2.283632190923795324e+00
2.283632190923795324e+00
2.261131504257332114e+00
2.261131504257332114e+00
2.261131504257332114e+00
2.261131504257332114e+00
2.245193517868587563e+00
2.245193517868587563e+00
2.245193517868587563e+00
2.239568346201971760e+00
2.239568346201971760e+00
2.239568346201971760e+00
2.239568346201971760e+00
2.279882076479384789e+00
2.279882076479384789e+00
2.279882076479384789e+00
2.310070497756889552e+00
2.310070497756889552e+00
2.310070497756889552e+00
2.310070497756889552e+00
2.331821161534470832e+00
2.331821161534470832e+00
2.331821161534470832e+00
2.356196905423139309e+00
2.356196905423139309e+00
2.356196905423139309e+00
2.345884090701010116e+00
2.345884090701010116e+00
2.345884090701010116e+00
2.345884090701010116e+00
2.317945738090151586e+00
2.317945738090151586e+00
2.317945738090151586e+00
2.305570360423596643e+00
2.305570360423596643e+00
2.305570360423596643e+00
2.305570360423596643e+00
2.279132053590502860e+00
2.279132053590502860e+00
2.279132053590502860e+00
2.279507065034943825e+00
2.279507065034943825e+00
2.279507065034943825e+00
2.279507065034943825e+00
2.291132419812616394e+00
2.291132419812616394e+00
2.291132419812616394e+00
2.290007385479293500e+00
2.290007385479293500e+00
2.266006653035065987e+00
2.266006653035065987e+00
2.266006653035065987e+00
2.263944090090640238e+00
2.263944090090640238e+00
2.263944090090640238e+00
2.271631824701681346e+00
2.271631824701681346e+00
2.271631824701681346e+00
2.271631824701681346e+00
2.303695303201391820e+00
2.303695303201391820e+00
2.303695303201391820e+00
2.315508163701284872e+00
2.315508163701284872e+00
2.315508163701284872e+00
2.315508163701284872e+00
2.330133610034486047e+00
2.330133610034486047e+00
2.330133610034486047e+00
2.332571184423352761e+00
2.332571184423352761e+00
2.332571184423352761e+00
2.318133243812372069e+00
2.318133243812372069e+00
2.318133243812372069e+00
2.318133243812372069e+00
2.310820520645771925e+00
2.310820520645771925e+00
2.310820520645771925e+00
2.300132694479201767e+00
2.300132694479201767e+00
2.300132694479201767e+00
2.300132694479201767e+00
2.284569719534897736e+00
2.284569719534897736e+00
2.284569719534897736e+00
2.308382946256904766e+00
2.308382946256904766e+00
2.308382946256904766e+00
2.308382946256904766e+00
2.321133335367900674e+00
2.321133335367900674e+00
2.321133335367900674e+00
2.286069765312662039e+00
2.286069765312662039e+00
2.286069765312662039e+00
2.278944547868282378e+00
2.278944547868282378e+00
2.278944547868282378e+00
2.278944547868282378e+00
2.251006195257423848e+00
2.251006195257423848e+00
2.251006195257423848e+00
2.237130771813104602e+00
2.237130771813104602e+00
2.237130771813104602e+00
2.237130771813104602e+00
2.256818872646260132e+00
2.256818872646260132e+00
2.256818872646260132e+00
2.258693929868464956e+00
2.258693929868464956e+00
2.258693929868464956e+00
2.300695211645863214e+00
2.300695211645863214e+00
2.300695211645863214e+00
2.300695211645863214e+00
2.341383953367717208e+00
2.341383953367717208e+00
2.341383953367717208e+00
2.331071138645588459e+00
2.331071138645588459e+00
2.331071138645588459e+00
2.331071138645588459e+00
2.325445966978973100e+00
2.325445966978973100e+00
2.325445966978973100e+00
2.318133243812372069e+00
2.318133243812372069e+00
2.318133243812372069e+00
2.318133243812372069e+00
2.316070680867946319e+00
2.316070680867946319e+00
2.316070680867946319e+00
2.299007660145878429e+00
2.299007660145878429e+00
2.299007660145878429e+00
2.284944730979339145e+00
2.284944730979339145e+00
2.284944730979339145e+00
2.284944730979339145e+00
2.267319193090609808e+00
2.267319193090609808e+00
2.267319193090609808e+00
2.259631458479567812e+00
2.259631458479567812e+00
2.259631458479567812e+00
2.259631458479567812e+00
2.259256447035126847e+00
2.259256447035126847e+00
2.259256447035126847e+00
2.298070131534776017e+00
2.298070131534776017e+00
2.298070131534776017e+00
2.335758781701101849e+00
2.335758781701101849e+00
2.335758781701101849e+00
2.335758781701101849e+00
2.361447065645314147e+00
2.361447065645314147e+00
2.361447065645314147e+00
2.389197912533951751e+00
2.389197912533951751e+00
2.378135074922940628e+00
2.378135074922940628e+00
2.378135074922940628e+00
2.378135074922940628e+00
2.351884273812066883e+00
2.351884273812066883e+00
2.351884273812066883e+00
2.337071321756645670e+00
2.337071321756645670e+00
2.337071321756645670e+00
2.337071321756645670e+00
2.314758140812402942e+00
2.314758140812402942e+00
2.314758140812402942e+00
2.288882351145970162e+00
2.288882351145970162e+00
2.288882351145970162e+00
2.254006286812952009e+00
2.254006286812952009e+00
2.254006286812952009e+00
2.231505600146489243e+00
2.231505600146489243e+00
2.231505600146489243e+00
2.231505600146489243e+00
2.213692556535538980e+00
2.213692556535538980e+00
2.213692556535538980e+00
2.233568163090914993e+00
2.233568163090914993e+00
2.233568163090914993e+00
2.233568163090914993e+00
2.228693014313181120e+00
2.228693014313181120e+00
2.228693014313181120e+00
2.270131778923917043e+00
2.270131778923917043e+00
2.270131778923917043e+00
2.280632099368266719e+00
2.280632099368266719e+00
2.280632099368266719e+00
2.280632099368266719e+00
2.321508346812341639e+00
2.321508346812341639e+00
2.321508346812341639e+00
2.373822443311869090e+00
2.373822443311869090e+00
2.373822443311869090e+00
2.373822443311869090e+00
2.340633930478835278e+00
2.340633930478835278e+00
2.340633930478835278e+00
2.314008117923521013e+00
2.314008117923521013e+00
2.314008117923521013e+00
2.319633289590136371e+00
2.319633289590136371e+00
2.319633289590136371e+00
2.319633289590136371e+00
2.307257911923581428e+00
2.307257911923581428e+00
2.307257911923581428e+00
2.302195257423627517e+00
2.302195257423627517e+00
2.302195257423627517e+00
2.302195257423627517e+00
2.288694845423749680e+00
2.288694845423749680e+00
2.288694845423749680e+00
2.284382213812677254e+00
2.284382213812677254e+00
2.284382213812677254e+00
2.284382213812677254e+00
2.274444410534989469e+00
2.274444410534989469e+00
2.274444410534989469e+00
2.269381756035035114e+00
2.269381756035035114e+00
2.269381756035035114e+00
2.293757499923703591e+00
2.293757499923703591e+00
2.293757499923703591e+00
2.293757499923703591e+00
2.329383587145603673e+00
2.329383587145603673e+00
2.329383587145603673e+00
2.314008117923521013e+00
2.314008117923521013e+00
2.314008117923521013e+00
2.314008117923521013e+00
2.333508713034455617e+00
2.333508713034455617e+00
2.333508713034455617e+00
2.341571459089938134e+00
2.341571459089938134e+00
2.341571459089938134e+00
2.309507980590228104e+00
2.309507980590228104e+00
2.309507980590228104e+00
2.309507980590228104e+00
2.303507797479171337e+00
2.303507797479171337e+00
2.303507797479171337e+00
2.302570268868068482e+00
2.302570268868068482e+00
2.302570268868068482e+00
2.302570268868068482e+00
2.298257637256996500e+00
2.298257637256996500e+00
2.298257637256996500e+00
2.304257820368053267e+00
2.304257820368053267e+00
2.304257820368053267e+00
2.304257820368053267e+00
2.295070039979247412e+00
2.295070039979247412e+00
2.295070039979247412e+00
2.271256813257240381e+00
2.271256813257240381e+00
2.271256813257240381e+00
2.261131504257332114e+00
2.261131504257332114e+00
2.261131504257332114e+00
2.261131504257332114e+00
2.265819147312845505e+00
2.265819147312845505e+00
2.265819147312845505e+00
2.284944730979339145e+00
2.284944730979339145e+00
2.284944730979339145e+00
2.284944730979339145e+00
2.305945371868038052e+00
2.305945371868038052e+00
2.305945371868038052e+00
2.328258552812280335e+00
2.328258552812280335e+00
2.328258552812280335e+00
2.359947019867549844e+00
2.359947019867549844e+00
2.359947019867549844e+00
2.359947019867549844e+00
2.353196813867610704e+00
2.353196813867610704e+00
2.353196813867610704e+00
2.332383678701132279e+00
2.332383678701132279e+00
2.332383678701132279e+00
2.332383678701132279e+00
2.318133243812372069e+00
2.318133243812372069e+00
2.318133243812372069e+00
2.289257362590411127e+00
2.289257362590411127e+00
2.289257362590411127e+00
2.289257362590411127e+00
2.282694662312692468e+00
2.282694662312692468e+00
2.282694662312692468e+00
2.278007019257179522e+00
2.278007019257179522e+00
2.278007019257179522e+00
2.257756401257362544e+00
2.257756401257362544e+00
2.257756401257362544e+00
2.257756401257362544e+00
2.243880977813043742e+00
2.243880977813043742e+00
2.243880977813043742e+00
2.249318643757439062e+00
2.249318643757439062e+00
2.249318643757439062e+00
2.246693563646351421e+00
2.246693563646351421e+00
2.246693563646351421e+00
2.246693563646351421e+00
2.283257179479354360e+00
2.283257179479354360e+00
2.283257179479354360e+00
2.313445600756859122e+00
2.313445600756859122e+00
2.313445600756859122e+00
2.313445600756859122e+00
2.333883724478896582e+00
2.333883724478896582e+00
2.333883724478896582e+00
2.348696676534318240e+00
2.348696676534318240e+00
2.348696676534318240e+00
2.332946195867793726e+00
2.332946195867793726e+00
2.332946195867793726e+00
2.332946195867793726e+00
2.301070223090304623e+00
2.301070223090304623e+00
2.301070223090304623e+00
2.302007751701407035e+00
2.302007751701407035e+00
2.302007751701407035e+00
2.302007751701407035e+00
2.291694936979278285e+00
2.291694936979278285e+00
2.291694936979278285e+00
2.278757042146061895e+00
2.278757042146061895e+00
2.278757042146061895e+00
2.278757042146061895e+00
2.273131870479445649e+00
2.273131870479445649e+00
2.273131870479445649e+00
2.280257087923826198e+00
2.280257087923826198e+00
2.280257087923826198e+00
2.277444502090518075e+00
2.277444502090518075e+00
2.277444502090518075e+00
2.277444502090518075e+00
2.281007110812707683e+00
2.281007110812707683e+00
2.281007110812707683e+00
2.281007110812707683e+00
2.281007110812707683e+00
2.281007110812707683e+00
2.281007110812707683e+00
2.329008575701162709e+00
2.329008575701162709e+00
2.329008575701162709e+00
2.342696493423261028e+00
2.342696493423261028e+00
2.342696493423261028e+00
2.368009765923032361e+00
2.368009765923032361e+00
2.368009765923032361e+00
2.368009765923032361e+00
2.371947386089663379e+00
2.371947386089663379e+00
2.371947386089663379e+00
2.332571184423352761e+00
2.332571184423352761e+00
2.332571184423352761e+00
2.332571184423352761e+00
2.318133243812372069e+00
2.318133243812372069e+00
2.318133243812372069e+00
2.297695120090334608e+00
2.297695120090334608e+00
2.297695120090334608e+00
2.274819421979430434e+00
2.274819421979430434e+00
2.274819421979430434e+00
2.274819421979430434e+00
2.261881527146214044e+00
2.261881527146214044e+00
2.261881527146214044e+00
2.269569261757255596e+00
2.269569261757255596e+00
2.269569261757255596e+00
2.269569261757255596e+00
2.288132328257088233e+00
2.288132328257088233e+00
2.288132328257088233e+00
2.267881710257271255e+00
2.267881710257271255e+00
2.267881710257271255e+00
2.267881710257271255e+00
2.258693929868464956e+00
2.258693929868464956e+00
2.258693929868464956e+00
2.288132328257088233e+00
2.288132328257088233e+00
2.288132328257088233e+00
2.313445600756859122e+00
2.313445600756859122e+00
2.313445600756859122e+00
2.313445600756859122e+00
2.318133243812372069e+00
2.318133243812372069e+00
2.318133243812372069e+00
2.341758964812158617e+00
2.341758964812158617e+00
2.341758964812158617e+00
2.341758964812158617e+00
2.351884273812066883e+00
2.351884273812066883e+00
2.351884273812066883e+00
2.319820795312356854e+00
2.319820795312356854e+00
2.319820795312356854e+00
2.309132969145787140e+00
2.309132969145787140e+00
2.309132969145787140e+00
2.309132969145787140e+00
2.289819879757073018e+00
2.289819879757073018e+00
2.289819879757073018e+00
2.306507889034699499e+00
2.306507889034699499e+00
2.306507889034699499e+00
2.306507889034699499e+00
2.320758323923459709e+00
2.320758323923459709e+00
2.320758323923459709e+00
2.301445234534745587e+00
2.301445234534745587e+00
2.301445234534745587e+00
2.288882351145970162e+00
2.288882351145970162e+00
2.288882351145970162e+00
2.288882351145970162e+00
2.285882259590441556e+00
2.285882259590441556e+00
2.285882259590441556e+00
2.270506790368358452e+00
2.270506790368358452e+00
2.270506790368358452e+00
2.270506790368358452e+00
2.275756950590533290e+00
2.275756950590533290e+00
2.275756950590533290e+00
2.273881893368328022e+00
2.273881893368328022e+00
2.273881893368328022e+00
2.298445142979216982e+00
2.298445142979216982e+00
2.298445142979216982e+00
2.298445142979216982e+00
2.316258186590166801e+00
2.316258186590166801e+00
2.316258186590166801e+00
2.295445051423688376e+00
2.295445051423688376e+00
2.295445051423688376e+00
2.295445051423688376e+00
2.286257271034882521e+00
2.286257271034882521e+00
2.286257271034882521e+00
2.308195440534684284e+00
2.308195440534684284e+00
2.308195440534684284e+00
2.303695303201391820e+00
2.303695303201391820e+00
2.303695303201391820e+00
2.303695303201391820e+00
2.295070039979247412e+00
2.295070039979247412e+00
2.295070039979247412e+00
2.280069582201605716e+00
2.280069582201605716e+00
2.280069582201605716e+00
2.280069582201605716e+00
2.275194433423871843e+00
2.275194433423871843e+00
2.275194433423871843e+00
2.266944181646168399e+00
2.266944181646168399e+00
2.266944181646168399e+00
2.268631733146153184e+00
2.268631733146153184e+00
2.268631733146153184e+00
2.268631733146153184e+00
2.271069307535019899e+00
2.271069307535019899e+00
2.271069307535019899e+00
2.320945829645680192e+00
2.320945829645680192e+00
2.320945829645680192e+00
2.320945829645680192e+00
2.339696401867732423e+00
2.339696401867732423e+00
2.339696401867732423e+00
2.372134891811884305e+00
2.372134891811884305e+00
2.372134891811884305e+00
2.372134891811884305e+00
2.373822443311869090e+00
2.373822443311869090e+00
2.373822443311869090e+00
2.354321848200934042e+00
2.354321848200934042e+00
2.354321848200934042e+00
2.312133060701315301e+00
2.312133060701315301e+00
2.312133060701315301e+00
2.312133060701315301e+00
2.286632282479323930e+00
2.286632282479323930e+00
2.286632282479323930e+00
2.259068941312906365e+00
2.259068941312906365e+00
2.259068941312906365e+00
2.259068941312906365e+00
2.244068483535264225e+00
2.244068483535264225e+00
2.244068483535264225e+00
2.255693838312936794e+00
2.255693838312936794e+00
2.255693838312936794e+00
2.273319376201666131e+00
2.273319376201666131e+00
2.273319376201666131e+00
2.273319376201666131e+00
2.242943449201941331e+00
2.242943449201941331e+00
2.242943449201941331e+00
2.271444318979460864e+00
2.271444318979460864e+00
2.271444318979460864e+00
2.271444318979460864e+00
2.299945188756981285e+00
2.299945188756981285e+00
2.299945188756981285e+00
2.332196172978911797e+00
2.332196172978911797e+00
2.332196172978911797e+00
2.332196172978911797e+00
2.342133976256599581e+00
2.342133976256599581e+00
2.342133976256599581e+00
2.369697317423017147e+00
2.369697317423017147e+00
2.369697317423017147e+00
2.373822443311869090e+00
2.373822443311869090e+00
2.373822443311869090e+00
2.373822443311869090e+00
2.335571275978881367e+00
2.335571275978881367e+00
2.335571275978881367e+00
2.330133610034486047e+00
2.330133610034486047e+00
2.330133610034486047e+00
2.330133610034486047e+00
2.302570268868068482e+00
2.302570268868068482e+00
2.302570268868068482e+00
2.277256996368297592e+00
2.277256996368297592e+00
2.277256996368297592e+00
2.282882168034912951e+00
2.282882168034912951e+00
2.282882168034912951e+00
2.282882168034912951e+00
2.264319101535081202e+00
2.264319101535081202e+00
2.264319101535081202e+00
2.270694296090578934e+00
2.270694296090578934e+00
2.270694296090578934e+00
2.270694296090578934e+00
2.241818414868617992e+00
2.241818414868617992e+00
2.241818414868617992e+00
2.232630634479812137e+00
2.232630634479812137e+00
2.232630634479812137e+00
2.253443769646290562e+00
2.253443769646290562e+00
2.253443769646290562e+00
2.253443769646290562e+00
2.255693838312936794e+00
2.255693838312936794e+00
2.255693838312936794e+00
2.287194799645985377e+00
2.287194799645985377e+00
2.287194799645985377e+00
2.287194799645985377e+00
2.351509262367625919e+00
2.351509262367625919e+00
2.351509262367625919e+00
2.355071871089815971e+00
2.355071871089815971e+00
2.355071871089815971e+00
2.338383861812189490e+00
2.338383861812189490e+00
2.338383861812189490e+00
2.338383861812189490e+00
2.333133701590014208e+00
2.333133701590014208e+00
2.333133701590014208e+00
2.330133610034486047e+00
2.330133610034486047e+00
2.330133610034486047e+00
2.330133610034486047e+00
2.320570818201239227e+00
2.320570818201239227e+00
2.320570818201239227e+00
2.289069856868190644e+00
2.289069856868190644e+00
2.289069856868190644e+00
2.289069856868190644e+00
2.285507248146000592e+00
2.285507248146000592e+00
2.285507248146000592e+00
2.285882259590441556e+00
2.285882259590441556e+00
2.285882259590441556e+00
2.260193975646229259e+00
2.260193975646229259e+00
2.260193975646229259e+00
2.260193975646229259e+00
2.260568987090670667e+00
2.260568987090670667e+00
2.260568987090670667e+00
2.289632374034852091e+00
2.289632374034852091e+00
2.289632374034852091e+00
2.289632374034852091e+00
2.335196264534440402e+00
2.335196264534440402e+00
2.335196264534440402e+00
2.394823084200567997e+00
2.394823084200567997e+00
2.394823084200567997e+00
2.403073335978270997e+00
2.403073335978270997e+00
2.403073335978270997e+00
2.403073335978270997e+00
2.364447157200842309e+00
2.364447157200842309e+00
2.364447157200842309e+00
2.340633930478835278e+00
2.340633930478835278e+00
2.340633930478835278e+00
2.340633930478835278e+00
2.304257820368053267e+00
2.304257820368053267e+00
2.304257820368053267e+00
2.248756126590777171e+00
2.248756126590777171e+00
2.248756126590777171e+00
2.248756126590777171e+00
2.216692648091067142e+00
2.216692648091067142e+00
2.216692648091067142e+00
2.239943357646412725e+00
2.239943357646412725e+00
2.239943357646412725e+00
2.237880794701986531e+00
2.237880794701986531e+00
2.237880794701986531e+00
2.237880794701986531e+00
2.189879329813531950e+00
2.189879329813531950e+00
2.189879329813531950e+00
2.223817865535447247e+00
2.223817865535447247e+00
2.223817865535447247e+00
2.223817865535447247e+00
2.292632465590380253e+00
2.292632465590380253e+00
2.292632465590380253e+00
2.332196172978911797e+00
2.332196172978911797e+00
2.332196172978911797e+00
2.359759514145329362e+00
2.359759514145329362e+00
2.359759514145329362e+00
2.359759514145329362e+00
2.391072969756157018e+00
2.391072969756157018e+00
2.391072969756157018e+00
2.376822534867396808e+00
2.376822534867396808e+00
2.376822534867396808e+00
2.376822534867396808e+00
2.328071047090059853e+00
2.328071047090059853e+00
2.328071047090059853e+00
2.289257362590411127e+00
2.289257362590411127e+00
2.289257362590411127e+00
2.289257362590411127e+00
2.225317911313211550e+00
2.225317911313211550e+00
2.225317911313211550e+00
2.213692556535538980e+00
2.213692556535538980e+00
2.213692556535538980e+00
2.268819238868374111e+00
2.268819238868374111e+00
2.268819238868374111e+00
2.268819238868374111e+00
2.281382122257148648e+00
2.281382122257148648e+00
2.281382122257148648e+00
2.289819879757073018e+00
2.289819879757073018e+00
2.289819879757073018e+00
2.289819879757073018e+00
2.285319742423780109e+00
2.285319742423780109e+00
2.285319742423780109e+00
2.290569902645954947e+00
2.290569902645954947e+00
2.290569902645954947e+00
2.324320932645649762e+00
2.324320932645649762e+00
2.324320932645649762e+00
2.324320932645649762e+00
2.359572008423108880e+00
2.359572008423108880e+00
2.359572008423108880e+00
2.371947386089663379e+00
2.371947386089663379e+00
2.371947386089663379e+00
2.371947386089663379e+00
2.387510361033966966e+00
2.387510361033966966e+00
2.387510361033966966e+00
2.372509903256325270e+00
2.372509903256325270e+00
2.372509903256325270e+00
2.334633747367778511e+00
2.334633747367778511e+00
2.334633747367778511e+00
2.334633747367778511e+00
2.306695394756919981e+00
2.306695394756919981e+00
2.306695394756919981e+00
2.277632007812738557e+00
2.277632007812738557e+00
2.277632007812738557e+00
2.277632007812738557e+00
2.258131412701803509e+00
2.258131412701803509e+00
2.258131412701803509e+00
2.239568346201971760e+00
2.239568346201971760e+00
2.239568346201971760e+00
2.239568346201971760e+00
2.238443311868648422e+00
2.238443311868648422e+00
2.236005737479781263e+00
2.236005737479781263e+00
2.235818231757560781e+00
2.235818231757560781e+00
2.246318552201910457e+00
2.294132511368144556e+00
2.294132511368144556e+00
2.311195532090212890e+00
2.339883907589953349e+00
2.339883907589953349e+00
2.359384502700888397e+00
2.359384502700888397e+00
2.361822077089755112e+00
2.319258278145695407e+00
2.319258278145695407e+00
2.330696127201147494e+00
2.330696127201147494e+00
2.301257728812525105e+00
2.278757042146061895e+00
2.278757042146061895e+00
2.290007385479293500e+00
2.290007385479293500e+00
2.319258278145695407e+00
2.254193792535172935e+00
2.254193792535172935e+00
2.250631183812982439e+00
2.250631183812982439e+00
2.268819238868374111e+00
2.299007660145878429e+00
2.299007660145878429e+00
2.326946012756737403e+00
2.341008941923276243e+00
2.341008941923276243e+00
2.354321848200934042e+00
2.354321848200934042e+00
2.332571184423352761e+00
2.299007660145878429e+00
2.299007660145878429e+00
2.302382763145847999e+00
2.302382763145847999e+00
2.298070131534776017e+00
2.289632374034852091e+00
2.289632374034852091e+00
2.249881160924100509e+00
2.249881160924100509e+00
2.215755119479964730e+00
2.219692739646595747e+00
2.234318185979796478e+00
2.234318185979796478e+00
2.282132145146031021e+00
2.316633198034607766e+00
2.316633198034607766e+00
2.323008392590105942e+00
2.323008392590105942e+00
2.354884365367595489e+00
2.366884731589709023e+00
2.366884731589709023e+00
2.362009582811975594e+00
2.362009582811975594e+00
2.365197180089724238e+00
2.356759422589800756e+00
2.356759422589800756e+00
2.322633381145664977e+00
2.309882992034669069e+00
2.309882992034669069e+00
2.280632099368266719e+00
2.280632099368266719e+00
2.242005920590838475e+00
2.215755119479964730e+00
2.215755119479964730e+00
2.206192327646717910e+00
2.206192327646717910e+00
2.247256080813012868e+00
2.330508621478927012e+00
2.330508621478927012e+00
2.346446607867672007e+00
2.346446607867672007e+00
2.377572557756279181e+00
2.350196722312082542e+00
2.350196722312082542e+00
2.317383220923490139e+00
2.317383220923490139e+00
2.310258003479110034e+00
2.296945097201452679e+00
2.296945097201452679e+00
2.281007110812707683e+00
2.282132145146031021e+00
2.282132145146031021e+00
2.274631916257209951e+00
2.274631916257209951e+00
2.274819421979430434e+00
2.254756309701834383e+00
2.254756309701834383e+00
2.282694662312692468e+00
2.282694662312692468e+00
2.314758140812402942e+00
2.325633472701193583e+00
2.325633472701193583e+00
2.331258644367808941e+00
2.331258644367808941e+00
2.321883358256782603e+00
2.305757866145817125e+00
2.305757866145817125e+00
2.294132511368144556e+00
2.275756950590533290e+00
2.275756950590533290e+00
2.302757774590289408e+00
2.293382488479262626e+00
2.293382488479262626e+00
2.338571367534409973e+00
2.338571367534409973e+00
2.332758690145573244e+00
2.321133335367900674e+00
2.321133335367900674e+00
2.318695760979033516e+00
2.306695394756919981e+00
2.306695394756919981e+00
2.304632831812494231e+00
2.304632831812494231e+00
2.295632557145908859e+00
2.326383495590075512e+00
2.326383495590075512e+00
2.331071138645588459e+00
2.331071138645588459e+00
2.295070039979247412e+00
2.284757225257118218e+00
2.284757225257118218e+00
2.285694753868221074e+00
2.285694753868221074e+00
2.272381847590563719e+00
2.238818323313089387e+00
2.238818323313089387e+00
2.233005645924253102e+00
2.233005645924253102e+00
2.257006378368480615e+00
2.233005645924253102e+00
2.233005645924253102e+00
2.218005188146610962e+00
2.262444044312875935e+00
2.262444044312875935e+00
2.298820154423657947e+00
2.298820154423657947e+00
2.362947111423078006e+00
2.447512192144535526e+00
2.447512192144535526e+00
2.395385601367229444e+00
2.395385601367229444e+00
2.355071871089815971e+00
2.329758598590044638e+00
2.329758598590044638e+00
2.287757316812646824e+00
2.287757316812646824e+00
2.230005554368724940e+00
2.202442213202307375e+00
2.202442213202307375e+00
2.216317636646626177e+00
2.250256172368541474e+00
2.250256172368541474e+00
2.281194616534928166e+00
2.281194616534928166e+00
2.310070497756889552e+00
2.341571459089938134e+00
2.341571459089938134e+00
2.313633106479079604e+00
2.313633106479079604e+00
2.354134342478713116e+00
2.396135624256111374e+00
2.396135624256111374e+00
2.343634022034363884e+00
2.343634022034363884e+00
2.276881984923856628e+00
2.272006836146122755e+00
2.272006836146122755e+00
2.269944273201696561e+00
2.269944273201696561e+00
2.257756401257362544e+00
2.260193975646229259e+00
2.260193975646229259e+00
2.287007293923764895e+00
2.268819238868374111e+00
2.268819238868374111e+00
2.272569353312784202e+00
2.272569353312784202e+00
2.289632374034852091e+00
2.306507889034699499e+00
2.306507889034699499e+00
2.297320108645893644e+00
2.311570543534653854e+00
2.311570543534653854e+00
2.328446058534500818e+00
2.328446058534500818e+00
2.335946287423322332e+00
2.372509903256325270e+00
2.372509903256325270e+00
2.370634846034120002e+00
2.370634846034120002e+00
2.352071779534287366e+00
2.317008209479048730e+00
2.317008209479048730e+00
2.209754936368907963e+00
2.209754936368907963e+00
2.171503769035920239e+00
2.185754203924680450e+00
2.185754203924680450e+00
2.242005920590838475e+00
2.287757316812646824e+00
2.287757316812646824e+00
2.314383129367961978e+00
2.314383129367961978e+00
2.337071321756645670e+00
2.385072786645100695e+00
2.385072786645100695e+00
2.387135349589526001e+00
2.387135349589526001e+00
2.340446424756614796e+00
2.325820978423414065e+00
2.325820978423414065e+00
2.296945097201452679e+00
2.296945097201452679e+00
2.291507431257057803e+00
2.259631458479567812e+00
2.259631458479567812e+00
2.227755485702078264e+00
2.238255806146427940e+00
2.238255806146427940e+00
2.236193243202001746e+00
2.236193243202001746e+00
2.227942991424298746e+00
2.282132145146031021e+00
2.282132145146031021e+00
2.362384594256416559e+00
2.362384594256416559e+00
2.387885372478407930e+00
2.421448896755882263e+00
2.421448896755882263e+00
2.384697775200659287e+00
2.384697775200659287e+00
2.354884365367595489e+00
2.332196172978911797e+00
2.332196172978911797e+00
2.258881435590685438e+00
2.258881435590685438e+00
2.248381115146336207e+00
2.221567796868801015e+00
2.221567796868801015e+00
2.233193151646474028e+00
2.233193151646474028e+00
2.222317819757682944e+00
2.242755943479720404e+00
2.242755943479720404e+00
2.283444685201574842e+00
2.301820245979186552e+00
2.301820245979186552e+00
2.337258827478866152e+00
2.337258827478866152e+00
2.368759788811914291e+00
2.386197820978423145e+00
2.386197820978423145e+00
2.352446790978728330e+00
2.352446790978728330e+00
2.315133152256843907e+00
2.285319742423780109e+00
2.285319742423780109e+00
2.319070772423474924e+00
2.319070772423474924e+00
2.315320657979064389e+00
2.298820154423657947e+00
2.298820154423657947e+00
2.233755668813135031e+00
2.201129673146763555e+00
2.201129673146763555e+00
2.224005371257667729e+00
2.224005371257667729e+00
2.290569902645954947e+00
2.339508896145511940e+00
2.339508896145511940e+00
2.332196172978911797e+00
2.332196172978911797e+00
2.308570451979125249e+00
2.310633014923550999e+00
2.310633014923550999e+00
2.310820520645771925e+00
2.310820520645771925e+00
2.303507797479171337e+00
2.236568254646443155e+00
2.236568254646443155e+00
2.275944456312753772e+00
2.275944456312753772e+00
2.306320383312479017e+00
2.275569444868312807e+00
2.275569444868312807e+00
2.290569902645954947e+00
2.242193426313058957e+00
2.242193426313058957e+00
2.258318918424023991e+00
2.258318918424023991e+00
2.255318826868495830e+00
2.317945738090151586e+00
2.317945738090151586e+00
2.357884456923124095e+00
2.357884456923124095e+00
2.415636219367045978e+00
2.431011688589129527e+00
2.431011688589129527e+00
2.396510635700552783e+00
2.396510635700552783e+00
2.359384502700888397e+00
2.216317636646626177e+00
2.216317636646626177e+00
2.241255897701956545e+00
2.289819879757073018e+00
2.289819879757073018e+00
2.297320108645893644e+00
2.297320108645893644e+00
2.215755119479964730e+00
2.208067384868923178e+00
2.208067384868923178e+00
2.229630542924283532e+00
2.229630542924283532e+00
2.209379924924466998e+00
2.213692556535538980e+00
2.213692556535538980e+00
2.294507522812585520e+00
2.341571459089938134e+00
2.341571459089938134e+00
2.369884823145237629e+00
2.369884823145237629e+00
2.347571642200994901e+00
2.312695577867977192e+00
2.312695577867977192e+00
2.224755394146549659e+00
2.224755394146549659e+00
2.171316263313699757e+00
2.260943998535111632e+00
2.260943998535111632e+00
2.359572008423108880e+00
2.359572008423108880e+00
2.320383312479018745e+00
2.271819330423901828e+00
2.271819330423901828e+00
2.317570726645710621e+00
2.317570726645710621e+00
2.354321848200934042e+00
2.359947019867549844e+00
2.359947019867549844e+00
2.423698965422528495e+00
2.367822260200811879e+00
2.367822260200811879e+00
2.329946104312265120e+00
2.329946104312265120e+00
2.297695120090334608e+00
2.252881252479629115e+00
2.252881252479629115e+00
2.272381847590563719e+00
2.272381847590563719e+00
2.294320017090365038e+00
2.213505050813318054e+00
2.213505050813318054e+00
2.197567064424573946e+00
2.197567064424573946e+00
2.146002990813928868e+00
2.172628803369243577e+00
2.172628803369243577e+00
2.288694845423749680e+00
2.288694845423749680e+00
2.346259102145451525e+00
2.401573290200506694e+00
2.401573290200506694e+00
2.474325510422071162e+00
2.471137913144322074e+00
2.471137913144322074e+00
2.364259651478621826e+00
2.364259651478621826e+00
2.331821161534470832e+00
2.279694570757164307e+00
2.279694570757164307e+00
2.241255897701956545e+00
2.241255897701956545e+00
2.228505508590960638e+00
2.245943540757469048e+00
2.245943540757469048e+00
2.251006195257423848e+00
2.251006195257423848e+00
2.251381206701864812e+00
2.294695028534806447e+00
2.294695028534806447e+00
2.320195806756797818e+00
2.337633838923307117e+00
2.337633838923307117e+00
2.338946378978850937e+00
2.338946378978850937e+00
2.321133335367900674e+00
2.247443586535233351e+00
2.247443586535233351e+00
2.287007293923764895e+00
2.287007293923764895e+00
2.286819788201544412e+00
2.227942991424298746e+00
2.227942991424298746e+00
2.243318460646382295e+00
2.243318460646382295e+00
2.303882808923612302e+00
2.305757866145817125e+00
2.305757866145817125e+00
2.376072511978514878e+00
2.260568987090670667e+00
2.260568987090670667e+00
2.323758415478988315e+00
2.323758415478988315e+00
2.268631733146153184e+00
2.275381939146092325e+00
2.275381939146092325e+00
2.365759697256386129e+00
2.365759697256386129e+00
2.378885097811823002e+00
2.334821253089998994e+00
2.334821253089998994e+00
2.218755211035493335e+00
2.218755211035493335e+00
2.209754936368907963e+00
2.244818506424146598e+00
2.244818506424146598e+00
2.318695760979033516e+00
2.344571550645466296e+00
2.344571550645466296e+00
2.359947019867549844e+00
2.359947019867549844e+00
2.263569078646198829e+00
2.230943082979827352e+00
2.230943082979827352e+00
2.306882900479140464e+00
2.306882900479140464e+00
2.299007660145878429e+00
2.293007477034821662e+00
2.293007477034821662e+00
2.336696310312204705e+00
2.336696310312204705e+00
2.299945188756981285e+00
2.303320291756950855e+00
2.303320291756950855e+00
2.361259559923093665e+00
2.361259559923093665e+00
2.357134434034241721e+00
2.317195715201269657e+00
2.317195715201269657e+00
2.282132145146031021e+00
2.282132145146031021e+00
2.303882808923612302e+00
2.230193060090945423e+00
2.230193060090945423e+00
2.161940977202673420e+00
2.163066011535996758e+00
2.163066011535996758e+00
2.335758781701101849e+00
2.335758781701101849e+00
2.489325968199713301e+00
2.458575029755546648e+00
2.458575029755546648e+00
2.457074983977782345e+00
2.457074983977782345e+00
2.413573656422620228e+00
2.378135074922940628e+00
2.378135074922940628e+00
2.296945097201452679e+00
2.212942533646656607e+00
2.212942533646656607e+00
2.217630176702169997e+00
2.217630176702169997e+00
2.218942716757713818e+00
2.193629444257942485e+00
2.193629444257942485e+00
2.091626331369976111e+00
2.091626331369976111e+00
2.136440198980682048e+00
2.191379375591296252e+00
2.191379375591296252e+00
2.216505142368846659e+00
2.216505142368846659e+00
2.239193334757530351e+00
2.358446974089785542e+00
2.358446974089785542e+00
2.368947294534135217e+00
2.368947294534135217e+00
2.370259834589678594e+00
2.319258278145695407e+00
2.319258278145695407e+00
2.327508529923398850e+00
2.295820062868129341e+00
2.295820062868129341e+00
2.300320200201422249e+00
2.300320200201422249e+00
2.306507889034699499e+00
2.329008575701162709e+00
2.329008575701162709e+00
2.315133152256843907e+00
2.315133152256843907e+00
2.280819605090487201e+00
2.344946562089907705e+00
2.344946562089907705e+00
2.315320657979064389e+00
2.315320657979064389e+00
2.257381389812921579e+00
2.358821985534226506e+00
2.358821985534226506e+00
2.295070039979247412e+00
2.295070039979247412e+00
2.312133060701315301e+00
2.291319925534837321e+00
2.291319925534837321e+00
2.321883358256782603e+00
2.324695944090090727e+00
2.324695944090090727e+00
2.306507889034699499e+00
2.306507889034699499e+00
2.320195806756797818e+00
2.325633472701193583e+00
2.325633472701193583e+00
2.248756126590777171e+00
2.248756126590777171e+00
2.235818231757560781e+00
2.227755485702078264e+00
2.227755485702078264e+00
2.298070131534776017e+00
2.298070131534776017e+00
2.379635120700704931e+00
2.299195165868098911e+00
2.299195165868098911e+00
2.280819605090487201e+00
2.370072328867458111e+00
2.370072328867458111e+00
2.354884365367595489e+00
2.354884365367595489e+00
2.323570909756767389e+00
2.300882717368083696e+00
2.300882717368083696e+00
2.320008301034577336e+00
2.320008301034577336e+00
2.253631275368511044e+00
2.263381572923978347e+00
2.263381572923978347e+00
2.281382122257148648e+00
2.281382122257148648e+00
2.361259559923093665e+00
2.371384868923001932e+00
2.371384868923001932e+00
2.295070039979247412e+00
2.295070039979247412e+00
2.224755394146549659e+00
2.213692556535538980e+00
2.213692556535538980e+00
2.201129673146763555e+00
2.348134159367656792e+00
2.348134159367656792e+00
2.379635120700704931e+00
2.379635120700704931e+00
2.402135807367168141e+00
2.303320291756950855e+00
2.303320291756950855e+00
2.226442945646534444e+00
2.226442945646534444e+00
2.208629902035584625e+00
2.165691091647083955e+00
2.165691091647083955e+00
2.223255348368785356e+00
2.223255348368785356e+00
2.337071321756645670e+00
2.371572374645222414e+00
2.371572374645222414e+00
2.397823175756096159e+00
2.397823175756096159e+00
2.380572649311807787e+00
2.334258735923337547e+00
2.334258735923337547e+00
2.295070039979247412e+00
2.295070039979247412e+00
2.275381939146092325e+00
2.263569078646198829e+00
2.263569078646198829e+00
2.251193700979644330e+00
2.211629993591112786e+00
2.211629993591112786e+00
2.259256447035126847e+00
2.259256447035126847e+00
2.386010315256203107e+00
2.424261482589190386e+00
2.424261482589190386e+00
2.185379192480239485e+00
2.185379192480239485e+00
2.215567613757744247e+00
2.348509170812097757e+00
2.348509170812097757e+00
2.341946470534379099e+00
2.362572099978637485e+00
2.362572099978637485e+00
2.357134434034241721e+00
2.357134434034241721e+00
2.249506149479659545e+00
2.300507705923642732e+00
2.300507705923642732e+00
2.289444868312631609e+00
2.289444868312631609e+00
2.287194799645985377e+00
2.231318094424268317e+00
2.231318094424268317e+00
2.231505600146489243e+00
2.279507065034943825e+00
2.279507065034943825e+00
2.318883266701254442e+00
2.318883266701254442e+00
2.375885006256294396e+00
2.477700613422040732e+00
2.477700613422040732e+00
2.334258735923337547e+00
2.334258735923337547e+00
2.242193426313058957e+00
2.244631000701926116e+00
2.244631000701926116e+00
2.336696310312204705e+00
2.336696310312204705e+00
2.216317636646626177e+00
2.380385143589587305e+00
2.380385143589587305e+00
2.422761436811426083e+00
2.422761436811426083e+00
2.383572740867336393e+00
2.337071321756645670e+00
2.337071321756645670e+00
2.298632648701437464e+00
2.298632648701437464e+00
2.286444776757103448e+00
2.174128849147007880e+00
2.174128849147007880e+00
2.298632648701437464e+00
2.278757042146061895e+00
2.278757042146061895e+00
2.261319009979552597e+00
2.261319009979552597e+00
2.306320383312479017e+00
2.332196172978911797e+00
2.332196172978911797e+00
2.300882717368083696e+00
2.300882717368083696e+00
2.292257454145939732e+00
2.343446516312143402e+00
2.343446516312143402e+00
2.386385326700643628e+00
2.386385326700643628e+00
2.371384868923001932e+00
2.285507248146000592e+00
2.285507248146000592e+00
2.172066286202582130e+00
2.172066286202582130e+00
2.123127292703024249e+00
2.107001800592058771e+00
2.107001800592058771e+00
2.165503585924863472e+00
2.268631733146153184e+00
2.268631733146153184e+00
2.388822901089510786e+00
2.388822901089510786e+00
2.362572099978637485e+00
2.304445326090273749e+00
2.304445326090273749e+00
2.396135624256111374e+00
2.396135624256111374e+00
2.412823633533738299e+00
2.396698141422773265e+00
2.396698141422773265e+00
2.358821985534226506e+00
2.358821985534226506e+00
2.246506057924130939e+00
2.215755119479964730e+00
2.215755119479964730e+00
2.253256263924070080e+00
2.253256263924070080e+00
2.199629627368999252e+00
2.163441022980437278e+00
2.163441022980437278e+00
2.235255714590899334e+00
2.265819147312845505e+00
2.265819147312845505e+00
2.347571642200994901e+00
2.347571642200994901e+00
2.353009308145390222e+00
2.485200842310861358e+00
2.485200842310861358e+00
2.413761162144840711e+00
2.413761162144840711e+00
2.267131687368389326e+00
2.253818781090731527e+00
2.253818781090731527e+00
2.258506424146244473e+00
2.258506424146244473e+00
2.223255348368785356e+00
2.176003906369212704e+00
2.176003906369212704e+00
2.436449354533524403e+00
2.451262306588946061e+00
2.451262306588946061e+00
2.317758232367931104e+00
2.317758232367931104e+00
2.055812738425855546e+00
2.054312692648091243e+00
2.054312692648091243e+00
2.433636768700216724e+00
2.433636768700216724e+00
2.522701986754967152e+00
2.472262947477644968e+00
2.472262947477644968e+00
2.386760338145085036e+00
2.386760338145085036e+00
2.276319467757194737e+00
2.215380108035523765e+00
2.215380108035523765e+00
2.282882168034912951e+00
2.282882168034912951e+00
2.202817224646748340e+00
2.247631092257453833e+00
2.247631092257453833e+00
2.464575212866603859e+00
2.256443861201819168e+00
2.256443861201819168e+00
2.305195348979155678e+00
2.305195348979155678e+00
2.308382946256904766e+00
2.370822351756340485e+00
2.370822351756340485e+00
2.373259926145207199e+00
2.373259926145207199e+00
2.173191320535905025e+00
2.136065187536240639e+00
2.136065187536240639e+00
2.308570451979125249e+00
2.340258919034394314e+00
2.340258919034394314e+00
2.370259834589678594e+00
2.370259834589678594e+00
2.260568987090670667e+00
2.184629169591357556e+00
2.184629169591357556e+00
2.133627613147373925e+00
2.133627613147373925e+00
2.281569627979369130e+00
2.373072420422986717e+00
2.373072420422986717e+00
2.399135715811639535e+00
2.399135715811639535e+00
2.278944547868282378e+00
2.331633655812249906e+00
2.331633655812249906e+00
2.439261940366832526e+00
2.439261940366832526e+00
2.510326609088412209e+00
2.474325510422071162e+00
2.474325510422071162e+00
2.356196905423139309e+00
2.291132419812616394e+00
2.291132419812616394e+00
2.277632007812738557e+00
2.277632007812738557e+00
2.195504501480147752e+00
2.131190038758506766e+00
2.131190038758506766e+00
2.010998870815149164e+00
2.010998870815149164e+00
2.074188299203466812e+00
2.403823358867152926e+00
2.403823358867152926e+00
2.275756950590533290e+00
2.275756950590533290e+00
2.322258369701224012e+00
2.417136265144810281e+00
2.417136265144810281e+00
2.369134800256355700e+00
2.369134800256355700e+00
2.389572923978392716e+00
2.378322580645161111e+00
2.378322580645161111e+00
2.414136173589282119e+00
2.129877498702963390e+00
2.129877498702963390e+00
1.987560655537583543e+00
1.987560655537583543e+00
2.089376262703329878e+00
2.389572923978392716e+00
2.389572923978392716e+00
2.609329630420849977e+00
2.609329630420849977e+00
2.482575762199774161e+00
2.250068666646320992e+00
2.250068666646320992e+00
2.235443220313119816e+00
2.367447248756370914e+00
2.367447248756370914e+00
2.415448713644825496e+00
2.415448713644825496e+00
2.209192419202246516e+00
2.117502121036408447e+00
2.117502121036408447e+00
2.174878872035889810e+00
2.174878872035889810e+00
2.307820429090243319e+00
2.482388256477553679e+00
2.482388256477553679e+00
2.516889309366130423e+00
2.516889309366130423e+00
2.538077455977050256e+00
2.084876125370036970e+00
2.084876125370036970e+00
1.908058229316080379e+00
1.908058229316080379e+00
1.918746055482650315e+00
2.322633381145664977e+00
2.322633381145664977e+00
2.419573839533677440e+00
2.451074800866725578e+00
2.451074800866725578e+00
2.499076265755180604e+00
2.499076265755180604e+00
2.514451734977264152e+00
2.308945463423566213e+00
2.308945463423566213e+00
2.324695944090090727e+00
2.324695944090090727e+00
2.465325235755485789e+00
2.375697500534073914e+00
2.375697500534073914e+00
2.446012146366771223e+00
2.446012146366771223e+00
2.397823175756096159e+00
2.237693288979766049e+00
2.237693288979766049e+00
1.959997314371166199e+00
1.959997314371166199e+00
1.951934568315683460e+00
2.395760612811670409e+00
2.395760612811670409e+00
2.070250679036835795e+00
1.759928708761864247e+00
1.759928708761864247e+00
2.143002899258400262e+00
2.143002899258400262e+00
2.322070863979003530e+00
2.736646015808588128e+00
2.736646015808588128e+00
2.696519791253395137e+00
2.696519791253395137e+00
2.449012237922299828e+00
2.064438001647999510e+00
2.064438001647999510e+00
2.087501205481124167e+00
2.087501205481124167e+00
2.204879787591174090e+00
2.422573931089205601e+00
2.422573931089205601e+00
2.353384319589831186e+00
2.353384319589831186e+00
2.398198187200537124e+00
2.283257179479354360e+00
2.283257179479354360e+00
2.294320017090365038e+00
2.183879146702475182e+00
2.175066377758110736e+00
2.175066377758110736e+00
2.159315897091586223e+00
2.437011871700186294e+00
2.437011871700186294e+00
2.396885647144993747e+00
2.396885647144993747e+00
2.242755943479720404e+00
2.144690450758385047e+00
2.144690450758385047e+00
2.286819788201544412e+00
2.286819788201544412e+00
2.595079195532090210e+00
2.604829493087557513e+00
2.604829493087557513e+00
2.363322122867518971e+00
2.363322122867518971e+00
2.122377269814142320e+00
2.117877132480849411e+00
2.117877132480849411e+00
2.183691640980254700e+00
2.183691640980254700e+00
2.193066927091281038e+00
2.451262306588946061e+00
2.451262306588946061e+00
2.426886562700277583e+00
2.146190496536149350e+00
2.146190496536149350e+00
2.075688344981231115e+00
2.075688344981231115e+00
2.487638416699728516e+00
2.473012970366527341e+00
2.473012970366527341e+00
2.521201940977202849e+00
2.521201940977202849e+00
2.521014435254982367e+00
2.433824274422437206e+00
2.433824274422437206e+00
2.353946836756492633e+00
2.353946836756492633e+00
2.077563402203436382e+00
2.085438642536698417e+00
2.085438642536698417e+00
2.255693838312936794e+00
2.297695120090334608e+00
2.297695120090334608e+00
2.135877681814020157e+00
2.135877681814020157e+00
2.244255989257484707e+00
2.345884090701010116e+00
2.345884090701010116e+00
2.338008850367748082e+00
2.338008850367748082e+00
2.213880062257759462e+00
1.968060060426648716e+00
1.968060060426648716e+00
2.183129123813593253e+00
2.451637318033387469e+00
2.451637318033387469e+00
2.368759788811914291e+00
2.481638233588671305e+00
2.481638233588671305e+00
2.535077364421521651e+00
2.271444318979460864e+00
2.271444318979460864e+00
2.160440931424909561e+00
2.160440931424909561e+00
2.307820429090243319e+00
2.232255623035371173e+00
2.232255623035371173e+00
2.320945829645680192e+00
2.320945829645680192e+00
2.191191869869075770e+00
2.314570635090182460e+00
2.314570635090182460e+00
2.594891689809869728e+00
2.594891689809869728e+00
2.438886928922391562e+00
2.358634479812006024e+00
2.358634479812006024e+00
2.318320749534592551e+00
2.216505142368846659e+00
2.216505142368846659e+00
2.115439558091983141e+00
2.115439558091983141e+00
2.150315622425000850e+00
2.182566606646931362e+00
2.182566606646931362e+00
2.250443678090761956e+00
2.250443678090761956e+00
2.071000701925717724e+00
2.588141483809930588e+00
2.588141483809930588e+00
2.539389996032593633e+00
2.539389996032593633e+00
2.086938688314462720e+00
2.298070131534776017e+00
2.298070131534776017e+00
2.604266975920896066e+00
2.713207800531022507e+00
2.713207800531022507e+00
2.354509353923154524e+00
2.354509353923154524e+00
2.155378276924954761e+00
2.104001709036531054e+00
2.104001709036531054e+00
2.236005737479781263e+00
2.236005737479781263e+00
2.335946287423322332e+00
2.387697866756187448e+00
2.387697866756187448e+00
2.377197546311838217e+00
2.377197546311838217e+00
2.495701162755211033e+00
2.127064912869655711e+00
2.127064912869655711e+00
2.155565782647175688e+00
2.155565782647175688e+00
1.968622577593310385e+00
2.179566515091402756e+00
2.179566515091402756e+00
2.479013153477584552e+00
2.201504684591204519e+00
2.201504684591204519e+00
2.156878322702719064e+00
2.156878322702719064e+00
2.234880703146458369e+00
2.474513016144291644e+00
2.474513016144291644e+00
2.443574571977904952e+00
2.443574571977904952e+00
2.361822077089755112e+00
2.227567979979857782e+00
2.227567979979857782e+00
2.483513290810876573e+00
2.278007019257179522e+00
2.278007019257179522e+00
2.246693563646351421e+00
2.246693563646351421e+00
2.123314798425245176e+00
2.169628711813714972e+00
2.169628711813714972e+00
2.487450910977508034e+00
2.487450910977508034e+00
2.636892971587267542e+00
2.311570543534653854e+00
2.311570543534653854e+00
2.272569353312784202e+00
2.272569353312784202e+00
2.250818689535202921e+00
2.300132694479201767e+00
2.300132694479201767e+00
2.133627613147373925e+00
2.133627613147373925e+00
2.261506515701773079e+00
2.159690908536027187e+00
2.159690908536027187e+00
2.157628345591601438e+00
2.328258552812280335e+00
2.328258552812280335e+00
2.270131778923917043e+00
2.270131778923917043e+00
2.288319833979308715e+00
2.570890957365642215e+00
2.570890957365642215e+00
2.432136722922452865e+00
2.432136722922452865e+00
2.502826380199591139e+00
2.535827387310404024e+00
2.535827387310404024e+00
2.103064180425428198e+00
2.103064180425428198e+00
2.019811639759514499e+00
2.173941343424787398e+00
2.173941343424787398e+00
2.343446516312143402e+00
2.343446516312143402e+00
2.378885097811823002e+00
2.566765831476790716e+00
2.566765831476790716e+00
2.348134159367656792e+00
2.365384685811944721e+00
2.365384685811944721e+00
2.266006653035065987e+00
2.266006653035065987e+00
2.082813562425611220e+00
2.193066927091281038e+00
2.193066927091281038e+00
2.273131870479445649e+00
2.273131870479445649e+00
2.189316812646870059e+00
2.187816766869105756e+00
2.187816766869105756e+00
2.248381115146336207e+00
2.248381115146336207e+00
2.626767662587359276e+00
2.527577135532700581e+00
2.527577135532700581e+00
2.266756675923947917e+00
2.266756675923947917e+00
2.387135349589526001e+00
2.471137913144322074e+00
2.471137913144322074e+00
2.382072695089572090e+00
2.371759880367442896e+00
2.371759880367442896e+00
2.194004455702383449e+00
2.194004455702383449e+00
2.274819421979430434e+00
2.233568163090914993e+00
2.233568163090914993e+00
2.144877956480605530e+00
2.144877956480605530e+00
2.141127842036194995e+00
2.295257545701467894e+00
2.295257545701467894e+00
2.191379375591296252e+00
2.191379375591296252e+00
2.284194708090456771e+00
2.326195989867855030e+00
2.326195989867855030e+00
2.114127018036439321e+00
2.114127018036439321e+00
2.242943449201941331e+00
2.507326517532883603e+00
2.507326517532883603e+00
2.493263588366343875e+00
2.366884731589709023e+00
2.366884731589709023e+00
2.306695394756919981e+00
2.306695394756919981e+00
2.400260750144962874e+00
2.491763542588580016e+00
2.491763542588580016e+00
2.409636036255989211e+00
2.409636036255989211e+00
2.288694845423749680e+00
2.206379833368938392e+00
2.206379833368938392e+00
1.985873104037598758e+00
1.985873104037598758e+00
2.163628528702658205e+00
2.253818781090731527e+00
2.253818781090731527e+00
2.464200201422162451e+00
2.464200201422162451e+00
2.432699240089114312e+00
2.371572374645222414e+00
2.371572374645222414e+00
2.312883083590197675e+00
2.312883083590197675e+00
2.400260750144962874e+00
2.268631733146153184e+00
2.268631733146153184e+00
2.323758415478988315e+00
2.308007934812463802e+00
2.308007934812463802e+00
2.241068391979735619e+00
2.241068391979735619e+00
2.324133426923429280e+00
2.296945097201452679e+00
2.296945097201452679e+00
2.274069399090548504e+00
2.274069399090548504e+00
2.365197180089724238e+00
2.282132145146031021e+00
2.282132145146031021e+00
2.297320108645893644e+00
2.308195440534684284e+00
2.308195440534684284e+00
2.198879604480116878e+00
2.198879604480116878e+00
2.425011505478072316e+00
2.240880886257515137e+00
2.240880886257515137e+00
2.434574297311319135e+00
2.434574297311319135e+00
2.321695852534562121e+00
2.187816766869105756e+00
2.187816766869105756e+00
2.367447248756370914e+00
2.367447248756370914e+00
2.558890591143528681e+00
2.149003082369457029e+00
2.149003082369457029e+00
2.104376720480972018e+00
2.104376720480972018e+00
2.295632557145908859e+00
2.158565874202703849e+00
2.158565874202703849e+00
2.443012054811243061e+00
2.557203039643543896e+00
2.557203039643543896e+00
2.410573564867091623e+00
2.410573564867091623e+00
2.163441022980437278e+00
2.084126102481154597e+00
2.084126102481154597e+00
2.222505325479903426e+00
2.222505325479903426e+00
2.190254341257972914e+00
2.148065553758354618e+00
2.148065553758354618e+00
2.111126926480910715e+00
2.111126926480910715e+00
2.514639240699484635e+00
2.660331186864833608e+00
2.660331186864833608e+00
2.353946836756492633e+00
2.353946836756492633e+00
2.316633198034607766e+00
2.328821069978942226e+00
2.328821069978942226e+00
2.309695486312448587e+00
2.315508163701284872e+00
2.315508163701284872e+00
2.215380108035523765e+00
2.215380108035523765e+00
2.322820886867885459e+00
2.417511276589251690e+00
2.417511276589251690e+00
2.536389904477065471e+00
2.536389904477065471e+00
2.500763817255165389e+00
2.265631641590625023e+00
2.265631641590625023e+00
2.142815393536179780e+00
2.142815393536179780e+00
2.090876308481094181e+00
2.240318369090853690e+00
2.240318369090853690e+00
2.284382213812677254e+00
2.284382213812677254e+00
2.231318094424268317e+00
2.185566698202459968e+00
2.185566698202459968e+00
2.409636036255989211e+00
2.517639332255012796e+00
2.517639332255012796e+00
2.572391003143406518e+00
2.572391003143406518e+00
2.332758690145573244e+00
2.206192327646717910e+00
2.206192327646717910e+00
2.289069856868190644e+00
2.289069856868190644e+00
2.269756767479476078e+00
2.192129398480178182e+00
2.192129398480178182e+00
2.175441389202551257e+00
2.175441389202551257e+00
2.352259285256507848e+00
2.305195348979155678e+00
2.305195348979155678e+00
2.250256172368541474e+00
2.250256172368541474e+00
2.334446241645558029e+00
2.273319376201666131e+00
2.273319376201666131e+00
2.326008484145634547e+00
2.413761162144840711e+00
2.413761162144840711e+00
2.458387524033326166e+00
2.458387524033326166e+00
2.389947935422834124e+00
2.259443952757347329e+00
2.259443952757347329e+00
2.266381664479506952e+00
2.266381664479506952e+00
2.288132328257088233e+00
2.402135807367168141e+00
2.402135807367168141e+00
2.203942258980071234e+00
2.203942258980071234e+00
2.094626422925504272e+00
2.196442030091250608e+00
2.196442030091250608e+00
2.461387615588854771e+00
2.461387615588854771e+00
2.425574022644734207e+00
2.381697683645130681e+00
2.381697683645130681e+00
2.332571184423352761e+00
2.251943723868526259e+00
2.251943723868526259e+00
2.319633289590136371e+00
2.319633289590136371e+00
2.260568987090670667e+00
2.409261024811548246e+00
2.409261024811548246e+00
2.271069307535019899e+00
2.271069307535019899e+00
2.127627430036317158e+00
2.109439374980925930e+00
2.109439374980925930e+00
2.102689168980987233e+00
2.102689168980987233e+00
2.351321756645405436e+00
2.473762993255409270e+00
2.473762993255409270e+00
2.453887386700033701e+00
2.481638233588671305e+00
2.481638233588671305e+00
2.367634754478591397e+00
2.367634754478591397e+00
2.290944914090395912e+00
2.164753563035981099e+00
2.260381481368449741e+00
2.260381481368449741e+00
2.275944456312753772e+00
2.275944456312753772e+00
2.389385418256172233e+00
2.431011688589129527e+00
2.431011688589129527e+00
2.432511734366893830e+00
2.432511734366893830e+00
2.382635212256233537e+00
2.286444776757103448e+00
2.286444776757103448e+00
2.201879696035645484e+00
2.197567064424573946e+00
2.197567064424573946e+00
2.234880703146458369e+00
2.234880703146458369e+00
2.153690725424969976e+00
2.390135441145054607e+00
2.390135441145054607e+00
2.627330179754020723e+00
2.627330179754020723e+00
2.505826471755119300e+00
2.323945921201208797e+00
2.323945921201208797e+00
2.139252784813989727e+00
2.139252784813989727e+00
2.232818140202032620e+00
2.330133610034486047e+00
2.330133610034486047e+00
2.335383770256660885e+00
2.335383770256660885e+00
2.263006561479537382e+00
1.981560472426526776e+00
1.981560472426526776e+00
2.056937772759178884e+00
2.192879421369060555e+00
2.192879421369060555e+00
2.331821161534470832e+00
2.331821161534470832e+00
2.671769035920285695e+00
2.540890041810357936e+00
2.540890041810357936e+00
2.464387707144383377e+00
2.464387707144383377e+00
2.391072969756157018e+00
2.300695211645863214e+00
2.300695211645863214e+00
2.310070497756889552e+00
2.310070497756889552e+00
2.343821527756584366e+00
2.324508438367870244e+00
2.324508438367870244e+00
2.231880611590930208e+00
2.204317270424512643e+00
2.204317270424512643e+00
2.172066286202582130e+00
2.237130771813104602e+00
2.237130771813104602e+00
2.330133610034486047e+00
2.330133610034486047e+00
2.256631366924039650e+00
2.297882625812555535e+00
2.297882625812555535e+00
2.410198553422650658e+00
2.354134342478713116e+00
2.354134342478713116e+00
2.320945829645680192e+00
2.320945829645680192e+00
2.335571275978881367e+00
2.353946836756492633e+00
2.353946836756492633e+00
2.526639606921598169e+00
2.526639606921598169e+00
2.436074343089083438e+00
2.071750724814600098e+00
2.071750724814600098e+00
1.905245643482772255e+00
1.905245643482772255e+00
2.210879970702230857e+00
2.283819696646015807e+00
2.283819696646015807e+00
2.467575304422132465e+00
2.467575304422132465e+00
2.292819971312600735e+00
2.336696310312204705e+00
2.336696310312204705e+00
2.394073061311685624e+00
2.496263679921872480e+00
2.496263679921872480e+00
2.407010956144902014e+00
2.407010956144902014e+00
2.375322489089632505e+00
2.316633198034607766e+00
2.316633198034607766e+00
2.252693746757408633e+00
2.252693746757408633e+00
2.217442670979949515e+00
2.215567613757744247e+00
2.215567613757744247e+00
2.111689443647572162e+00
2.034812097537156195e+00
2.034812097537156195e+00
2.416011230811487387e+00
2.416011230811487387e+00
2.546327707754753256e+00
2.530014709921567295e+00
2.530014709921567295e+00
2.450887295144505096e+00
2.450887295144505096e+00
2.290382396923734465e+00
2.190816858424634361e+00
2.190816858424634361e+00
2.378697592089602519e+00
2.378697592089602519e+00
2.319633289590136371e+00
2.240130863368633207e+00
2.240130863368633207e+00
2.250068666646320992e+00
2.250068666646320992e+00
2.248943632312997654e+00
2.289069856868190644e+00
2.289069856868190644e+00
2.303695303201391820e+00
2.368572283089693808e+00
2.368572283089693808e+00
2.380572649311807787e+00
2.380572649311807787e+00
2.337821344645527599e+00
2.393510544145024177e+00
2.393510544145024177e+00
2.423886471144749422e+00
2.423886471144749422e+00
2.336883816034425188e+00
2.218755211035493335e+00
2.218755211035493335e+00
2.168878688924833043e+00
2.168878688924833043e+00
2.272381847590563719e+00
2.258131412701803509e+00
2.258131412701803509e+00
2.272194341868343237e+00
2.319820795312356854e+00
2.319820795312356854e+00
2.321883358256782603e+00
2.321883358256782603e+00
2.347571642200994901e+00
2.356196905423139309e+00
2.356196905423139309e+00
2.264506607257301685e+00
2.264506607257301685e+00
2.287382305368205859e+00
2.309132969145787140e+00
2.309132969145787140e+00
2.457449995422223310e+00
2.457449995422223310e+00
2.272006836146122755e+00
2.295445051423688376e+00
2.295445051423688376e+00
2.230755577257606870e+00
2.331071138645588459e+00
2.331071138645588459e+00
2.293945005645924073e+00
2.293945005645924073e+00
2.251756218146305777e+00
2.167003631702627775e+00
2.167003631702627775e+00
2.245193517868587563e+00
2.245193517868587563e+00
2.357884456923124095e+00
2.409823541978209693e+00
2.409823541978209693e+00
2.333133701590014208e+00
2.333133701590014208e+00
2.373822443311869090e+00
2.318883266701254442e+00
2.318883266701254442e+00
2.376822534867396808e+00
2.376822534867396808e+00
2.414136173589282119e+00
2.108126834925382109e+00
2.108126834925382109e+00
2.254943815424054865e+00
2.254943815424054865e+00
2.334821253089998994e+00
2.440574480422376347e+00
2.440574480422376347e+00
2.409636036255989211e+00
2.337446333201086635e+00
2.337446333201086635e+00
2.207692373424482213e+00
2.207692373424482213e+00
2.187441755424664791e+00
2.238630817590868904e+00
2.238630817590868904e+00
2.314383129367961978e+00
2.314383129367961978e+00
2.458387524033326166e+00
2.316070680867946319e+00
2.316070680867946319e+00
2.335571275978881367e+00
2.335571275978881367e+00
2.330508621478927012e+00
2.364072145756401344e+00
2.364072145756401344e+00
2.413198644978179264e+00
2.413198644978179264e+00
2.285507248146000592e+00
2.180504043702505612e+00
2.180504043702505612e+00
2.229443037202063049e+00
2.283632190923795324e+00
2.283632190923795324e+00
2.199442121646778769e+00
2.199442121646778769e+00
2.419948850978118404e+00
2.347384136478774419e+00
2.347384136478774419e+00
2.305195348979155678e+00
2.305195348979155678e+00
2.298445142979216982e+00
2.336883816034425188e+00
2.336883816034425188e+00
2.299195165868098911e+00
2.299195165868098911e+00
2.437761894589068223e+00
2.485013336588640875e+00
2.485013336588640875e+00
2.325820978423414065e+00
2.325820978423414065e+00
2.284007202368236289e+00
2.230380565813165905e+00
2.230380565813165905e+00
2.263381572923978347e+00
2.208817407757805107e+00
2.208817407757805107e+00
2.227755485702078264e+00
2.227755485702078264e+00
2.298257637256996500e+00
2.302382763145847999e+00
2.302382763145847999e+00
2.369509811700796664e+00
2.369509811700796664e+00
2.374759971922971058e+00
2.376447523422955843e+00
2.376447523422955843e+00
2.329196081423383191e+00
2.329196081423383191e+00
2.159878414258247670e+00
2.206192327646717910e+00
2.206192327646717910e+00
2.311008026367992407e+00
2.311008026367992407e+00
2.474888027588732609e+00
2.369509811700796664e+00
2.369509811700796664e+00
2.295632557145908859e+00
2.344571550645466296e+00
2.344571550645466296e+00
2.246693563646351421e+00
2.246693563646351421e+00
2.256256355479598685e+00
2.227942991424298746e+00
2.227942991424298746e+00
2.407198461867122496e+00
2.407198461867122496e+00
2.429511642811365224e+00
2.344009033478804849e+00
2.344009033478804849e+00
2.242380932035279439e+00
2.210692464980010374e+00
2.210692464980010374e+00
2.302382763145847999e+00
2.302382763145847999e+00
2.258318918424023991e+00
2.256631366924039650e+00
2.256631366924039650e+00
2.406073427533799602e+00
2.406073427533799602e+00
2.373822443311869090e+00
2.203567247535630269e+00
2.203567247535630269e+00
2.158378368480483367e+00
2.158378368480483367e+00
2.296382580034791232e+00
2.424261482589190386e+00
2.424261482589190386e+00
2.469637867366557771e+00
2.469637867366557771e+00
2.435136814477980582e+00
2.339133884701071420e+00
2.339133884701071420e+00
2.313633106479079604e+00
2.313633106479079604e+00
2.273881893368328022e+00
2.263194067201757864e+00
2.263194067201757864e+00
2.219505233924375265e+00
2.328446058534500818e+00
2.328446058534500818e+00
2.312883083590197675e+00
2.312883083590197675e+00
2.150315622425000850e+00
2.258131412701803509e+00
2.258131412701803509e+00
2.292444959868159771e+00
2.292444959868159771e+00
2.348321665089877275e+00
2.365197180089724238e+00
2.365197180089724238e+00
2.311570543534653854e+00
2.311570543534653854e+00
2.257193884090700653e+00
2.417136265144810281e+00
2.417136265144810281e+00
2.319820795312356854e+00
2.319820795312356854e+00
2.369322305978576182e+00
2.281194616534928166e+00
2.281194616534928166e+00
2.226442945646534444e+00
2.253818781090731527e+00
2.253818781090731527e+00
2.305570360423596643e+00
2.305570360423596643e+00
2.401385784478286212e+00
2.318508255256813033e+00
2.318508255256813033e+00
2.290007385479293500e+00
2.290007385479293500e+00
2.274631916257209951e+00
2.283257179479354360e+00
2.283257179479354360e+00
2.378322580645161111e+00
2.378322580645161111e+00
2.280257087923826198e+00
2.402135807367168141e+00
2.402135807367168141e+00
2.451074800866725578e+00
2.316633198034607766e+00
2.316633198034607766e+00
2.318695760979033516e+00
2.318695760979033516e+00
2.265631641590625023e+00
2.260943998535111632e+00
2.260943998535111632e+00
2.209379924924466998e+00
2.209379924924466998e+00
2.289444868312631609e+00
2.258506424146244473e+00
2.258506424146244473e+00
2.383760246589556875e+00
2.383760246589556875e+00
2.342133976256599581e+00
2.403260841700491479e+00
2.403260841700491479e+00
2.334446241645558029e+00
2.262069032868434526e+00
2.262069032868434526e+00
2.324695944090090727e+00
2.324695944090090727e+00
2.316820703756828248e+00
2.321508346812341639e+00
2.321508346812341639e+00
2.210317453535568966e+00
2.210317453535568966e+00
2.300507705923642732e+00
2.331071138645588459e+00
2.331071138645588459e+00
2.296570085757011714e+00
2.296570085757011714e+00
2.284007202368236289e+00
2.290194891201513983e+00
2.290194891201513983e+00
2.354321848200934042e+00
2.354321848200934042e+00
2.334071230201117064e+00
2.372322397534104788e+00
2.372322397534104788e+00
2.399885738700521909e+00
2.399885738700521909e+00
2.327883541367839371e+00
2.237130771813104602e+00
2.237130771813104602e+00
2.219317728202154782e+00
2.279132053590502860e+00
2.279132053590502860e+00
2.323945921201208797e+00
2.323945921201208797e+00
2.326946012756737403e+00
2.279132053590502860e+00
2.279132053590502860e+00
2.282319650868251504e+00
2.275194433423871843e+00
2.275194433423871843e+00
2.323008392590105942e+00
2.323008392590105942e+00
2.288694845423749680e+00
2.384697775200659287e+00
2.384697775200659287e+00
2.457074983977782345e+00
2.457074983977782345e+00
2.383947752311777357e+00
2.374009949034089573e+00
2.374009949034089573e+00
2.358446974089785542e+00
2.226817957090975852e+00
2.226817957090975852e+00
2.014186468092898252e+00
2.014186468092898252e+00
2.207129856257820322e+00
2.333883724478896582e+00
2.333883724478896582e+00
2.329196081423383191e+00
2.329196081423383191e+00
2.355821893978697901e+00
2.330321115756706529e+00
2.330321115756706529e+00
2.278944547868282378e+00
2.278944547868282378e+00
2.289632374034852091e+00
2.328071047090059853e+00
2.328071047090059853e+00
2.330696127201147494e+00
2.330696127201147494e+00
2.345321573534348669e+00
2.362009582811975594e+00
2.362009582811975594e+00
2.353571825312051669e+00
2.314383129367961978e+00
2.314383129367961978e+00
2.241443403424177028e+00
2.241443403424177028e+00
2.255506332590716312e+00
2.243318460646382295e+00
2.243318460646382295e+00
2.279882076479384789e+00
2.279882076479384789e+00
2.293007477034821662e+00
2.345509079256569152e+00
2.345509079256569152e+00
2.335946287423322332e+00
2.335946287423322332e+00
2.370822351756340485e+00
2.378697592089602519e+00
2.378697592089602519e+00
2.306132877590258534e+00
2.306132877590258534e+00
2.330321115756706529e+00
2.383385235145115466e+00
2.383385235145115466e+00
2.287944822534867306e+00
2.287944822534867306e+00
2.185379192480239485e+00
2.188754295480208611e+00
2.188754295480208611e+00
2.340071413312173831e+00
2.393885555589465142e+00
2.393885555589465142e+00
2.295445051423688376e+00
2.295445051423688376e+00
2.226067934202093479e+00
2.274631916257209951e+00
2.274631916257209951e+00
2.340258919034394314e+00
2.340258919034394314e+00
2.382635212256233537e+00
2.486700888088625661e+00
2.486700888088625661e+00
2.409073519089327764e+00
2.409073519089327764e+00
2.224192876979888212e+00
2.264506607257301685e+00
2.264506607257301685e+00
2.278944547868282378e+00
2.278944547868282378e+00
2.301257728812525105e+00
2.337821344645527599e+00
2.337821344645527599e+00
2.351134250923184954e+00
2.272569353312784202e+00
2.272569353312784202e+00
2.244631000701926116e+00
2.244631000701926116e+00
2.249318643757439062e+00
2.356571916867580274e+00
2.356571916867580274e+00
2.382822717978454019e+00
2.382822717978454019e+00
2.367634754478591397e+00
2.360134525589770327e+00
2.360134525589770327e+00
2.329758598590044638e+00
2.329758598590044638e+00
2.306320383312479017e+00
2.262819055757316900e+00
2.262819055757316900e+00
2.267319193090609808e+00
2.267319193090609808e+00
2.170753746147038310e+00
2.183691640980254700e+00
2.183691640980254700e+00
2.324695944090090727e+00
2.324695944090090727e+00
2.361822077089755112e+00
2.374197454756310055e+00
2.374197454756310055e+00
2.313445600756859122e+00
2.274256904812768987e+00
2.274256904812768987e+00
2.331821161534470832e+00
2.331821161534470832e+00
2.374947477645191540e+00
2.374759971922971058e+00
2.374759971922971058e+00
2.349446699423200169e+00
2.349446699423200169e+00
2.339321390423291458e+00
2.274069399090548504e+00
2.274069399090548504e+00
2.239193334757530351e+00
2.239193334757530351e+00
2.274256904812768987e+00
2.302757774590289408e+00
2.302757774590289408e+00
2.303882808923612302e+00
2.303882808923612302e+00
2.263944090090640238e+00
2.270319284646137969e+00
2.270319284646137969e+00
2.287194799645985377e+00
2.317570726645710621e+00
2.317570726645710621e+00
2.302570268868068482e+00
2.302570268868068482e+00
2.346446607867672007e+00
2.332758690145573244e+00
2.332758690145573244e+00
2.366697225867488541e+00
2.366697225867488541e+00
2.330508621478927012e+00
2.245006012146367080e+00
2.245006012146367080e+00
2.241068391979735619e+00
2.237318277535325084e+00
2.237318277535325084e+00
2.235630726035340299e+00
2.235630726035340299e+00
2.331821161534470832e+00
2.378697592089602519e+00
2.378697592089602519e+00
2.299570177312540320e+00
2.299570177312540320e+00
2.284944730979339145e+00
2.375134983367412023e+00
2.375134983367412023e+00
2.389760429700613198e+00
2.389760429700613198e+00
2.404573381756035300e+00
2.338571367534409973e+00
2.338571367534409973e+00
2.327696035645618888e+00
2.327696035645618888e+00
2.354509353923154524e+00
2.309882992034669069e+00
2.309882992034669069e+00
2.270506790368358452e+00
2.270506790368358452e+00
2.266569170201727434e+00
2.259068941312906365e+00
2.259068941312906365e+00
2.257006378368480615e+00
2.229630542924283532e+00
2.229630542924283532e+00
2.235630726035340299e+00
2.235630726035340299e+00
2.369134800256355700e+00
2.372509903256325270e+00
2.372509903256325270e+00
2.393135532700583212e+00
2.393135532700583212e+00
2.368759788811914291e+00
2.314008117923521013e+00
2.314008117923521013e+00
2.328258552812280335e+00
2.328258552812280335e+00
2.340633930478835278e+00
2.315883175145725836e+00
2.315883175145725836e+00
2.242193426313058957e+00
2.242193426313058957e+00
2.245006012146367080e+00
2.306507889034699499e+00
2.306507889034699499e+00
2.214630085146641392e+00
2.246881069368571904e+00
2.246881069368571904e+00
2.327883541367839371e+00
2.327883541367839371e+00
2.396510635700552783e+00
2.363697134311959935e+00
2.363697134311959935e+00
2.366884731589709023e+00
2.366884731589709023e+00
2.327883541367839371e+00
2.308945463423566213e+00
2.308945463423566213e+00
2.290007385479293500e+00
2.290007385479293500e+00
2.194004455702383449e+00
2.298445142979216982e+00
2.298445142979216982e+00
2.273881893368328022e+00
2.273881893368328022e+00
2.334633747367778511e+00
2.353759331034272151e+00
2.353759331034272151e+00
2.309320474868007622e+00
2.285507248146000592e+00
2.285507248146000592e+00
2.339696401867732423e+00
2.339696401867732423e+00
2.307820429090243319e+00
2.332383678701132279e+00
2.332383678701132279e+00
2.346259102145451525e+00
2.346259102145451525e+00
2.335571275978881367e+00
2.359384502700888397e+00
2.359384502700888397e+00
2.352259285256507848e+00
2.352259285256507848e+00
2.340633930478835278e+00
2.256256355479598685e+00
2.256256355479598685e+00
2.178253975035859380e+00
2.178253975035859380e+00
2.182941618091372327e+00
2.263756584368419311e+00
2.263756584368419311e+00
2.299945188756981285e+00
2.299945188756981285e+00
2.358634479812006024e+00
2.331633655812249906e+00
2.331633655812249906e+00
2.295070039979247412e+00
2.298820154423657947e+00
2.298820154423657947e+00
2.367822260200811879e+00
2.367822260200811879e+00
2.359384502700888397e+00
2.368947294534135217e+00
2.368947294534135217e+00
2.341571459089938134e+00
2.341571459089938134e+00
2.320383312479018745e+00
2.299195165868098911e+00
2.299195165868098911e+00
2.295070039979247412e+00
2.295070039979247412e+00
2.290944914090395912e+00
2.266756675923947917e+00
2.266756675923947917e+00
2.269381756035035114e+00
2.269381756035035114e+00
2.287194799645985377e+00
2.313070589312418157e+00
2.313070589312418157e+00
2.366697225867488541e+00
2.299757683034760802e+00
2.299757683034760802e+00
2.200192144535660699e+00
2.200192144535660699e+00
2.221380291146580532e+00
2.351509262367625919e+00
2.351509262367625919e+00
2.345321573534348669e+00
2.345321573534348669e+00
2.346821619312112972e+00
2.275006927701650916e+00
2.275006927701650916e+00
2.249318643757439062e+00
2.364447157200842309e+00
2.364447157200842309e+00
2.269194250312814631e+00
2.269194250312814631e+00
2.272756859035004684e+00
2.287194799645985377e+00
2.287194799645985377e+00
2.323008392590105942e+00
2.323008392590105942e+00
2.380760155034028269e+00
2.410761070589312105e+00
2.410761070589312105e+00
2.409261024811548246e+00
2.409261024811548246e+00
2.365009674367503756e+00
2.301257728812525105e+00
2.301257728812525105e+00
2.286632282479323930e+00
2.286632282479323930e+00
2.269756767479476078e+00
2.251193700979644330e+00
2.251193700979644330e+00
2.265069124423963132e+00
2.265069124423963132e+00
2.272944364757225166e+00
2.264506607257301685e+00
2.264506607257301685e+00
2.313820612201300086e+00
2.340633930478835278e+00
2.340633930478835278e+00
2.363697134311959935e+00
2.363697134311959935e+00
2.366509720145268059e+00
2.349634205145421095e+00
2.349634205145421095e+00
2.323570909756767389e+00
2.323570909756767389e+00
2.284382213812677254e+00
2.276881984923856628e+00
2.276881984923856628e+00
2.242005920590838475e+00
2.242005920590838475e+00
2.236568254646443155e+00
2.305382854701376161e+00
2.305382854701376161e+00
2.308007934812463802e+00
2.308007934812463802e+00
2.309507980590228104e+00
2.349634205145421095e+00
2.349634205145421095e+00
2.322070863979003530e+00
2.322070863979003530e+00
2.325633472701193583e+00
2.316445692312387283e+00
2.316445692312387283e+00
2.314758140812402942e+00
2.327883541367839371e+00
2.327883541367839371e+00
2.348696676534318240e+00
2.348696676534318240e+00
2.334071230201117064e+00
2.328071047090059853e+00
2.328071047090059853e+00
2.336321298867763296e+00
2.336321298867763296e+00
2.323945921201208797e+00
2.306507889034699499e+00
2.306507889034699499e+00
2.289632374034852091e+00
2.289632374034852091e+00
2.239193334757530351e+00
2.250443678090761956e+00
2.250443678090761956e+00
2.272006836146122755e+00
2.298820154423657947e+00
2.298820154423657947e+00
2.350571733756523507e+00
2.350571733756523507e+00
2.352821802423169739e+00
2.288882351145970162e+00
2.288882351145970162e+00
2.276694479201635701e+00
2.276694479201635701e+00
2.336508804589983779e+00
2.346071596423230599e+00
2.346071596423230599e+00
2.289257362590411127e+00
2.289257362590411127e+00
2.264319101535081202e+00
2.270694296090578934e+00
2.270694296090578934e+00
2.286632282479323930e+00
2.310633014923550999e+00
2.310633014923550999e+00
2.294507522812585520e+00
2.294507522812585520e+00
2.274631916257209951e+00
2.315508163701284872e+00
2.315508163701284872e+00
2.376447523422955843e+00
2.376447523422955843e+00
2.224942899868770141e+00
2.240880886257515137e+00
2.240880886257515137e+00
2.360697042756431774e+00
2.360697042756431774e+00
2.433074251533554833e+00
2.349071687978759204e+00
2.349071687978759204e+00
2.290007385479293500e+00
2.290007385479293500e+00
2.272756859035004684e+00
2.304445326090273749e+00
2.304445326090273749e+00
2.299570177312540320e+00
2.299570177312540320e+00
2.271069307535019899e+00
2.307445417645802355e+00
2.307445417645802355e+00
2.312133060701315301e+00
2.348696676534318240e+00
2.348696676534318240e+00
2.380572649311807787e+00
2.380572649311807787e+00
2.383197729422894984e+00
2.363134617145298488e+00
2.363134617145298488e+00
2.296382580034791232e+00
2.296382580034791232e+00
2.225692922757652514e+00
2.256818872646260132e+00
2.292257454145939732e+00
2.292257454145939732e+00
2.252131229590746742e+00
2.336321298867763296e+00
2.336321298867763296e+00
2.375509994811853431e+00
2.375509994811853431e+00
2.285132236701559627e+00
2.259256447035126847e+00
2.259256447035126847e+00
2.310070497756889552e+00
2.310070497756889552e+00
2.338571367534409973e+00
2.338196356089969008e+00
2.338196356089969008e+00
2.315508163701284872e+00
2.315508163701284872e+00
2.294132511368144556e+00
2.265819147312845505e+00
2.265819147312845505e+00
2.249131138035218136e+00
2.249131138035218136e+00
2.315133152256843907e+00
2.328446058534500818e+00
2.328446058534500818e+00
2.343259010589922919e+00
2.340258919034394314e+00
2.340258919034394314e+00
2.264131595812860720e+00
2.264131595812860720e+00
2.284007202368236289e+00
2.361634571367534630e+00
2.361634571367534630e+00
2.352259285256507848e+00
2.352259285256507848e+00
2.357884456923124095e+00
2.341383953367717208e+00
2.341383953367717208e+00
2.290007385479293500e+00
2.290007385479293500e+00
2.299007660145878429e+00
2.287194799645985377e+00
2.287194799645985377e+00
2.255881344035157721e+00
2.255881344035157721e+00
2.272569353312784202e+00
2.292819971312600735e+00
2.292819971312600735e+00
2.306695394756919981e+00
2.243693472090823260e+00
2.243693472090823260e+00
2.279694570757164307e+00
2.279694570757164307e+00
2.325258461256752618e+00
2.326008484145634547e+00
2.326008484145634547e+00
2.344009033478804849e+00
2.375322489089632505e+00
2.375322489089632505e+00
2.379260109256263966e+00
2.384697775200659287e+00
2.384697775200659287e+00
2.353009308145390222e+00
2.353009308145390222e+00
2.296382580034791232e+00
2.244255989257484707e+00
2.244255989257484707e+00
2.259068941312906365e+00
2.259068941312906365e+00
2.266006653035065987e+00
2.258318918424023991e+00
2.258318918424023991e+00
2.262819055757316900e+00
2.262819055757316900e+00
2.250068666646320992e+00
2.327133518478957885e+00
2.327133518478957885e+00
2.290194891201513983e+00
2.311195532090212890e+00
2.311195532090212890e+00
2.330133610034486047e+00
2.330133610034486047e+00
2.302570268868068482e+00
2.287007293923764895e+00
2.287007293923764895e+00
2.330883632923367976e+00
2.330883632923367976e+00
2.309320474868007622e+00
2.305945371868038052e+00
2.305945371868038052e+00
2.292819971312600735e+00
2.292819971312600735e+00
2.327321024201178368e+00
2.313820612201300086e+00
2.313820612201300086e+00
2.257381389812921579e+00
2.257381389812921579e+00
2.285319742423780109e+00
2.340258919034394314e+00
2.340258919034394314e+00
2.333883724478896582e+00
2.316070680867946319e+00
2.316070680867946319e+00
2.324320932645649762e+00
2.324320932645649762e+00
2.327321024201178368e+00
2.303882808923612302e+00
2.303882808923612302e+00
2.329196081423383191e+00
2.329196081423383191e+00
2.312695577867977192e+00
2.294132511368144556e+00
2.294132511368144556e+00
2.284569719534897736e+00
2.273881893368328022e+00
2.273881893368328022e+00
2.276131962034974254e+00
2.276131962034974254e+00
2.272756859035004684e+00
2.289632374034852091e+00
2.289632374034852091e+00
2.286819788201544412e+00
2.286819788201544412e+00
2.300695211645863214e+00
2.342696493423261028e+00
2.342696493423261028e+00
2.334071230201117064e+00
2.307257911923581428e+00
2.307257911923581428e+00
2.335571275978881367e+00
2.335571275978881367e+00
2.365947202978606612e+00
2.338571367534409973e+00
2.338571367534409973e+00
2.313820612201300086e+00
2.294882534257026929e+00
2.294882534257026929e+00
2.306882900479140464e+00
2.306882900479140464e+00
2.251381206701864812e+00
2.245568529313028083e+00
2.245568529313028083e+00
2.299570177312540320e+00
2.299570177312540320e+00
2.332758690145573244e+00
2.359196996978667915e+00
2.359196996978667915e+00
2.356384411145359792e+00
