2.327508529923398850e+00
2.327508529923398850e+00
2.357509445478682686e+00
2.357509445478682686e+00
2.357509445478682686e+00
2.357509445478682686e+00
2.374947477645191540e+00
2.374947477645191540e+00
2.374947477645191540e+00
2.367822260200811879e+00
2.367822260200811879e+00
2.367822260200811879e+00
2.345321573534348669e+00
2.345321573534348669e+00
2.345321573534348669e+00
2.345321573534348669e+00
2.338571367534409973e+00
2.338571367534409973e+00
2.338571367534409973e+00
2.318320749534592551e+00
2.318320749534592551e+00
2.318320749534592551e+00
2.318320749534592551e+00
2.307070406201360946e+00
2.307070406201360946e+00
2.307070406201360946e+00
2.295257545701467894e+00
2.295257545701467894e+00
2.295257545701467894e+00
2.295257545701467894e+00
2.267131687368389326e+00
2.267131687368389326e+00
2.267131687368389326e+00
2.240130863368633207e+00
2.240130863368633207e+00
2.240130863368633207e+00
2.217442670979949515e+00
2.217442670979949515e+00
2.217442670979949515e+00
2.217442670979949515e+00
2.189504318369090985e+00
2.189504318369090985e+00
2.189504318369090985e+00
2.254756309701834383e+00
2.254756309701834383e+00
2.254756309701834383e+00
2.254756309701834383e+00
2.307632923368022837e+00
2.307632923368022837e+00
2.307632923368022837e+00
2.352821802423169739e+00
2.352821802423169739e+00
2.352821802423169739e+00
2.352821802423169739e+00
2.386760338145085036e+00
2.386760338145085036e+00
2.386760338145085036e+00
2.368197271645252844e+00
2.368197271645252844e+00
2.368197271645252844e+00
2.334821253089998994e+00
2.334821253089998994e+00
2.334821253089998994e+00
2.334821253089998994e+00
2.334258735923337547e+00
2.334258735923337547e+00
2.334258735923337547e+00
2.309507980590228104e+00
2.309507980590228104e+00
2.309507980590228104e+00
2.309507980590228104e+00
2.288882351145970162e+00
2.288882351145970162e+00
2.288882351145970162e+00
2.282507156590471986e+00
2.282507156590471986e+00
2.282507156590471986e+00
2.282507156590471986e+00
2.268069215979491737e+00
2.268069215979491737e+00
2.268069215979491737e+00
2.244443494979705633e+00
2.244443494979705633e+00
2.244443494979705633e+00
2.244443494979705633e+00
2.218380199591051927e+00
2.218380199591051927e+00
2.218380199591051927e+00
2.234693197424237443e+00
2.234693197424237443e+00
2.234693197424237443e+00
2.303695303201391820e+00
2.303695303201391820e+00
2.328071047090059853e+00
2.328071047090059853e+00
2.328071047090059853e+00
2.328071047090059853e+00
2.376072511978514878e+00
2.376072511978514878e+00
2.376072511978514878e+00
2.376822534867396808e+00
2.376822534867396808e+00
2.376822534867396808e+00
2.376822534867396808e+00
2.357884456923124095e+00
2.357884456923124095e+00
2.357884456923124095e+00
2.338946378978850937e+00
2.338946378978850937e+00
2.338946378978850937e+00
2.338946378978850937e+00
2.323945921201208797e+00
2.323945921201208797e+00
2.323945921201208797e+00
2.292444959868159771e+00
2.292444959868159771e+00
2.292444959868159771e+00
2.288507339701529197e+00
2.288507339701529197e+00
2.288507339701529197e+00
2.288507339701529197e+00
2.272569353312784202e+00
2.272569353312784202e+00
2.272569353312784202e+00
2.271256813257240381e+00
2.271256813257240381e+00
2.271256813257240381e+00
2.271256813257240381e+00
2.259631458479567812e+00
2.259631458479567812e+00
2.259631458479567812e+00
2.234880703146458369e+00
2.234880703146458369e+00
2.234880703146458369e+00
2.269006744590594149e+00
2.269006744590594149e+00
2.269006744590594149e+00
2.269006744590594149e+00
2.322258369701224012e+00
2.322258369701224012e+00
2.349446699423200169e+00
2.349446699423200169e+00
2.349446699423200169e+00
2.373072420422986717e+00
2.373072420422986717e+00
2.373072420422986717e+00
2.381697683645130681e+00
2.381697683645130681e+00
2.381697683645130681e+00
2.356196905423139309e+00
2.356196905423139309e+00
2.356196905423139309e+00
2.356196905423139309e+00
2.332571184423352761e+00
2.332571184423352761e+00
2.332571184423352761e+00
2.304070314645832784e+00
2.304070314645832784e+00
2.304070314645832784e+00
2.304070314645832784e+00
2.283069673757133433e+00
2.283069673757133433e+00
2.283069673757133433e+00
2.276694479201635701e+00
2.276694479201635701e+00
2.276694479201635701e+00
2.276694479201635701e+00
2.259818964201788294e+00
2.259818964201788294e+00
2.259818964201788294e+00
2.260943998535111632e+00
2.260943998535111632e+00
2.260943998535111632e+00
2.235443220313119816e+00
2.235443220313119816e+00
2.235443220313119816e+00
2.235443220313119816e+00
2.225130405590991067e+00
2.225130405590991067e+00
2.225130405590991067e+00
2.282507156590471986e+00
2.282507156590471986e+00
2.282507156590471986e+00
2.282507156590471986e+00
2.322633381145664977e+00
2.322633381145664977e+00
2.322633381145664977e+00
2.365384685811944721e+00
2.365384685811944721e+00
2.365384685811944721e+00
2.392948026978362286e+00
2.392948026978362286e+00
2.392948026978362286e+00
2.392948026978362286e+00
2.383572740867336393e+00
2.383572740867336393e+00
2.383572740867336393e+00
2.363322122867518971e+00
2.363322122867518971e+00
2.363322122867518971e+00
2.363322122867518971e+00
2.346446607867672007e+00
2.346446607867672007e+00
2.346446607867672007e+00
2.317383220923490139e+00
2.317383220923490139e+00
2.317383220923490139e+00
2.305382854701376161e+00
2.305382854701376161e+00
2.305382854701376161e+00
2.305382854701376161e+00
2.286632282479323930e+00
2.286632282479323930e+00
2.286632282479323930e+00
2.260943998535111632e+00
2.260943998535111632e+00
2.260943998535111632e+00
2.260943998535111632e+00
2.242755943479720404e+00
2.242755943479720404e+00
2.242755943479720404e+00
2.218380199591051927e+00
2.218380199591051927e+00
2.218380199591051927e+00
2.216880153813287624e+00
2.216880153813287624e+00
2.216880153813287624e+00
2.216880153813287624e+00
2.279507065034943825e+00
2.279507065034943825e+00
2.279507065034943825e+00
2.310445509201330516e+00
2.310445509201330516e+00
2.310445509201330516e+00
2.310445509201330516e+00
2.352259285256507848e+00
2.352259285256507848e+00
2.352259285256507848e+00
2.374759971922971058e+00
2.374759971922971058e+00
2.374759971922971058e+00
2.363884640034180418e+00
2.363884640034180418e+00
2.363884640034180418e+00
2.363884640034180418e+00
2.347571642200994901e+00
2.347571642200994901e+00
2.347571642200994901e+00
2.334633747367778511e+00
2.334633747367778511e+00
2.334633747367778511e+00
2.334633747367778511e+00
2.305382854701376161e+00
2.305382854701376161e+00
2.291507431257057803e+00
2.291507431257057803e+00
2.291507431257057803e+00
2.271256813257240381e+00
2.271256813257240381e+00
2.271256813257240381e+00
2.271256813257240381e+00
2.254943815424054865e+00
2.254943815424054865e+00
2.254943815424054865e+00
2.249693655201880027e+00
2.249693655201880027e+00
2.249693655201880027e+00
2.229068025757622085e+00
2.229068025757622085e+00
2.229068025757622085e+00
2.229068025757622085e+00
2.253068758201849597e+00
2.253068758201849597e+00
2.253068758201849597e+00
2.326946012756737403e+00
2.326946012756737403e+00
2.326946012756737403e+00
2.353946836756492633e+00
2.353946836756492633e+00
2.353946836756492633e+00
2.353946836756492633e+00
2.377572557756279181e+00
2.377572557756279181e+00
2.377572557756279181e+00
2.375322489089632505e+00
2.375322489089632505e+00
2.375322489089632505e+00
2.375322489089632505e+00
2.356009399700918827e+00
2.356009399700918827e+00
2.356009399700918827e+00
2.329008575701162709e+00
2.329008575701162709e+00
2.329008575701162709e+00
2.304070314645832784e+00
2.304070314645832784e+00
2.304070314645832784e+00
2.304070314645832784e+00
2.286257271034882521e+00
2.286257271034882521e+00
2.286257271034882521e+00
2.275569444868312807e+00
2.275569444868312807e+00
2.275569444868312807e+00
2.275569444868312807e+00
2.250818689535202921e+00
2.250818689535202921e+00
2.250818689535202921e+00
2.252693746757408633e+00
2.252693746757408633e+00
2.252693746757408633e+00
2.213317545091097571e+00
2.213317545091097571e+00
2.213317545091097571e+00
2.213317545091097571e+00
2.200567155980101663e+00
2.200567155980101663e+00
2.200567155980101663e+00
2.247818597979674760e+00
2.247818597979674760e+00
2.247818597979674760e+00
2.364822168645283273e+00
2.364822168645283273e+00
2.364822168645283273e+00
2.364822168645283273e+00
2.373447431867427682e+00
2.373447431867427682e+00
2.373447431867427682e+00
2.391072969756157018e+00
2.391072969756157018e+00
2.391072969756157018e+00
2.391072969756157018e+00
2.373447431867427682e+00
2.373447431867427682e+00
2.373447431867427682e+00
2.337633838923307117e+00
2.337633838923307117e+00
2.337633838923307117e+00
2.337633838923307117e+00
2.319820795312356854e+00
2.319820795312356854e+00
2.319820795312356854e+00
2.307070406201360946e+00
2.307070406201360946e+00
2.307070406201360946e+00
2.287007293923764895e+00
2.287007293923764895e+00
2.287007293923764895e+00
2.287007293923764895e+00
2.276506973479415219e+00
2.276506973479415219e+00
2.276506973479415219e+00
2.269194250312814631e+00
2.269194250312814631e+00
2.269194250312814631e+00
2.269194250312814631e+00
2.270694296090578934e+00
2.270694296090578934e+00
2.270694296090578934e+00
2.245568529313028083e+00
2.245568529313028083e+00
2.245568529313028083e+00
2.236755760368663637e+00
2.236755760368663637e+00
2.236755760368663637e+00
2.236755760368663637e+00
2.294882534257026929e+00
2.294882534257026929e+00
2.294882534257026929e+00
2.327508529923398850e+00
2.327508529923398850e+00
2.327508529923398850e+00
2.327508529923398850e+00
2.364822168645283273e+00
2.364822168645283273e+00
2.364822168645283273e+00
2.379072603534043484e+00
2.379072603534043484e+00
2.379072603534043484e+00
2.379072603534043484e+00
2.370259834589678594e+00
2.370259834589678594e+00
2.370259834589678594e+00
2.340258919034394314e+00
2.340258919034394314e+00
2.340258919034394314e+00
2.315320657979064389e+00
2.315320657979064389e+00
2.315320657979064389e+00
2.315320657979064389e+00
2.287194799645985377e+00
2.287194799645985377e+00
2.287194799645985377e+00
2.275194433423871843e+00
2.275194433423871843e+00
2.275194433423871843e+00
2.275194433423871843e+00
2.259068941312906365e+00
2.259068941312906365e+00
2.259068941312906365e+00
2.246318552201910457e+00
2.246318552201910457e+00
2.246318552201910457e+00
2.246318552201910457e+00
2.246318552201910457e+00
2.246318552201910457e+00
2.246318552201910457e+00
2.226630451368755370e+00
2.226630451368755370e+00
2.226630451368755370e+00
2.240318369090853690e+00
2.240318369090853690e+00
2.240318369090853690e+00
2.240318369090853690e+00
2.318695760979033516e+00
2.318695760979033516e+00
2.318695760979033516e+00
2.349821710867641578e+00
2.349821710867641578e+00
2.349821710867641578e+00
2.381885189367351607e+00
2.381885189367351607e+00
2.381885189367351607e+00
2.381885189367351607e+00
2.392198004089480357e+00
2.392198004089480357e+00
2.392198004089480357e+00
2.370259834589678594e+00
2.370259834589678594e+00
2.370259834589678594e+00
2.370259834589678594e+00
2.344946562089907705e+00
2.344946562089907705e+00
2.344946562089907705e+00
2.317758232367931104e+00
2.317758232367931104e+00
2.317758232367931104e+00
2.291319925534837321e+00
2.291319925534837321e+00
2.291319925534837321e+00
2.291319925534837321e+00
2.284382213812677254e+00
2.284382213812677254e+00
2.284382213812677254e+00
2.263569078646198829e+00
2.263569078646198829e+00
2.263569078646198829e+00
2.263569078646198829e+00
2.262256538590655452e+00
2.262256538590655452e+00
2.262256538590655452e+00
2.248756126590777171e+00
2.248756126590777171e+00
2.248756126590777171e+00
2.230568071535386387e+00
2.230568071535386387e+00
2.230568071535386387e+00
2.230568071535386387e+00
2.257006378368480615e+00
2.257006378368480615e+00
2.257006378368480615e+00
2.320945829645680192e+00
2.320945829645680192e+00
2.320945829645680192e+00
2.320945829645680192e+00
2.347009125034333454e+00
2.347009125034333454e+00
2.347009125034333454e+00
2.388635395367290304e+00
2.388635395367290304e+00
2.388635395367290304e+00
2.391447981200597983e+00
2.391447981200597983e+00
2.391447981200597983e+00
2.391447981200597983e+00
2.360697042756431774e+00
2.360697042756431774e+00
2.360697042756431774e+00
2.334446241645558029e+00
2.334446241645558029e+00
2.334446241645558029e+00
2.334446241645558029e+00
2.299570177312540320e+00
2.299570177312540320e+00
2.299570177312540320e+00
2.283257179479354360e+00
2.283257179479354360e+00
2.283257179479354360e+00
2.283257179479354360e+00
2.272944364757225166e+00
2.272944364757225166e+00
2.272944364757225166e+00
2.258693929868464956e+00
2.258693929868464956e+00
2.258693929868464956e+00
2.256818872646260132e+00
2.256818872646260132e+00
2.256818872646260132e+00
2.256818872646260132e+00
2.244255989257484707e+00
2.244255989257484707e+00
2.244255989257484707e+00
2.232818140202032620e+00
2.232818140202032620e+00
2.232818140202032620e+00
2.232818140202032620e+00
2.282319650868251504e+00
2.282319650868251504e+00
2.282319650868251504e+00
2.332571184423352761e+00
2.332571184423352761e+00
2.332571184423352761e+00
2.368197271645252844e+00
2.368197271645252844e+00
2.368197271645252844e+00
2.368197271645252844e+00
2.396135624256111374e+00
2.396135624256111374e+00
2.396135624256111374e+00
2.383010223700674501e+00
2.383010223700674501e+00
2.383010223700674501e+00
2.383010223700674501e+00
2.356384411145359792e+00
2.356384411145359792e+00
2.356384411145359792e+00
2.331258644367808941e+00
2.331258644367808941e+00
2.331258644367808941e+00
2.331258644367808941e+00
2.295820062868129341e+00
2.295820062868129341e+00
2.295820062868129341e+00
2.281944639423810539e+00
2.281944639423810539e+00
2.281944639423810539e+00
2.271256813257240381e+00
2.271256813257240381e+00
2.271256813257240381e+00
2.271256813257240381e+00
2.272756859035004684e+00
2.272756859035004684e+00
2.272756859035004684e+00
2.274256904812768987e+00
2.274256904812768987e+00
2.274256904812768987e+00
2.274256904812768987e+00
2.246881069368571904e+00
2.246881069368571904e+00
2.246881069368571904e+00
2.248006103701895242e+00
2.248006103701895242e+00
2.248006103701895242e+00
2.317195715201269657e+00
2.317195715201269657e+00
2.317195715201269657e+00
2.317195715201269657e+00
2.341008941923276243e+00
2.341008941923276243e+00
2.341008941923276243e+00
2.356946928312021239e+00
2.356946928312021239e+00
2.356946928312021239e+00
2.356946928312021239e+00
2.371197363200781449e+00
2.371197363200781449e+00
2.371197363200781449e+00
2.351509262367625919e+00
2.351509262367625919e+00
2.351509262367625919e+00
2.317945738090151586e+00
2.317945738090151586e+00
2.317945738090151586e+00
2.317945738090151586e+00
2.293007477034821662e+00
2.293007477034821662e+00
2.293007477034821662e+00
2.275381939146092325e+00
2.275381939146092325e+00
2.275381939146092325e+00
2.275381939146092325e+00
2.291132419812616394e+00
2.291132419812616394e+00
2.291132419812616394e+00
2.278569536423841413e+00
2.278569536423841413e+00
2.278569536423841413e+00
2.278569536423841413e+00
2.257756401257362544e+00
2.257756401257362544e+00
2.257756401257362544e+00
2.252693746757408633e+00
2.252693746757408633e+00
2.252693746757408633e+00
2.214630085146641392e+00
2.214630085146641392e+00
2.214630085146641392e+00
2.214630085146641392e+00
2.229630542924283532e+00
2.229630542924283532e+00
2.229630542924283532e+00
2.306320383312479017e+00
2.306320383312479017e+00
2.306320383312479017e+00
2.306320383312479017e+00
2.324320932645649762e+00
2.324320932645649762e+00
2.324320932645649762e+00
2.355634388256477418e+00
2.355634388256477418e+00
2.355634388256477418e+00
2.355634388256477418e+00
2.374572466200750576e+00
2.374572466200750576e+00
2.374572466200750576e+00
2.366697225867488541e+00
2.366697225867488541e+00
2.366697225867488541e+00
2.353571825312051669e+00
2.353571825312051669e+00
2.353571825312051669e+00
2.353571825312051669e+00
2.321695852534562121e+00
2.321695852534562121e+00
2.321695852534562121e+00
2.293757499923703591e+00
2.293757499923703591e+00
2.293757499923703591e+00
2.293757499923703591e+00
2.279319559312723342e+00
2.279319559312723342e+00
2.279319559312723342e+00
2.255881344035157721e+00
2.255881344035157721e+00
2.255881344035157721e+00
2.255881344035157721e+00
2.257568895535142062e+00
2.257568895535142062e+00
2.257568895535142062e+00
2.238443311868648422e+00
2.238443311868648422e+00
2.238443311868648422e+00
2.214255073702200427e+00
2.214255073702200427e+00
2.214255073702200427e+00
2.214255073702200427e+00
2.260006469924008776e+00
2.260006469924008776e+00
2.260006469924008776e+00
2.323758415478988315e+00
2.323758415478988315e+00
2.323758415478988315e+00
2.323758415478988315e+00
2.347196630756553937e+00
2.347196630756553937e+00
2.347196630756553937e+00
2.385635303811762142e+00
2.385635303811762142e+00
2.385635303811762142e+00
2.380010132145145896e+00
2.380010132145145896e+00
2.380010132145145896e+00
2.380010132145145896e+00
2.355071871089815971e+00
2.355071871089815971e+00
2.355071871089815971e+00
2.327508529923398850e+00
2.327508529923398850e+00
2.327508529923398850e+00
2.327508529923398850e+00
2.299382671590319838e+00
2.299382671590319838e+00
2.299382671590319838e+00
2.284757225257118218e+00
2.284757225257118218e+00
2.284757225257118218e+00
2.284757225257118218e+00
2.277819513534959039e+00
2.277819513534959039e+00
2.277819513534959039e+00
2.260381481368449741e+00
2.260381481368449741e+00
2.260381481368449741e+00
2.253068758201849597e+00
2.253068758201849597e+00
2.253068758201849597e+00
2.253068758201849597e+00
2.237693288979766049e+00
2.237693288979766049e+00
2.237693288979766049e+00
2.233943174535355514e+00
2.233943174535355514e+00
2.233943174535355514e+00
2.233943174535355514e+00
2.289257362590411127e+00
2.289257362590411127e+00
2.289257362590411127e+00
2.327696035645618888e+00
2.327696035645618888e+00
2.327696035645618888e+00
2.365759697256386129e+00
2.365759697256386129e+00
2.365759697256386129e+00
2.365759697256386129e+00
2.392010498367259874e+00
2.392010498367259874e+00
2.392010498367259874e+00
2.376635029145176325e+00
2.376635029145176325e+00
2.376635029145176325e+00
2.346259102145451525e+00
2.346259102145451525e+00
2.346259102145451525e+00
2.346259102145451525e+00
2.331446150090029423e+00
2.331446150090029423e+00
2.331446150090029423e+00
2.307445417645802355e+00
2.307445417645802355e+00
2.307445417645802355e+00
2.307445417645802355e+00
2.294695028534806447e+00
2.294695028534806447e+00
2.294695028534806447e+00
2.286257271034882521e+00
2.286257271034882521e+00
2.286257271034882521e+00
2.271819330423901828e+00
2.271819330423901828e+00
2.271819330423901828e+00
2.271819330423901828e+00
2.266756675923947917e+00
2.266756675923947917e+00
2.266756675923947917e+00
2.234318185979796478e+00
2.234318185979796478e+00
2.234318185979796478e+00
2.234318185979796478e+00
2.238068300424207457e+00
2.238068300424207457e+00
2.238068300424207457e+00
2.301257728812525105e+00
2.301257728812525105e+00
2.301257728812525105e+00
2.301257728812525105e+00
2.323570909756767389e+00
2.323570909756767389e+00
2.323570909756767389e+00
2.361822077089755112e+00
2.361822077089755112e+00
2.361822077089755112e+00
2.375134983367412023e+00
2.375134983367412023e+00
2.375134983367412023e+00
2.375134983367412023e+00
2.358634479812006024e+00
2.358634479812006024e+00
2.358634479812006024e+00
2.334071230201117064e+00
2.334071230201117064e+00
2.334071230201117064e+00
2.334071230201117064e+00
2.319820795312356854e+00
2.319820795312356854e+00
2.319820795312356854e+00
2.295632557145908859e+00
2.295632557145908859e+00
2.295632557145908859e+00
2.295632557145908859e+00
2.291882442701498768e+00
2.291882442701498768e+00
2.291882442701498768e+00
2.276881984923856628e+00
2.276881984923856628e+00
2.276881984923856628e+00
2.273881893368328022e+00
2.273881893368328022e+00
2.273881893368328022e+00
2.273881893368328022e+00
2.269756767479476078e+00
2.269756767479476078e+00
2.269756767479476078e+00
2.259068941312906365e+00
2.259068941312906365e+00
2.259068941312906365e+00
2.259068941312906365e+00
2.266569170201727434e+00
2.266569170201727434e+00
2.266569170201727434e+00
2.326946012756737403e+00
2.326946012756737403e+00
2.326946012756737403e+00
2.326946012756737403e+00
2.344759056367687222e+00
2.344759056367687222e+00
2.344759056367687222e+00
2.374947477645191540e+00
2.374947477645191540e+00
2.374947477645191540e+00
2.359759514145329362e+00
2.359759514145329362e+00
2.359759514145329362e+00
2.359759514145329362e+00
2.326946012756737403e+00
2.326946012756737403e+00
2.326946012756737403e+00
2.304070314645832784e+00
2.304070314645832784e+00
2.304070314645832784e+00
2.304070314645832784e+00
2.288694845423749680e+00
2.288694845423749680e+00
2.288694845423749680e+00
2.281194616534928166e+00
2.281194616534928166e+00
2.281194616534928166e+00
2.281194616534928166e+00
2.275756950590533290e+00
2.275756950590533290e+00
2.275756950590533290e+00
2.268631733146153184e+00
2.268631733146153184e+00
2.268631733146153184e+00
2.271444318979460864e+00
2.271444318979460864e+00
2.271444318979460864e+00
2.271444318979460864e+00
2.259256447035126847e+00
2.259256447035126847e+00
2.259256447035126847e+00
2.248381115146336207e+00
2.248381115146336207e+00
2.248381115146336207e+00
2.248381115146336207e+00
2.290007385479293500e+00
2.290007385479293500e+00
2.290007385479293500e+00
2.336133793145542814e+00
2.336133793145542814e+00
2.336133793145542814e+00
2.372884914700766235e+00
2.372884914700766235e+00
2.372884914700766235e+00
2.372884914700766235e+00
2.406260933256020085e+00
2.406260933256020085e+00
2.406260933256020085e+00
2.389197912533951751e+00
2.389197912533951751e+00
2.389197912533951751e+00
2.389197912533951751e+00
2.348696676534318240e+00
2.348696676534318240e+00
2.348696676534318240e+00
2.313633106479079604e+00
2.313633106479079604e+00
2.313633106479079604e+00
2.313633106479079604e+00
2.281007110812707683e+00
2.281007110812707683e+00
2.281007110812707683e+00
2.276319467757194737e+00
2.276319467757194737e+00
2.276319467757194737e+00
2.261319009979552597e+00
2.261319009979552597e+00
2.261319009979552597e+00
2.261319009979552597e+00
2.257193884090700653e+00
2.257193884090700653e+00
2.257193884090700653e+00
2.266569170201727434e+00
2.266569170201727434e+00
2.266569170201727434e+00
2.266569170201727434e+00
2.219505233924375265e+00
2.219505233924375265e+00
2.219505233924375265e+00
2.209004913480026033e+00
2.209004913480026033e+00
2.209004913480026033e+00
2.261319009979552597e+00
2.261319009979552597e+00
2.261319009979552597e+00
2.261319009979552597e+00
2.301632740256966070e+00
2.301632740256966070e+00
2.301632740256966070e+00
2.362384594256416559e+00
2.362384594256416559e+00
2.362384594256416559e+00
2.362384594256416559e+00
2.387885372478407930e+00
2.387885372478407930e+00
2.387885372478407930e+00
2.377197546311838217e+00
2.377197546311838217e+00
2.377197546311838217e+00
2.377197546311838217e+00
2.340633930478835278e+00
2.340633930478835278e+00
2.340633930478835278e+00
2.323945921201208797e+00
2.323945921201208797e+00
2.323945921201208797e+00
2.295070039979247412e+00
2.295070039979247412e+00
2.295070039979247412e+00
2.295070039979247412e+00
2.282882168034912951e+00
2.282882168034912951e+00
2.282882168034912951e+00
2.290944914090395912e+00
2.290944914090395912e+00
2.290944914090395912e+00
2.290944914090395912e+00
2.274819421979430434e+00
2.274819421979430434e+00
2.274819421979430434e+00
2.254381298257393418e+00
2.254381298257393418e+00
2.254381298257393418e+00
2.254381298257393418e+00
2.228693014313181120e+00
2.228693014313181120e+00
2.228693014313181120e+00
2.237130771813104602e+00
2.237130771813104602e+00
2.237130771813104602e+00
2.309507980590228104e+00
2.309507980590228104e+00
2.309507980590228104e+00
2.309507980590228104e+00
2.338383861812189490e+00
2.338383861812189490e+00
2.338383861812189490e+00
2.385260292367321178e+00
2.385260292367321178e+00
2.385260292367321178e+00
2.385260292367321178e+00
2.395385601367229444e+00
2.395385601367229444e+00
2.395385601367229444e+00
2.353196813867610704e+00
2.353196813867610704e+00
2.353196813867610704e+00
2.329946104312265120e+00
2.329946104312265120e+00
2.329946104312265120e+00
2.329946104312265120e+00
2.318320749534592551e+00
2.318320749534592551e+00
2.318320749534592551e+00
2.307070406201360946e+00
2.307070406201360946e+00
2.307070406201360946e+00
2.307070406201360946e+00
2.292632465590380253e+00
2.292632465590380253e+00
2.292632465590380253e+00
2.280069582201605716e+00
2.280069582201605716e+00
2.280069582201605716e+00
2.290007385479293500e+00
2.290007385479293500e+00
2.290007385479293500e+00
2.290007385479293500e+00
2.260943998535111632e+00
2.260943998535111632e+00
2.260943998535111632e+00
2.233005645924253102e+00
2.233005645924253102e+00
2.233005645924253102e+00
2.233005645924253102e+00
2.259068941312906365e+00
2.259068941312906365e+00
2.259068941312906365e+00
2.296382580034791232e+00
2.296382580034791232e+00
2.296382580034791232e+00
2.296382580034791232e+00
2.323758415478988315e+00
2.323758415478988315e+00
2.323758415478988315e+00
2.380010132145145896e+00
2.380010132145145896e+00
2.380010132145145896e+00
2.364822168645283273e+00
2.364822168645283273e+00
2.364822168645283273e+00
2.364822168645283273e+00
2.338571367534409973e+00
2.338571367534409973e+00
2.338571367534409973e+00
2.318883266701254442e+00
2.318883266701254442e+00
2.318883266701254442e+00
2.297132602923673161e+00
2.297132602923673161e+00
2.297132602923673161e+00
2.297132602923673161e+00
2.278194524979400004e+00
2.278194524979400004e+00
2.278194524979400004e+00
2.278944547868282378e+00
2.278944547868282378e+00
2.278944547868282378e+00
2.278944547868282378e+00
2.291882442701498768e+00
2.291882442701498768e+00
2.291882442701498768e+00
2.291507431257057803e+00
2.291507431257057803e+00
2.291507431257057803e+00
2.291507431257057803e+00
2.246131046479689974e+00
2.246131046479689974e+00
2.246131046479689974e+00
2.241630909146397510e+00
2.241630909146397510e+00
2.241630909146397510e+00
2.291507431257057803e+00
2.291507431257057803e+00
2.291507431257057803e+00
2.291507431257057803e+00
2.327508529923398850e+00
2.327508529923398850e+00
2.327508529923398850e+00
2.372509903256325270e+00
2.372509903256325270e+00
2.372509903256325270e+00
2.372509903256325270e+00
2.396323129978331856e+00
2.396323129978331856e+00
2.396323129978331856e+00
2.364072145756401344e+00
2.364072145756401344e+00
2.364072145756401344e+00
2.340821436201055761e+00
2.340821436201055761e+00
2.340821436201055761e+00
2.340821436201055761e+00
2.321883358256782603e+00
2.321883358256782603e+00
2.321883358256782603e+00
2.270881801812799416e+00
2.270881801812799416e+00
2.270881801812799416e+00
2.270881801812799416e+00
2.236943266090884119e+00
2.236943266090884119e+00
2.236943266090884119e+00
2.235630726035340299e+00
2.235630726035340299e+00
2.235630726035340299e+00
2.256631366924039650e+00
2.256631366924039650e+00
2.256631366924039650e+00
2.256631366924039650e+00
2.279694570757164307e+00
2.279694570757164307e+00
2.279694570757164307e+00
2.258881435590685438e+00
2.258881435590685438e+00
2.258881435590685438e+00
2.258881435590685438e+00
2.255693838312936794e+00
2.255693838312936794e+00
2.255693838312936794e+00
2.319820795312356854e+00
2.319820795312356854e+00
2.319820795312356854e+00
2.319820795312356854e+00
2.348509170812097757e+00
2.348509170812097757e+00
2.348509170812097757e+00
2.394073061311685624e+00
2.394073061311685624e+00
2.394073061311685624e+00
2.389385418256172233e+00
2.389385418256172233e+00
2.389385418256172233e+00
2.389385418256172233e+00
2.374197454756310055e+00
2.374197454756310055e+00
2.374197454756310055e+00
2.338383861812189490e+00
2.338383861812189490e+00
2.338383861812189490e+00
2.338383861812189490e+00
2.326758507034516477e+00
2.326758507034516477e+00
2.326758507034516477e+00
2.311945554979094819e+00
2.311945554979094819e+00
2.311945554979094819e+00
2.311945554979094819e+00
2.312508072145756710e+00
2.312508072145756710e+00
2.312508072145756710e+00
2.298257637256996500e+00
2.298257637256996500e+00
2.298257637256996500e+00
2.273506881923887057e+00
2.273506881923887057e+00
2.273506881923887057e+00
2.273506881923887057e+00
2.228130497146519229e+00
2.228130497146519229e+00
2.228130497146519229e+00
2.184629169591357556e+00
2.184629169591357556e+00
2.184629169591357556e+00
2.184629169591357556e+00
2.195879512924588717e+00
2.195879512924588717e+00
2.195879512924588717e+00
2.290382396923734465e+00
2.290382396923734465e+00
2.290382396923734465e+00
2.329383587145603673e+00
2.329383587145603673e+00
2.329383587145603673e+00
2.329383587145603673e+00
2.391260475478377501e+00
2.391260475478377501e+00
2.391260475478377501e+00
2.401010773033844803e+00
2.401010773033844803e+00
2.401010773033844803e+00
2.401010773033844803e+00
2.355446882534256936e+00
2.355446882534256936e+00
2.355446882534256936e+00
2.323383404034546906e+00
2.323383404034546906e+00
2.323383404034546906e+00
2.306320383312479017e+00
2.306320383312479017e+00
2.306320383312479017e+00
2.306320383312479017e+00
2.273506881923887057e+00
2.273506881923887057e+00
2.273506881923887057e+00
2.264881618701742649e+00
2.264881618701742649e+00
2.264881618701742649e+00
2.264881618701742649e+00
2.257568895535142062e+00
2.257568895535142062e+00
2.257568895535142062e+00
2.275569444868312807e+00
2.275569444868312807e+00
2.275569444868312807e+00
2.275569444868312807e+00
2.254006286812952009e+00
2.254006286812952009e+00
2.254006286812952009e+00
2.227192968535416817e+00
2.227192968535416817e+00
2.227192968535416817e+00
2.247068575090792386e+00
2.247068575090792386e+00
2.247068575090792386e+00
2.247068575090792386e+00
2.269194250312814631e+00
2.269194250312814631e+00
2.269194250312814631e+00
2.310633014923550999e+00
2.310633014923550999e+00
2.310633014923550999e+00
2.310633014923550999e+00
2.380947660756248752e+00
2.380947660756248752e+00
2.380947660756248752e+00
2.392948026978362286e+00
2.392948026978362286e+00
2.392948026978362286e+00
2.439449446089053009e+00
2.439449446089053009e+00
2.439449446089053009e+00
2.439449446089053009e+00
2.371947386089663379e+00
2.371947386089663379e+00
2.371947386089663379e+00
2.262256538590655452e+00
2.262256538590655452e+00
2.262256538590655452e+00
2.262256538590655452e+00
2.262069032868434526e+00
2.262069032868434526e+00
2.262069032868434526e+00
2.249131138035218136e+00
2.249131138035218136e+00
2.249131138035218136e+00
2.249131138035218136e+00
2.238443311868648422e+00
2.238443311868648422e+00
2.238443311868648422e+00
2.264881618701742649e+00
2.264881618701742649e+00
2.264881618701742649e+00
2.237130771813104602e+00
2.237130771813104602e+00
2.237130771813104602e+00
2.237130771813104602e+00
2.246131046479689974e+00
2.246131046479689974e+00
2.246131046479689974e+00
2.278569536423841413e+00
2.278569536423841413e+00
2.278569536423841413e+00
2.278569536423841413e+00
2.327133518478957885e+00
2.327133518478957885e+00
2.327133518478957885e+00
2.337821344645527599e+00
2.337821344645527599e+00
2.337821344645527599e+00
2.385822809533982625e+00
2.385822809533982625e+00
2.385822809533982625e+00
2.385822809533982625e+00
2.416948759422589799e+00
2.416948759422589799e+00
2.416948759422589799e+00
2.372322397534104788e+00
2.372322397534104788e+00
2.372322397534104788e+00
2.372322397534104788e+00
2.362572099978637485e+00
2.362572099978637485e+00
2.362572099978637485e+00
2.324508438367870244e+00
2.324508438367870244e+00
2.324508438367870244e+00
2.324508438367870244e+00
2.328258552812280335e+00
2.328258552812280335e+00
2.328258552812280335e+00
2.332946195867793726e+00
2.332946195867793726e+00
2.332946195867793726e+00
2.266756675923947917e+00
2.266756675923947917e+00
2.266756675923947917e+00
2.266756675923947917e+00
2.252318735312967224e+00
2.252318735312967224e+00
2.252318735312967224e+00
2.220817773979919085e+00
2.220817773979919085e+00
2.220817773979919085e+00
2.220817773979919085e+00
2.209942442091128445e+00
2.209942442091128445e+00
2.209942442091128445e+00
2.265444135868404540e+00
2.265444135868404540e+00
2.265444135868404540e+00
2.289257362590411127e+00
2.289257362590411127e+00
2.289257362590411127e+00
2.289257362590411127e+00
2.350759239478743989e+00
2.350759239478743989e+00
2.350759239478743989e+00
2.337446333201086635e+00
2.337446333201086635e+00
2.337446333201086635e+00
2.318695760979033516e+00
2.318695760979033516e+00
2.318695760979033516e+00
2.318695760979033516e+00
2.299570177312540320e+00
2.299570177312540320e+00
2.299570177312540320e+00
2.288319833979308715e+00
2.288319833979308715e+00
2.288319833979308715e+00
2.288319833979308715e+00
2.279319559312723342e+00
2.279319559312723342e+00
2.279319559312723342e+00
2.287569811090426342e+00
2.287569811090426342e+00
2.287569811090426342e+00
2.287569811090426342e+00
2.285694753868221074e+00
2.285694753868221074e+00
2.285694753868221074e+00
2.287757316812646824e+00
2.287757316812646824e+00
2.287757316812646824e+00
2.286069765312662039e+00
2.286069765312662039e+00
2.286069765312662039e+00
2.286069765312662039e+00
2.266381664479506952e+00
2.266381664479506952e+00
2.266381664479506952e+00
2.290944914090395912e+00
2.290944914090395912e+00
2.290944914090395912e+00
2.290944914090395912e+00
2.342883999145481511e+00
2.342883999145481511e+00
2.342883999145481511e+00
2.359384502700888397e+00
2.359384502700888397e+00
2.359384502700888397e+00
2.359384502700888397e+00
2.407198461867122496e+00
2.407198461867122496e+00
2.407198461867122496e+00
2.390135441145054607e+00
2.390135441145054607e+00
2.390135441145054607e+00
2.374947477645191540e+00
2.374947477645191540e+00
2.374947477645191540e+00
2.374947477645191540e+00
2.331071138645588459e+00
2.331071138645588459e+00
2.331071138645588459e+00
2.275194433423871843e+00
2.275194433423871843e+00
2.275194433423871843e+00
2.275194433423871843e+00
2.252318735312967224e+00
2.252318735312967224e+00
2.252318735312967224e+00
2.267694204535050773e+00
2.267694204535050773e+00
2.267694204535050773e+00
2.235068208868678852e+00
2.235068208868678852e+00
2.235068208868678852e+00
2.235068208868678852e+00
2.242568437757499922e+00
2.242568437757499922e+00
2.242568437757499922e+00
2.205817316202276945e+00
2.205817316202276945e+00
2.205817316202276945e+00
2.205817316202276945e+00
2.205254799035615054e+00
2.205254799035615054e+00
2.205254799035615054e+00
2.294882534257026929e+00
2.294882534257026929e+00
2.294882534257026929e+00
2.330508621478927012e+00
2.330508621478927012e+00
2.330508621478927012e+00
2.330508621478927012e+00
2.389010406811731269e+00
2.389010406811731269e+00
2.389010406811731269e+00
2.418823816644795066e+00
2.418823816644795066e+00
2.418823816644795066e+00
2.418823816644795066e+00
2.399323221533860018e+00
2.399323221533860018e+00
2.399323221533860018e+00
2.357696951200903612e+00
2.357696951200903612e+00
2.357696951200903612e+00
2.357696951200903612e+00
2.341946470534379099e+00
2.341946470534379099e+00
2.341946470534379099e+00
2.316820703756828248e+00
2.316820703756828248e+00
2.316820703756828248e+00
2.286069765312662039e+00
2.286069765312662039e+00
2.286069765312662039e+00
2.286069765312662039e+00
2.264506607257301685e+00
2.264506607257301685e+00
2.264506607257301685e+00
2.246881069368571904e+00
2.246881069368571904e+00
2.246881069368571904e+00
2.246881069368571904e+00
2.267694204535050773e+00
2.267694204535050773e+00
2.267694204535050773e+00
2.263006561479537382e+00
2.263006561479537382e+00
2.263006561479537382e+00
2.263006561479537382e+00
2.238818323313089387e+00
2.238818323313089387e+00
2.238818323313089387e+00
2.303695303201391820e+00
2.303695303201391820e+00
2.303695303201391820e+00
2.352071779534287366e+00
2.352071779534287366e+00
2.352071779534287366e+00
2.352071779534287366e+00
2.367822260200811879e+00
2.367822260200811879e+00
2.367822260200811879e+00
2.377197546311838217e+00
2.377197546311838217e+00
2.377197546311838217e+00
2.377197546311838217e+00
2.364447157200842309e+00
2.364447157200842309e+00
2.364447157200842309e+00
2.317570726645710621e+00
2.317570726645710621e+00
2.317570726645710621e+00
2.311758049256874337e+00
2.311758049256874337e+00
2.311758049256874337e+00
2.311758049256874337e+00
2.275569444868312807e+00
2.275569444868312807e+00
2.275569444868312807e+00
2.267131687368389326e+00
2.267131687368389326e+00
2.267131687368389326e+00
2.267131687368389326e+00
2.283069673757133433e+00
2.283069673757133433e+00
2.283069673757133433e+00
2.275006927701650916e+00
2.275006927701650916e+00
2.275006927701650916e+00
2.275006927701650916e+00
2.255131321146275347e+00
2.255131321146275347e+00
2.255131321146275347e+00
2.227755485702078264e+00
2.227755485702078264e+00
2.227755485702078264e+00
2.235818231757560781e+00
2.235818231757560781e+00
2.235818231757560781e+00
2.235818231757560781e+00
2.264131595812860720e+00
2.264131595812860720e+00
2.264131595812860720e+00
2.329008575701162709e+00
2.329008575701162709e+00
2.329008575701162709e+00
2.329008575701162709e+00
2.401760795922727176e+00
2.401760795922727176e+00
2.401760795922727176e+00
2.430074159978026671e+00
2.430074159978026671e+00
2.430074159978026671e+00
2.365947202978606612e+00
2.365947202978606612e+00
2.365947202978606612e+00
2.365947202978606612e+00
2.321133335367900674e+00
2.321133335367900674e+00
2.321133335367900674e+00
2.282882168034912951e+00
2.282882168034912951e+00
2.282882168034912951e+00
2.282882168034912951e+00
2.286069765312662039e+00
2.286069765312662039e+00
2.286069765312662039e+00
2.253631275368511044e+00
2.253631275368511044e+00
2.253631275368511044e+00
2.253631275368511044e+00
2.187441755424664791e+00
2.187441755424664791e+00
2.187441755424664791e+00
2.200192144535660699e+00
2.200192144535660699e+00
2.200192144535660699e+00
2.200192144535660699e+00
2.233005645924253102e+00
2.233005645924253102e+00
2.233005645924253102e+00
2.263569078646198829e+00
2.263569078646198829e+00
2.263569078646198829e+00
2.294132511368144556e+00
2.294132511368144556e+00
2.294132511368144556e+00
2.294132511368144556e+00
2.330133610034486047e+00
2.330133610034486047e+00
2.330133610034486047e+00
2.353759331034272151e+00
2.353759331034272151e+00
2.353759331034272151e+00
2.353759331034272151e+00
2.371009857478560967e+00
2.371009857478560967e+00
2.371009857478560967e+00
2.375509994811853431e+00
2.375509994811853431e+00
2.375509994811853431e+00
2.355634388256477418e+00
2.355634388256477418e+00
2.355634388256477418e+00
2.355634388256477418e+00
2.303132786034730373e+00
2.303132786034730373e+00
2.303132786034730373e+00
2.289257362590411127e+00
2.289257362590411127e+00
2.289257362590411127e+00
2.289257362590411127e+00
2.298632648701437464e+00
2.298632648701437464e+00
2.298632648701437464e+00
2.308570451979125249e+00
2.308570451979125249e+00
2.308570451979125249e+00
2.308570451979125249e+00
2.276319467757194737e+00
2.276319467757194737e+00
2.276319467757194737e+00
2.274256904812768987e+00
2.274256904812768987e+00
2.274256904812768987e+00
2.264131595812860720e+00
2.264131595812860720e+00
2.264131595812860720e+00
2.264131595812860720e+00
2.312508072145756710e+00
2.312508072145756710e+00
2.312508072145756710e+00
2.305945371868038052e+00
2.305945371868038052e+00
2.305945371868038052e+00
2.305945371868038052e+00
2.301820245979186552e+00
2.301820245979186552e+00
2.301820245979186552e+00
2.332758690145573244e+00
2.332758690145573244e+00
2.332758690145573244e+00
2.368572283089693808e+00
2.368572283089693808e+00
2.368572283089693808e+00
2.368572283089693808e+00
2.368947294534135217e+00
2.368947294534135217e+00
2.368947294534135217e+00
2.340258919034394314e+00
2.340258919034394314e+00
2.340258919034394314e+00
2.274256904812768987e+00
2.274256904812768987e+00
2.274256904812768987e+00
2.274256904812768987e+00
2.295445051423688376e+00
2.295445051423688376e+00
2.295445051423688376e+00
2.299757683034760802e+00
2.299757683034760802e+00
2.299757683034760802e+00
2.299757683034760802e+00
2.284569719534897736e+00
2.284569719534897736e+00
2.284569719534897736e+00
2.270131778923917043e+00
2.270131778923917043e+00
2.270131778923917043e+00
2.270131778923917043e+00
2.251568712424085295e+00
2.251568712424085295e+00
2.251568712424085295e+00
2.218005188146610962e+00
2.218005188146610962e+00
2.218005188146610962e+00
2.240505874813074172e+00
2.240505874813074172e+00
2.240505874813074172e+00
2.240505874813074172e+00
2.312883083590197675e+00
2.312883083590197675e+00
2.312883083590197675e+00
2.345509079256569152e+00
2.345509079256569152e+00
2.345509079256569152e+00
2.345509079256569152e+00
2.368197271645252844e+00
2.368197271645252844e+00
2.368197271645252844e+00
2.376447523422955843e+00
2.376447523422955843e+00
2.376447523422955843e+00
2.376447523422955843e+00
2.368197271645252844e+00
2.368197271645252844e+00
2.368197271645252844e+00
2.332383678701132279e+00
2.332383678701132279e+00
2.332383678701132279e+00
2.310633014923550999e+00
2.310633014923550999e+00
2.310633014923550999e+00
2.310633014923550999e+00
2.284382213812677254e+00
2.284382213812677254e+00
2.284382213812677254e+00
2.249318643757439062e+00
2.249318643757439062e+00
2.249318643757439062e+00
2.249318643757439062e+00
2.285132236701559627e+00
2.285132236701559627e+00
2.285132236701559627e+00
2.302382763145847999e+00
2.302382763145847999e+00
2.302382763145847999e+00
2.305570360423596643e+00
2.305570360423596643e+00
2.305570360423596643e+00
2.305570360423596643e+00
2.285507248146000592e+00
2.285507248146000592e+00
2.285507248146000592e+00
2.287757316812646824e+00
2.287757316812646824e+00
2.287757316812646824e+00
2.287757316812646824e+00
2.334821253089998994e+00
2.334821253089998994e+00
2.334821253089998994e+00
2.336696310312204705e+00
2.336696310312204705e+00
2.336696310312204705e+00
2.336696310312204705e+00
2.364072145756401344e+00
2.364072145756401344e+00
2.364072145756401344e+00
2.354884365367595489e+00
2.354884365367595489e+00
2.354884365367595489e+00
2.306507889034699499e+00
2.306507889034699499e+00
2.306507889034699499e+00
2.306507889034699499e+00
2.317758232367931104e+00
2.317758232367931104e+00
2.317758232367931104e+00
2.303132786034730373e+00
2.303132786034730373e+00
2.303132786034730373e+00
2.303132786034730373e+00
2.239380840479750834e+00
2.239380840479750834e+00
2.239380840479750834e+00
2.232818140202032620e+00
2.232818140202032620e+00
2.232818140202032620e+00
2.262444044312875935e+00
2.262444044312875935e+00
2.262444044312875935e+00
2.262444044312875935e+00
2.269569261757255596e+00
2.269569261757255596e+00
2.269569261757255596e+00
2.249131138035218136e+00
2.249131138035218136e+00
2.249131138035218136e+00
2.249131138035218136e+00
2.252881252479629115e+00
2.252881252479629115e+00
2.252881252479629115e+00
2.248943632312997654e+00
2.248943632312997654e+00
2.248943632312997654e+00
2.248943632312997654e+00
2.317195715201269657e+00
2.317195715201269657e+00
2.317195715201269657e+00
2.382072695089572090e+00
2.382072695089572090e+00
2.382072695089572090e+00
2.404198370311593891e+00
2.404198370311593891e+00
2.404198370311593891e+00
2.404198370311593891e+00
2.380197637867366822e+00
2.380197637867366822e+00
2.380197637867366822e+00
2.383010223700674501e+00
2.383010223700674501e+00
2.383010223700674501e+00
2.383010223700674501e+00
2.310445509201330516e+00
2.310445509201330516e+00
2.310445509201330516e+00
2.280632099368266719e+00
2.280632099368266719e+00
2.280632099368266719e+00
2.276506973479415219e+00
2.276506973479415219e+00
2.276506973479415219e+00
2.276506973479415219e+00
2.274819421979430434e+00
2.274819421979430434e+00
2.274819421979430434e+00
2.257756401257362544e+00
2.257756401257362544e+00
2.257756401257362544e+00
2.257756401257362544e+00
2.248381115146336207e+00
2.248381115146336207e+00
2.248381115146336207e+00
2.190816858424634361e+00
2.190816858424634361e+00
2.190816858424634361e+00
2.190816858424634361e+00
2.220817773979919085e+00
2.220817773979919085e+00
2.220817773979919085e+00
2.335008758812219920e+00
2.335008758812219920e+00
2.335008758812219920e+00
2.406073427533799602e+00
2.406073427533799602e+00
2.406073427533799602e+00
2.406073427533799602e+00
2.406073427533799602e+00
2.406073427533799602e+00
2.406073427533799602e+00
2.396323129978331856e+00
2.396323129978331856e+00
2.396323129978331856e+00
2.396323129978331856e+00
2.375697500534073914e+00
2.375697500534073914e+00
2.375697500534073914e+00
2.305570360423596643e+00
2.305570360423596643e+00
2.305570360423596643e+00
2.275006927701650916e+00
2.275006927701650916e+00
2.275006927701650916e+00
2.275006927701650916e+00
2.216880153813287624e+00
2.216880153813287624e+00
2.216880153813287624e+00
2.248568620868556689e+00
2.248568620868556689e+00
2.248568620868556689e+00
2.248568620868556689e+00
2.267506698812830290e+00
2.267506698812830290e+00
2.267506698812830290e+00
2.304445326090273749e+00
2.304445326090273749e+00
2.304445326090273749e+00
2.304445326090273749e+00
2.303695303201391820e+00
2.303695303201391820e+00
2.303695303201391820e+00
2.251756218146305777e+00
2.251756218146305777e+00
2.251756218146305777e+00
2.257568895535142062e+00
2.257568895535142062e+00
2.257568895535142062e+00
2.257568895535142062e+00
2.319445783867915889e+00
2.319445783867915889e+00
2.319445783867915889e+00
2.310820520645771925e+00
2.310820520645771925e+00
2.310820520645771925e+00
2.310820520645771925e+00
2.366322214423047576e+00
2.366322214423047576e+00
2.366322214423047576e+00
2.344009033478804849e+00
2.344009033478804849e+00
2.344009033478804849e+00
2.334258735923337547e+00
2.334258735923337547e+00
2.334258735923337547e+00
2.334258735923337547e+00
2.283257179479354360e+00
2.283257179479354360e+00
2.283257179479354360e+00
2.297320108645893644e+00
2.297320108645893644e+00
2.297320108645893644e+00
2.297320108645893644e+00
2.286444776757103448e+00
2.286444776757103448e+00
2.286444776757103448e+00
2.246318552201910457e+00
2.246318552201910457e+00
2.246318552201910457e+00
2.246318552201910457e+00
2.238255806146427940e+00
2.238255806146427940e+00
2.238255806146427940e+00
2.268631733146153184e+00
2.268631733146153184e+00
2.268631733146153184e+00
2.299382671590319838e+00
2.299382671590319838e+00
2.299382671590319838e+00
2.299382671590319838e+00
2.308945463423566213e+00
2.308945463423566213e+00
2.308945463423566213e+00
2.327133518478957885e+00
2.327133518478957885e+00
2.327133518478957885e+00
2.327133518478957885e+00
2.344571550645466296e+00
2.344571550645466296e+00
2.344571550645466296e+00
2.311570543534653854e+00
2.311570543534653854e+00
2.311570543534653854e+00
2.319820795312356854e+00
2.319820795312356854e+00
2.376072511978514878e+00
2.376072511978514878e+00
2.376072511978514878e+00
2.376072511978514878e+00
2.422573931089205601e+00
2.422573931089205601e+00
2.422573931089205601e+00
2.344196539201025331e+00
2.344196539201025331e+00
2.344196539201025331e+00
2.270694296090578934e+00
2.270694296090578934e+00
2.270694296090578934e+00
2.270694296090578934e+00
2.241818414868617992e+00
2.241818414868617992e+00
2.241818414868617992e+00
2.227942991424298746e+00
2.227942991424298746e+00
2.227942991424298746e+00
2.227942991424298746e+00
2.276694479201635701e+00
2.276694479201635701e+00
2.276694479201635701e+00
2.276131962034974254e+00
2.276131962034974254e+00
2.276131962034974254e+00
2.276131962034974254e+00
2.233380657368694511e+00
2.233380657368694511e+00
2.233380657368694511e+00
2.248193609424115724e+00
2.248193609424115724e+00
2.248193609424115724e+00
2.283444685201574842e+00
2.283444685201574842e+00
2.283444685201574842e+00
2.283444685201574842e+00
2.336696310312204705e+00
2.336696310312204705e+00
2.336696310312204705e+00
2.374759971922971058e+00
2.374759971922971058e+00
2.374759971922971058e+00
2.374759971922971058e+00
2.409073519089327764e+00
2.409073519089327764e+00
2.409073519089327764e+00
2.347946653645436310e+00
2.347946653645436310e+00
2.347946653645436310e+00
2.302757774590289408e+00
2.302757774590289408e+00
2.302757774590289408e+00
2.302757774590289408e+00
2.287757316812646824e+00
2.287757316812646824e+00
2.287757316812646824e+00
2.299007660145878429e+00
2.299007660145878429e+00
2.299007660145878429e+00
2.299007660145878429e+00
2.306882900479140464e+00
2.306882900479140464e+00
2.306882900479140464e+00
2.285882259590441556e+00
2.285882259590441556e+00
2.285882259590441556e+00
2.285882259590441556e+00
2.271444318979460864e+00
2.271444318979460864e+00
2.271444318979460864e+00
2.285132236701559627e+00
2.285132236701559627e+00
2.285132236701559627e+00
2.192129398480178182e+00
2.192129398480178182e+00
2.192129398480178182e+00
2.192129398480178182e+00
2.234505691702016961e+00
2.234505691702016961e+00
2.234505691702016961e+00
2.270694296090578934e+00
2.270694296090578934e+00
2.270694296090578934e+00
2.270694296090578934e+00
2.281757133701590057e+00
2.281757133701590057e+00
2.281757133701590057e+00
2.355071871089815971e+00
2.355071871089815971e+00
2.355071871089815971e+00
2.390885464033936536e+00
2.390885464033936536e+00
2.390885464033936536e+00
2.390885464033936536e+00
2.386572832422864110e+00
2.386572832422864110e+00
2.386572832422864110e+00
2.343071504867702437e+00
2.343071504867702437e+00
2.343071504867702437e+00
2.343071504867702437e+00
2.344384044923245813e+00
2.344384044923245813e+00
2.344384044923245813e+00
2.308757957701345731e+00
2.308757957701345731e+00
2.308757957701345731e+00
2.308757957701345731e+00
2.312695577867977192e+00
2.312695577867977192e+00
2.312695577867977192e+00
2.283819696646015807e+00
2.283819696646015807e+00
2.307257911923581428e+00
2.307257911923581428e+00
2.307257911923581428e+00
2.308007934812463802e+00
2.308007934812463802e+00
2.308007934812463802e+00
2.308007934812463802e+00
2.223630359813226764e+00
2.223630359813226764e+00
2.223630359813226764e+00
2.244255989257484707e+00
2.244255989257484707e+00
2.244255989257484707e+00
2.244255989257484707e+00
2.292069948423719250e+00
2.292069948423719250e+00
2.292069948423719250e+00
2.333508713034455617e+00
2.333508713034455617e+00
2.333508713034455617e+00
2.385447798089541660e+00
2.385447798089541660e+00
2.385447798089541660e+00
2.385447798089541660e+00
2.382447706534013054e+00
2.382447706534013054e+00
2.382447706534013054e+00
2.311758049256874337e+00
2.311758049256874337e+00
2.311758049256874337e+00
2.324320932645649762e+00
2.324320932645649762e+00
2.324320932645649762e+00
2.324320932645649762e+00
2.311570543534653854e+00
2.311570543534653854e+00
2.311570543534653854e+00
2.278382030701620931e+00
2.278382030701620931e+00
2.278382030701620931e+00
2.278382030701620931e+00
2.227005462813196335e+00
2.227005462813196335e+00
2.227005462813196335e+00
2.197004547257912055e+00
2.197004547257912055e+00
2.197004547257912055e+00
2.217255165257729033e+00
2.217255165257729033e+00
2.217255165257729033e+00
2.217255165257729033e+00
2.240693380535294654e+00
2.240693380535294654e+00
2.240693380535294654e+00
2.240693380535294654e+00
2.240693380535294654e+00
2.240693380535294654e+00
2.240693380535294654e+00
2.300695211645863214e+00
2.300695211645863214e+00
2.300695211645863214e+00
2.346446607867672007e+00
2.346446607867672007e+00
2.346446607867672007e+00
2.346446607867672007e+00
2.367822260200811879e+00
2.367822260200811879e+00
2.367822260200811879e+00
2.416573747978148834e+00
2.416573747978148834e+00
2.416573747978148834e+00
2.464950224311044824e+00
2.464950224311044824e+00
2.464950224311044824e+00
2.464950224311044824e+00
2.384322763756218322e+00
2.384322763756218322e+00
2.384322763756218322e+00
2.382072695089572090e+00
2.382072695089572090e+00
2.382072695089572090e+00
2.382072695089572090e+00
2.299757683034760802e+00
2.299757683034760802e+00
2.299757683034760802e+00
2.230755577257606870e+00
2.230755577257606870e+00
2.230755577257606870e+00
2.156128299813837135e+00
2.156128299813837135e+00
2.156128299813837135e+00
2.156128299813837135e+00
2.212942533646656607e+00
2.212942533646656607e+00
2.212942533646656607e+00
2.265819147312845505e+00
2.265819147312845505e+00
2.265819147312845505e+00
2.265819147312845505e+00
2.220817773979919085e+00
2.220817773979919085e+00
2.220817773979919085e+00
2.242380932035279439e+00
2.242380932035279439e+00
2.242380932035279439e+00
2.242380932035279439e+00
2.327508529923398850e+00
2.327508529923398850e+00
2.327508529923398850e+00
2.331821161534470832e+00
2.331821161534470832e+00
2.331821161534470832e+00
2.346259102145451525e+00
2.346259102145451525e+00
2.346259102145451525e+00
2.346259102145451525e+00
2.351509262367625919e+00
2.351509262367625919e+00
2.351509262367625919e+00
2.324695944090090727e+00
2.324695944090090727e+00
2.324695944090090727e+00
2.324695944090090727e+00
2.319070772423474924e+00
2.319070772423474924e+00
2.319070772423474924e+00
2.338758873256630455e+00
2.338758873256630455e+00
2.338758873256630455e+00
2.300695211645863214e+00
2.300695211645863214e+00
2.300695211645863214e+00
2.300695211645863214e+00
2.269756767479476078e+00
2.269756767479476078e+00
2.269756767479476078e+00
2.252881252479629115e+00
2.252881252479629115e+00
2.252881252479629115e+00
2.252881252479629115e+00
2.271631824701681346e+00
2.271631824701681346e+00
2.271631824701681346e+00
2.282694662312692468e+00
2.282694662312692468e+00
2.282694662312692468e+00
2.282694662312692468e+00
2.285694753868221074e+00
2.285694753868221074e+00
2.285694753868221074e+00
2.257756401257362544e+00
2.257756401257362544e+00
2.257756401257362544e+00
2.318883266701254442e+00
2.318883266701254442e+00
2.318883266701254442e+00
2.318883266701254442e+00
2.373259926145207199e+00
2.373259926145207199e+00
2.373259926145207199e+00
2.422386425366985119e+00
2.422386425366985119e+00
2.422386425366985119e+00
2.353009308145390222e+00
2.353009308145390222e+00
2.353009308145390222e+00
2.353009308145390222e+00
2.335946287423322332e+00
2.335946287423322332e+00
2.335946287423322332e+00
2.326946012756737403e+00
2.326946012756737403e+00
2.326946012756737403e+00
2.326946012756737403e+00
2.358821985534226506e+00
2.358821985534226506e+00
2.358821985534226506e+00
2.346259102145451525e+00
2.346259102145451525e+00
2.346259102145451525e+00
2.302195257423627517e+00
2.302195257423627517e+00
2.302195257423627517e+00
2.302195257423627517e+00
2.230193060090945423e+00
2.230193060090945423e+00
2.230193060090945423e+00
2.222505325479903426e+00
2.222505325479903426e+00
2.222505325479903426e+00
2.222505325479903426e+00
2.208254890591143660e+00
2.208254890591143660e+00
2.208254890591143660e+00
2.186504226813562823e+00
2.186504226813562823e+00
2.186504226813562823e+00
2.308757957701345731e+00
2.308757957701345731e+00
2.308757957701345731e+00
2.308757957701345731e+00
2.259631458479567812e+00
2.259631458479567812e+00
2.259631458479567812e+00
2.279507065034943825e+00
2.279507065034943825e+00
2.279507065034943825e+00
2.279507065034943825e+00
2.397823175756096159e+00
2.397823175756096159e+00
2.397823175756096159e+00
2.388260383922848895e+00
2.388260383922848895e+00
2.388260383922848895e+00
2.388260383922848895e+00
2.364634662923062791e+00
2.364634662923062791e+00
2.364634662923062791e+00
2.402698324533829588e+00
2.402698324533829588e+00
2.402698324533829588e+00
2.353009308145390222e+00
2.353009308145390222e+00
2.353009308145390222e+00
2.353009308145390222e+00
2.290007385479293500e+00
2.290007385479293500e+00
2.290007385479293500e+00
2.263381572923978347e+00
2.263381572923978347e+00
2.263381572923978347e+00
2.263381572923978347e+00
2.275194433423871843e+00
2.275194433423871843e+00
2.275194433423871843e+00
2.277069490646077110e+00
2.277069490646077110e+00
2.277069490646077110e+00
2.277069490646077110e+00
2.232630634479812137e+00
2.232630634479812137e+00
2.232630634479812137e+00
2.217630176702169997e+00
2.217630176702169997e+00
2.217630176702169997e+00
2.170378734702597345e+00
2.170378734702597345e+00
2.170378734702597345e+00
2.170378734702597345e+00
2.204317270424512643e+00
2.204317270424512643e+00
2.204317270424512643e+00
2.232818140202032620e+00
2.232818140202032620e+00
2.232818140202032620e+00
2.232818140202032620e+00
2.308945463423566213e+00
2.308945463423566213e+00
2.308945463423566213e+00
2.424636494033631351e+00
2.424636494033631351e+00
2.424636494033631351e+00
2.424636494033631351e+00
2.460637592699972398e+00
2.460637592699972398e+00
2.460637592699972398e+00
2.374384960478530537e+00
2.374384960478530537e+00
2.374384960478530537e+00
2.279507065034943825e+00
2.279507065034943825e+00
2.279507065034943825e+00
2.279507065034943825e+00
2.303507797479171337e+00
2.303507797479171337e+00
2.303507797479171337e+00
2.281382122257148648e+00
2.281382122257148648e+00
2.281382122257148648e+00
2.281382122257148648e+00
2.246881069368571904e+00
2.246881069368571904e+00
2.246881069368571904e+00
2.289632374034852091e+00
2.289632374034852091e+00
2.289632374034852091e+00
2.283069673757133433e+00
2.283069673757133433e+00
2.283069673757133433e+00
2.283069673757133433e+00
2.255881344035157721e+00
2.255881344035157721e+00
2.255881344035157721e+00
2.279507065034943825e+00
2.279507065034943825e+00
2.279507065034943825e+00
2.279507065034943825e+00
2.327133518478957885e+00
2.327133518478957885e+00
2.327133518478957885e+00
2.366884731589709023e+00
2.366884731589709023e+00
2.366884731589709023e+00
2.426886562700277583e+00
2.426886562700277583e+00
2.426886562700277583e+00
2.426886562700277583e+00
2.445262123477889293e+00
2.445262123477889293e+00
2.445262123477889293e+00
2.406823450422681532e+00
2.406823450422681532e+00
2.406823450422681532e+00
2.406823450422681532e+00
2.300320200201422249e+00
2.300320200201422249e+00
2.300320200201422249e+00
2.263006561479537382e+00
2.263006561479537382e+00
2.263006561479537382e+00
2.263006561479537382e+00
2.244443494979705633e+00
2.244443494979705633e+00
2.244443494979705633e+00
2.185004181035798521e+00
2.185004181035798521e+00
2.185004181035798521e+00
2.145815485091708386e+00
2.145815485091708386e+00
2.145815485091708386e+00
2.145815485091708386e+00
2.199254615924558287e+00
2.199254615924558287e+00
2.199254615924558287e+00
2.327883541367839371e+00
2.327883541367839371e+00
2.327883541367839371e+00
2.327883541367839371e+00
2.314945646534623425e+00
2.314945646534623425e+00
2.314945646534623425e+00
2.305007843256935196e+00
2.305007843256935196e+00
2.305007843256935196e+00
2.305007843256935196e+00
2.278194524979400004e+00
2.278194524979400004e+00
2.278194524979400004e+00
2.382072695089572090e+00
2.382072695089572090e+00
2.382072695089572090e+00
2.482388256477553679e+00
2.482388256477553679e+00
2.482388256477553679e+00
2.482388256477553679e+00
2.437386883144627259e+00
2.437386883144627259e+00
2.437386883144627259e+00
2.372134891811884305e+00
2.372134891811884305e+00
2.372134891811884305e+00
2.372134891811884305e+00
2.300320200201422249e+00
2.300320200201422249e+00
2.300320200201422249e+00
2.161003448591571008e+00
2.161003448591571008e+00
2.161003448591571008e+00
2.213692556535538980e+00
2.213692556535538980e+00
2.213692556535538980e+00
2.213692556535538980e+00
2.262444044312875935e+00
2.262444044312875935e+00
2.262444044312875935e+00
2.307257911923581428e+00
2.307257911923581428e+00
2.307257911923581428e+00
2.307257911923581428e+00
2.323383404034546906e+00
2.323383404034546906e+00
2.323383404034546906e+00
2.291319925534837321e+00
2.291319925534837321e+00
2.291319925534837321e+00
2.291319925534837321e+00
2.260006469924008776e+00
2.260006469924008776e+00
2.260006469924008776e+00
2.284007202368236289e+00
2.284007202368236289e+00
2.284007202368236289e+00
2.337446333201086635e+00
2.337446333201086635e+00
2.337446333201086635e+00
2.337446333201086635e+00
2.440761986144596829e+00
2.440761986144596829e+00
2.440761986144596829e+00
2.418823816644795066e+00
2.418823816644795066e+00
2.418823816644795066e+00
2.418823816644795066e+00
2.331633655812249906e+00
2.331633655812249906e+00
2.331633655812249906e+00
2.264881618701742649e+00
2.264881618701742649e+00
2.264881618701742649e+00
2.173003814813684542e+00
2.173003814813684542e+00
2.173003814813684542e+00
2.173003814813684542e+00
2.160253425702688634e+00
2.160253425702688634e+00
2.160253425702688634e+00
2.272006836146122755e+00
2.272006836146122755e+00
2.272006836146122755e+00
2.272006836146122755e+00
2.251568712424085295e+00
2.251568712424085295e+00
2.251568712424085295e+00
2.257568895535142062e+00
2.257568895535142062e+00
2.257568895535142062e+00
2.257568895535142062e+00
2.182379100924710880e+00
2.182379100924710880e+00
2.182379100924710880e+00
2.243880977813043742e+00
2.243880977813043742e+00
2.243880977813043742e+00
2.343259010589922919e+00
2.343259010589922919e+00
2.343259010589922919e+00
2.343259010589922919e+00
2.458950041199987613e+00
2.458950041199987613e+00
2.458950041199987613e+00
2.456699972533341381e+00
2.456699972533341381e+00
2.456699972533341381e+00
2.456699972533341381e+00
2.459512558366649504e+00
2.459512558366649504e+00
2.459512558366649504e+00
2.425949034089175171e+00
2.425949034089175171e+00
2.425949034089175171e+00
2.389010406811731269e+00
2.389010406811731269e+00
2.389010406811731269e+00
2.389010406811731269e+00
2.303507797479171337e+00
2.303507797479171337e+00
2.303507797479171337e+00
2.253631275368511044e+00
2.253631275368511044e+00
2.253631275368511044e+00
2.233380657368694511e+00
2.233380657368694511e+00
2.233380657368694511e+00
2.233380657368694511e+00
2.239193334757530351e+00
2.239193334757530351e+00
2.239193334757530351e+00
2.216692648091067142e+00
2.216692648091067142e+00
2.216692648091067142e+00
2.216692648091067142e+00
2.216130130924405695e+00
2.216130130924405695e+00
2.216130130924405695e+00
2.283632190923795324e+00
2.283632190923795324e+00
2.283632190923795324e+00
2.290007385479293500e+00
2.290007385479293500e+00
2.290007385479293500e+00
2.290007385479293500e+00
2.272756859035004684e+00
2.272756859035004684e+00
2.272756859035004684e+00
2.347759147923215384e+00
2.347759147923215384e+00
2.347759147923215384e+00
2.347759147923215384e+00
2.399323221533860018e+00
2.399323221533860018e+00
2.399323221533860018e+00
2.379447614978484449e+00
2.379447614978484449e+00
2.379447614978484449e+00
2.379447614978484449e+00
2.311945554979094819e+00
2.311945554979094819e+00
2.311945554979094819e+00
2.299382671590319838e+00
2.299382671590319838e+00
2.299382671590319838e+00
2.310445509201330516e+00
2.310445509201330516e+00
2.310445509201330516e+00
2.310445509201330516e+00
2.303507797479171337e+00
2.303507797479171337e+00
2.303507797479171337e+00
2.272944364757225166e+00
2.272944364757225166e+00
2.272944364757225166e+00
2.272944364757225166e+00
2.278569536423841413e+00
2.278569536423841413e+00
2.278569536423841413e+00
2.273694387646107540e+00
2.273694387646107540e+00
2.273694387646107540e+00
2.329008575701162709e+00
2.329008575701162709e+00
2.329008575701162709e+00
2.329008575701162709e+00
2.277444502090518075e+00
2.277444502090518075e+00
2.277444502090518075e+00
2.214817590868861874e+00
2.214817590868861874e+00
2.214817590868861874e+00
2.214817590868861874e+00
2.194754478591265823e+00
2.194754478591265823e+00
2.194754478591265823e+00
2.263006561479537382e+00
2.263006561479537382e+00
2.263006561479537382e+00
2.388635395367290304e+00
2.388635395367290304e+00
2.388635395367290304e+00
2.388635395367290304e+00
2.312320566423536228e+00
2.312320566423536228e+00
2.312320566423536228e+00
2.258693929868464956e+00
2.258693929868464956e+00
2.258693929868464956e+00
2.258693929868464956e+00
2.251756218146305777e+00
2.251756218146305777e+00
2.251756218146305777e+00
2.326946012756737403e+00
2.326946012756737403e+00
2.326946012756737403e+00
2.326946012756737403e+00
2.326008484145634547e+00
2.326008484145634547e+00
2.326008484145634547e+00
2.288694845423749680e+00
2.288694845423749680e+00
2.288694845423749680e+00
2.305195348979155678e+00
2.305195348979155678e+00
2.305195348979155678e+00
2.305195348979155678e+00
2.282507156590471986e+00
2.282507156590471986e+00
2.282507156590471986e+00
2.305945371868038052e+00
2.305945371868038052e+00
2.305945371868038052e+00
2.305945371868038052e+00
2.312133060701315301e+00
2.312133060701315301e+00
2.312133060701315301e+00
2.382447706534013054e+00
2.382447706534013054e+00
2.382447706534013054e+00
2.405885921811578676e+00
2.405885921811578676e+00
2.405885921811578676e+00
2.405885921811578676e+00
2.427636585589159957e+00
2.427636585589159957e+00
2.427636585589159957e+00
2.395573107089449927e+00
2.395573107089449927e+00
2.395573107089449927e+00
2.395573107089449927e+00
2.342508987701040546e+00
2.342508987701040546e+00
2.342508987701040546e+00
2.334821253089998994e+00
2.334821253089998994e+00
2.334821253089998994e+00
2.334821253089998994e+00
2.339133884701071420e+00
2.339133884701071420e+00
2.339133884701071420e+00
2.354134342478713116e+00
2.354134342478713116e+00
2.354134342478713116e+00
2.231505600146489243e+00
2.231505600146489243e+00
2.231505600146489243e+00
2.231505600146489243e+00
2.205629810480056463e+00
2.205629810480056463e+00
2.205629810480056463e+00
2.090876308481094181e+00
2.090876308481094181e+00
2.090876308481094181e+00
2.090876308481094181e+00
2.174128849147007880e+00
2.174128849147007880e+00
2.174128849147007880e+00
2.343821527756584366e+00
2.343821527756584366e+00
2.343821527756584366e+00
2.343821527756584366e+00
2.343259010589922919e+00
2.343259010589922919e+00
2.343259010589922919e+00
2.234880703146458369e+00
2.234880703146458369e+00
2.234880703146458369e+00
2.174128849147007880e+00
2.174128849147007880e+00
2.174128849147007880e+00
2.174128849147007880e+00
2.183316629535813735e+00
2.183316629535813735e+00
2.183316629535813735e+00
2.243505966368602778e+00
2.243505966368602778e+00
2.243505966368602778e+00
2.243505966368602778e+00
2.257193884090700653e+00
2.257193884090700653e+00
2.257193884090700653e+00
2.422011413922543710e+00
2.422011413922543710e+00
2.422011413922543710e+00
2.499451277199621568e+00
2.499451277199621568e+00
2.499451277199621568e+00
2.499451277199621568e+00
2.514639240699484635e+00
2.514639240699484635e+00
2.514639240699484635e+00
2.412073610644855925e+00
2.412073610644855925e+00
2.412073610644855925e+00
2.412073610644855925e+00
2.302007751701407035e+00
2.302007751701407035e+00
2.302007751701407035e+00
2.324320932645649762e+00
2.324320932645649762e+00
2.324320932645649762e+00
2.324320932645649762e+00
2.219692739646595747e+00
2.219692739646595747e+00
2.219692739646595747e+00
2.239755851924192243e+00
2.239755851924192243e+00
2.239755851924192243e+00
2.182191595202490397e+00
2.182191595202490397e+00
2.182191595202490397e+00
2.182191595202490397e+00
2.216130130924405695e+00
2.216130130924405695e+00
2.216130130924405695e+00
2.271444318979460864e+00
2.271444318979460864e+00
2.271444318979460864e+00
2.271444318979460864e+00
2.309882992034669069e+00
2.309882992034669069e+00
2.309882992034669069e+00
2.385072786645100695e+00
2.385072786645100695e+00
2.385072786645100695e+00
2.464762718588824342e+00
2.464762718588824342e+00
2.464762718588824342e+00
2.464762718588824342e+00
2.476388073366496911e+00
2.476388073366496911e+00
2.476388073366496911e+00
2.370072328867458111e+00
2.370072328867458111e+00
2.370072328867458111e+00
2.370072328867458111e+00
2.218192693868831444e+00
2.218192693868831444e+00
2.218192693868831444e+00
2.236943266090884119e+00
2.236943266090884119e+00
2.236943266090884119e+00
2.236943266090884119e+00
2.329383587145603673e+00
2.329383587145603673e+00
2.329383587145603673e+00
2.287569811090426342e+00
2.287569811090426342e+00
2.287569811090426342e+00
2.217255165257729033e+00
2.217255165257729033e+00
2.217255165257729033e+00
2.217255165257729033e+00
2.227192968535416817e+00
2.227192968535416817e+00
2.227192968535416817e+00
2.306320383312479017e+00
2.306320383312479017e+00
2.306320383312479017e+00
2.306320383312479017e+00
2.336321298867763296e+00
2.336321298867763296e+00
2.336321298867763296e+00
2.315883175145725836e+00
2.315883175145725836e+00
2.315883175145725836e+00
2.393323038422803695e+00
2.393323038422803695e+00
2.393323038422803695e+00
2.393323038422803695e+00
2.440761986144596829e+00
2.386572832422864110e+00
2.386572832422864110e+00
2.386572832422864110e+00
2.364072145756401344e+00
2.364072145756401344e+00
2.283632190923795324e+00
2.264131595812860720e+00
2.264131595812860720e+00
2.186504226813562823e+00
2.186504226813562823e+00
2.051500106814783120e+00
2.125564867091891408e+00
2.125564867091891408e+00
2.254006286812952009e+00
2.254006286812952009e+00
2.411698599200414961e+00
2.455387432477798004e+00
2.455387432477798004e+00
2.460637592699972398e+00
2.291882442701498768e+00
2.291882442701498768e+00
2.200004638813440216e+00
2.200004638813440216e+00
2.358259468367565059e+00
2.364259651478621826e+00
2.364259651478621826e+00
2.434199285866878171e+00
2.434199285866878171e+00
2.286069765312662039e+00
2.265631641590625023e+00
2.265631641590625023e+00
2.152378185369426600e+00
2.152378185369426600e+00
2.042312326425977265e+00
2.200942167424543072e+00
2.200942167424543072e+00
2.233943174535355514e+00
2.233943174535355514e+00
2.420323862422559369e+00
2.502638874477370656e+00
2.502638874477370656e+00
2.500576311532944906e+00
2.500576311532944906e+00
2.361447065645314147e+00
2.213692556535538980e+00
2.213692556535538980e+00
2.309695486312448587e+00
2.347759147923215384e+00
2.347759147923215384e+00
2.373072420422986717e+00
2.373072420422986717e+00
2.347009125034333454e+00
2.173191320535905025e+00
2.173191320535905025e+00
2.320570818201239227e+00
2.320570818201239227e+00
2.351321756645405436e+00
2.359009491256446989e+00
2.400448255867183356e+00
2.400448255867183356e+00
2.417323770867030763e+00
2.417323770867030763e+00
2.357884456923124095e+00
2.328821069978942226e+00
2.328821069978942226e+00
2.250631183812982439e+00
2.056375255592516993e+00
2.056375255592516993e+00
2.135877681814020157e+00
2.135877681814020157e+00
2.282882168034912951e+00
2.458012512588885201e+00
2.458012512588885201e+00
2.352259285256507848e+00
2.352259285256507848e+00
2.285507248146000592e+00
2.357134434034241721e+00
2.357134434034241721e+00
2.379635120700704931e+00
2.379635120700704931e+00
2.294320017090365038e+00
2.305570360423596643e+00
2.305570360423596643e+00
2.390322946867275089e+00
2.390322946867275089e+00
2.329383587145603673e+00
2.270131778923917043e+00
2.270131778923917043e+00
2.171316263313699757e+00
2.243318460646382295e+00
2.243318460646382295e+00
2.305570360423596643e+00
2.305570360423596643e+00
2.351509262367625919e+00
2.279319559312723342e+00
2.279319559312723342e+00
2.322070863979003530e+00
2.322070863979003530e+00
2.414323679311502602e+00
2.361259559923093665e+00
2.361259559923093665e+00
2.230568071535386387e+00
2.230568071535386387e+00
2.112251960814234053e+00
2.110189397869807859e+00
2.110189397869807859e+00
2.214067567979979945e+00
2.214067567979979945e+00
2.451824823755607952e+00
2.534514847254860204e+00
2.534514847254860204e+00
2.482388256477553679e+00
2.413948667867061193e+00
2.413948667867061193e+00
2.364259651478621826e+00
2.364259651478621826e+00
2.268069215979491737e+00
2.101189123203222930e+00
2.101189123203222930e+00
2.089376262703329878e+00
2.089376262703329878e+00
2.257568895535142062e+00
2.145815485091708386e+00
2.145815485091708386e+00
2.112814477980895500e+00
2.112814477980895500e+00
2.322070863979003530e+00
2.396885647144993747e+00
2.396885647144993747e+00
2.400823267311624321e+00
2.400823267311624321e+00
2.415448713644825496e+00
2.496638691366313889e+00
2.496638691366313889e+00
2.509201574755088870e+00
2.405510910367137711e+00
2.405510910367137711e+00
2.367072237311929506e+00
2.367072237311929506e+00
2.325445966978973100e+00
2.083563585314493150e+00
2.083563585314493150e+00
2.067813104647969080e+00
2.067813104647969080e+00
2.071375713370158689e+00
2.055812738425855546e+00
2.055812738425855546e+00
2.421448896755882263e+00
2.449762260811182202e+00
2.449762260811182202e+00
2.390510452589495571e+00
2.390510452589495571e+00
2.322820886867885459e+00
2.421823908200323228e+00
2.421823908200323228e+00
2.532639790032654936e+00
2.532639790032654936e+00
2.424073976866969904e+00
2.281382122257148648e+00
2.281382122257148648e+00
2.246131046479689974e+00
2.246131046479689974e+00
2.245006012146367080e+00
2.197192052980132537e+00
2.197192052980132537e+00
2.074938322092349186e+00
2.074938322092349186e+00
2.201129673146763555e+00
2.319258278145695407e+00
2.319258278145695407e+00
2.321133335367900674e+00
2.440386974700155864e+00
2.440386974700155864e+00
2.270131778923917043e+00
2.270131778923917043e+00
2.366509720145268059e+00
2.433449262977995797e+00
2.433449262977995797e+00
2.488013428144169481e+00
2.488013428144169481e+00
2.368572283089693808e+00
2.310445509201330516e+00
2.310445509201330516e+00
2.230193060090945423e+00
2.230193060090945423e+00
2.193254432813501520e+00
2.257756401257362544e+00
2.257756401257362544e+00
2.143002899258400262e+00
2.143002899258400262e+00
2.262631550035096417e+00
2.360134525589770327e+00
2.360134525589770327e+00
2.328071047090059853e+00
2.328071047090059853e+00
2.355634388256477418e+00
2.359947019867549844e+00
2.359947019867549844e+00
2.233193151646474028e+00
2.212005005035553751e+00
2.212005005035553751e+00
2.352446790978728330e+00
2.352446790978728330e+00
2.294132511368144556e+00
2.473950498977630197e+00
2.473950498977630197e+00
2.474700521866512126e+00
2.474700521866512126e+00
2.540140018921475562e+00
2.392198004089480357e+00
2.392198004089480357e+00
2.238443311868648422e+00
2.283257179479354360e+00
2.283257179479354360e+00
2.202817224646748340e+00
2.202817224646748340e+00
2.081126010925626435e+00
1.994498367259743166e+00
1.994498367259743166e+00
2.137940244758446351e+00
2.137940244758446351e+00
2.436449354533524403e+00
2.473950498977630197e+00
2.473950498977630197e+00
2.215380108035523765e+00
2.215380108035523765e+00
2.111876949369793088e+00
2.349821710867641578e+00
2.349821710867641578e+00
2.238630817590868904e+00
2.238630817590868904e+00
2.311758049256874337e+00
2.506013977477339782e+00
2.506013977477339782e+00
2.464200201422162451e+00
2.464200201422162451e+00
2.310445509201330516e+00
2.257381389812921579e+00
2.257381389812921579e+00
2.218755211035493335e+00
2.156503311258278099e+00
2.156503311258278099e+00
2.259818964201788294e+00
2.259818964201788294e+00
2.294507522812585520e+00
2.331071138645588459e+00
2.331071138645588459e+00
2.358446974089785542e+00
2.358446974089785542e+00
2.415636219367045978e+00
2.612142216254158100e+00
2.612142216254158100e+00
2.623767571031830670e+00
2.623767571031830670e+00
2.364822168645283273e+00
2.252693746757408633e+00
2.252693746757408633e+00
1.971997680593279956e+00
1.909558275093844459e+00
1.909558275093844459e+00
2.014373973815118735e+00
2.014373973815118735e+00
2.375509994811853431e+00
2.279507065034943825e+00
2.279507065034943825e+00
2.661643726920377429e+00
2.661643726920377429e+00
2.575953611865596571e+00
2.314008117923521013e+00
2.314008117923521013e+00
2.374759971922971058e+00
2.374759971922971058e+00
2.350571733756523507e+00
2.410573564867091623e+00
2.410573564867091623e+00
2.294132511368144556e+00
2.122377269814142320e+00
2.122377269814142320e+00
2.112064455092013571e+00
2.112064455092013571e+00
2.064438001647999510e+00
2.074375804925687294e+00
2.074375804925687294e+00
2.347009125034333454e+00
2.347009125034333454e+00
2.434199285866878171e+00
2.557765556810205343e+00
2.557765556810205343e+00
2.394073061311685624e+00
2.394073061311685624e+00
2.286069765312662039e+00
2.072688253425702509e+00
2.072688253425702509e+00
2.116564592425305591e+00
2.116564592425305591e+00
2.263006561479537382e+00
2.434011780144657688e+00
2.434011780144657688e+00
2.441512009033478758e+00
2.515014252143925599e+00
2.515014252143925599e+00
2.515576769310586602e+00
2.515576769310586602e+00
2.216505142368846659e+00
2.106814294869838289e+00
2.106814294869838289e+00
2.101001617481002448e+00
2.101001617481002448e+00
2.319633289590136371e+00
2.323570909756767389e+00
2.323570909756767389e+00
2.258881435590685438e+00
2.258881435590685438e+00
2.271444318979460864e+00
2.396510635700552783e+00
2.396510635700552783e+00
2.568078371532334536e+00
2.407198461867122496e+00
2.407198461867122496e+00
2.363322122867518971e+00
2.363322122867518971e+00
2.327508529923398850e+00
2.234318185979796478e+00
2.234318185979796478e+00
2.264881618701742649e+00
2.264881618701742649e+00
1.990373241370891666e+00
2.140565324869533104e+00
2.140565324869533104e+00
2.342321481978820064e+00
2.342321481978820064e+00
2.349634205145421095e+00
2.260381481368449741e+00
2.260381481368449741e+00
2.390697958311716054e+00
2.390697958311716054e+00
2.376072511978514878e+00
2.390322946867275089e+00
2.390322946867275089e+00
2.306507889034699499e+00
2.286069765312662039e+00
2.286069765312662039e+00
2.146378002258369833e+00
2.146378002258369833e+00
2.440949491866817311e+00
2.640268074587237113e+00
2.640268074587237113e+00
2.379635120700704931e+00
2.379635120700704931e+00
2.401385784478286212e+00
2.243318460646382295e+00
2.243318460646382295e+00
2.067438093203528116e+00
2.067438093203528116e+00
1.937871639149143954e+00
2.194379467146824858e+00
2.194379467146824858e+00
2.276881984923856628e+00
2.276881984923856628e+00
2.475638050477614982e+00
2.560203131199072502e+00
2.560203131199072502e+00
2.459700064088869986e+00
2.287569811090426342e+00
2.287569811090426342e+00
2.269756767479476078e+00
2.269756767479476078e+00
2.254943815424054865e+00
2.095188940092165719e+00
2.095188940092165719e+00
2.235818231757560781e+00
2.235818231757560781e+00
2.261319009979552597e+00
2.267131687368389326e+00
2.267131687368389326e+00
2.403260841700491479e+00
2.403260841700491479e+00
2.290569902645954947e+00
2.256443861201819168e+00
2.256443861201819168e+00
2.314945646534623425e+00
2.314945646534623425e+00
2.324508438367870244e+00
2.447699697866756008e+00
2.447699697866756008e+00
2.408698507644886799e+00
2.408698507644886799e+00
2.346634113589892490e+00
2.293382488479262626e+00
2.293382488479262626e+00
2.253256263924070080e+00
2.163253517258217240e+00
2.163253517258217240e+00
2.137377727591784460e+00
2.137377727591784460e+00
2.148440565202795582e+00
2.086188665425580790e+00
2.086188665425580790e+00
2.380760155034028269e+00
2.380760155034028269e+00
2.424261482589190386e+00
2.524014526810510528e+00
2.524014526810510528e+00
2.464575212866603859e+00
2.464575212866603859e+00
2.347196630756553937e+00
2.203942258980071234e+00
2.203942258980071234e+00
2.338946378978850937e+00
2.396323129978331856e+00
2.396323129978331856e+00
2.393135532700583212e+00
2.393135532700583212e+00
2.273319376201666131e+00
2.176941434980315559e+00
2.176941434980315559e+00
2.125002349925229961e+00
2.125002349925229961e+00
2.266569170201727434e+00
2.358634479812006024e+00
2.358634479812006024e+00
2.494576128421887695e+00
2.415448713644825496e+00
2.415448713644825496e+00
2.321320841090121156e+00
2.321320841090121156e+00
2.307070406201360946e+00
2.265444135868404540e+00
2.265444135868404540e+00
2.153690725424969976e+00
2.153690725424969976e+00
2.287569811090426342e+00
2.365197180089724238e+00
2.365197180089724238e+00
2.351509262367625919e+00
2.351509262367625919e+00
2.273694387646107540e+00
2.282319650868251504e+00
2.282319650868251504e+00
2.500388805810724424e+00
2.500388805810724424e+00
2.436449354533524403e+00
2.198317087313455875e+00
2.198317087313455875e+00
2.001811090426343309e+00
2.001811090426343309e+00
2.067438093203528116e+00
2.321695852534562121e+00
2.321695852534562121e+00
2.488763451033051854e+00
2.508451551866206941e+00
2.508451551866206941e+00
2.349634205145421095e+00
2.349634205145421095e+00
2.239755851924192243e+00
2.253068758201849597e+00
2.253068758201849597e+00
2.302007751701407035e+00
2.302007751701407035e+00
2.350009216589862060e+00
2.251568712424085295e+00
2.251568712424085295e+00
2.254381298257393418e+00
2.254381298257393418e+00
2.336321298867763296e+00
2.371384868923001932e+00
2.371384868923001932e+00
2.400823267311624321e+00
2.400823267311624321e+00
2.270881801812799416e+00
2.235255714590899334e+00
2.235255714590899334e+00
2.279319559312723342e+00
2.290007385479293500e+00
2.290007385479293500e+00
2.268444227423932702e+00
2.268444227423932702e+00
2.353946836756492633e+00
2.377010040589617734e+00
2.377010040589617734e+00
2.293382488479262626e+00
2.293382488479262626e+00
2.210692464980010374e+00
2.197567064424573946e+00
2.197567064424573946e+00
2.158753379924924776e+00
2.158753379924924776e+00
2.229068025757622085e+00
2.377197546311838217e+00
2.377197546311838217e+00
2.396323129978331856e+00
2.387135349589526001e+00
2.387135349589526001e+00
2.411323587755973996e+00
2.411323587755973996e+00
2.380010132145145896e+00
2.404573381756035300e+00
2.404573381756035300e+00
2.374572466200750576e+00
2.374572466200750576e+00
2.291882442701498768e+00
2.395385601367229444e+00
2.395385601367229444e+00
2.300320200201422249e+00
2.300320200201422249e+00
2.182191595202490397e+00
2.231130588702047834e+00
2.231130588702047834e+00
2.223255348368785356e+00
2.223255348368785356e+00
2.162128482924894346e+00
2.229068025757622085e+00
2.229068025757622085e+00
2.376260017700735361e+00
2.358071962645344577e+00
2.358071962645344577e+00
2.382072695089572090e+00
2.382072695089572090e+00
2.412823633533738299e+00
2.416948759422589799e+00
2.416948759422589799e+00
2.414511185033723084e+00
2.414511185033723084e+00
2.301257728812525105e+00
2.301445234534745587e+00
2.301445234534745587e+00
2.234318185979796478e+00
2.234318185979796478e+00
2.103626697592089645e+00
2.137377727591784460e+00
2.137377727591784460e+00
2.294507522812585520e+00
2.294507522812585520e+00
2.334258735923337547e+00
2.354134342478713116e+00
2.354134342478713116e+00
2.244631000701926116e+00
2.353946836756492633e+00
2.353946836756492633e+00
2.420511368144779851e+00
2.420511368144779851e+00
2.345884090701010116e+00
2.272381847590563719e+00
2.272381847590563719e+00
2.241068391979735619e+00
2.285507248146000592e+00
2.285507248146000592e+00
2.242755943479720404e+00
2.242755943479720404e+00
2.324695944090090727e+00
2.386572832422864110e+00
2.386572832422864110e+00
2.368009765923032361e+00
2.368009765923032361e+00
2.303882808923612302e+00
2.227755485702078264e+00
2.227755485702078264e+00
2.288882351145970162e+00
2.288882351145970162e+00
2.383572740867336393e+00
2.456512466811120898e+00
2.456512466811120898e+00
2.434949308755760100e+00
2.367822260200811879e+00
2.367822260200811879e+00
2.230568071535386387e+00
2.230568071535386387e+00
2.237880794701986531e+00
2.140190313425092139e+00
2.140190313425092139e+00
2.196067018646809643e+00
2.196067018646809643e+00
2.322258369701224012e+00
2.383385235145115466e+00
2.383385235145115466e+00
2.257756401257362544e+00
2.257756401257362544e+00
2.227567979979857782e+00
2.282882168034912951e+00
2.282882168034912951e+00
2.372697408978545752e+00
2.372697408978545752e+00
2.370634846034120002e+00
2.379260109256263966e+00
2.379260109256263966e+00
2.392948026978362286e+00
2.348321665089877275e+00
2.348321665089877275e+00
2.323945921201208797e+00
2.323945921201208797e+00
2.224942899868770141e+00
2.339133884701071420e+00
2.339133884701071420e+00
2.347759147923215384e+00
2.347759147923215384e+00
2.268069215979491737e+00
2.158940885647145258e+00
2.158940885647145258e+00
2.150690633869442259e+00
2.150690633869442259e+00
2.373634937589648164e+00
2.401760795922727176e+00
2.401760795922727176e+00
2.371572374645222414e+00
2.371572374645222414e+00
2.373634937589648164e+00
2.393885555589465142e+00
2.393885555589465142e+00
2.371947386089663379e+00
2.310445509201330516e+00
2.310445509201330516e+00
2.319258278145695407e+00
2.319258278145695407e+00
2.273131870479445649e+00
2.185754203924680450e+00
2.185754203924680450e+00
2.195129490035706787e+00
2.195129490035706787e+00
2.168316171758171151e+00
2.131190038758506766e+00
2.131190038758506766e+00
2.301820245979186552e+00
2.301820245979186552e+00
2.384697775200659287e+00
2.467950315866573430e+00
2.467950315866573430e+00
2.473575487533188788e+00
2.473575487533188788e+00
2.454262398144474666e+00
2.294882534257026929e+00
2.294882534257026929e+00
2.325820978423414065e+00
2.254193792535172935e+00
2.254193792535172935e+00
2.192879421369060555e+00
2.192879421369060555e+00
2.207317361980041248e+00
2.404760887478255782e+00
2.404760887478255782e+00
2.363697134311959935e+00
2.363697134311959935e+00
2.243318460646382295e+00
2.255506332590716312e+00
2.255506332590716312e+00
2.309132969145787140e+00
2.309132969145787140e+00
2.270881801812799416e+00
2.221942808313242423e+00
2.221942808313242423e+00
2.307257911923581428e+00
2.307257911923581428e+00
2.441512009033478758e+00
2.406823450422681532e+00
2.406823450422681532e+00
2.355071871089815971e+00
2.321133335367900674e+00
2.321133335367900674e+00
2.286819788201544412e+00
2.286819788201544412e+00
2.296570085757011714e+00
2.291882442701498768e+00
2.291882442701498768e+00
2.241818414868617992e+00
2.241818414868617992e+00
2.229818048646504014e+00
2.247256080813012868e+00
2.247256080813012868e+00
2.282694662312692468e+00
2.282694662312692468e+00
2.353009308145390222e+00
2.296007568590349823e+00
2.296007568590349823e+00
2.308570451979125249e+00
2.400073244422742391e+00
2.400073244422742391e+00
2.404573381756035300e+00
2.404573381756035300e+00
2.397073152867214230e+00
2.350571733756523507e+00
2.350571733756523507e+00
2.323570909756767389e+00
2.323570909756767389e+00
2.250818689535202921e+00
2.180879055146946577e+00
2.180879055146946577e+00
2.259631458479567812e+00
2.259631458479567812e+00
2.235068208868678852e+00
2.249131138035218136e+00
2.249131138035218136e+00
2.333133701590014208e+00
2.345696584978789634e+00
2.345696584978789634e+00
2.362759605700857524e+00
2.362759605700857524e+00
2.410198553422650658e+00
2.412073610644855925e+00
2.412073610644855925e+00
2.356384411145359792e+00
2.356384411145359792e+00
2.356759422589800756e+00
2.281757133701590057e+00
2.281757133701590057e+00
2.200379650257881181e+00
2.200379650257881181e+00
2.230005554368724940e+00
2.284382213812677254e+00
2.284382213812677254e+00
2.235630726035340299e+00
2.235630726035340299e+00
2.262819055757316900e+00
2.236943266090884119e+00
2.236943266090884119e+00
2.218005188146610962e+00
2.255131321146275347e+00
2.255131321146275347e+00
2.332383678701132279e+00
2.332383678701132279e+00
2.381885189367351607e+00
2.320945829645680192e+00
2.320945829645680192e+00
2.331446150090029423e+00
2.331446150090029423e+00
2.419011322367015993e+00
2.343259010589922919e+00
2.343259010589922919e+00
2.280444593646046680e+00
2.280444593646046680e+00
2.326571001312295994e+00
2.320383312479018745e+00
2.320383312479018745e+00
2.348134159367656792e+00
2.348134159367656792e+00
2.336133793145542814e+00
2.292819971312600735e+00
2.292819971312600735e+00
2.247256080813012868e+00
2.275944456312753772e+00
2.275944456312753772e+00
2.322820886867885459e+00
2.322820886867885459e+00
2.433261757255775315e+00
2.417511276589251690e+00
2.417511276589251690e+00
2.300320200201422249e+00
2.300320200201422249e+00
2.246506057924130939e+00
2.293194982757042144e+00
2.293194982757042144e+00
2.298820154423657947e+00
2.298820154423657947e+00
2.243880977813043742e+00
2.267694204535050773e+00
2.267694204535050773e+00
2.270694296090578934e+00
2.230755577257606870e+00
2.230755577257606870e+00
2.279882076479384789e+00
2.279882076479384789e+00
2.369509811700796664e+00
2.274631916257209951e+00
2.274631916257209951e+00
2.280444593646046680e+00
2.280444593646046680e+00
2.423323953978087530e+00
2.380385143589587305e+00
2.380385143589587305e+00
2.340821436201055761e+00
2.340821436201055761e+00
2.360322031311990809e+00
2.351884273812066883e+00
2.351884273812066883e+00
2.363884640034180418e+00
2.363884640034180418e+00
2.250256172368541474e+00
2.189691824091311467e+00
2.189691824091311467e+00
2.250256172368541474e+00
2.261881527146214044e+00
2.261881527146214044e+00
2.320570818201239227e+00
2.320570818201239227e+00
2.307257911923581428e+00
2.356946928312021239e+00
2.356946928312021239e+00
2.349071687978759204e+00
2.349071687978759204e+00
2.275006927701650916e+00
2.338758873256630455e+00
2.338758873256630455e+00
2.323570909756767389e+00
2.323570909756767389e+00
2.322820886867885459e+00
2.303507797479171337e+00
2.303507797479171337e+00
2.240880886257515137e+00
2.240880886257515137e+00
2.244443494979705633e+00
2.261881527146214044e+00
2.261881527146214044e+00
2.286819788201544412e+00
2.286819788201544412e+00
2.312883083590197675e+00
2.353196813867610704e+00
2.353196813867610704e+00
2.331071138645588459e+00
2.281944639423810539e+00
2.281944639423810539e+00
2.339696401867732423e+00
2.339696401867732423e+00
2.348884182256538722e+00
2.329383587145603673e+00
2.329383587145603673e+00
2.386010315256203107e+00
2.386010315256203107e+00
2.348134159367656792e+00
2.311570543534653854e+00
2.291132419812616394e+00
2.291132419812616394e+00
2.282319650868251504e+00
2.278194524979400004e+00
2.278194524979400004e+00
2.254193792535172935e+00
2.254193792535172935e+00
2.274256904812768987e+00
2.293945005645924073e+00
2.293945005645924073e+00
2.302195257423627517e+00
2.302195257423627517e+00
2.323008392590105942e+00
2.337633838923307117e+00
2.337633838923307117e+00
2.333321207312235135e+00
2.313070589312418157e+00
2.313070589312418157e+00
2.302007751701407035e+00
2.302007751701407035e+00
2.231880611590930208e+00
2.276319467757194737e+00
2.276319467757194737e+00
2.328071047090059853e+00
2.328071047090059853e+00
2.336133793145542814e+00
2.325633472701193583e+00
2.325633472701193583e+00
2.268631733146153184e+00
2.268631733146153184e+00
2.291507431257057803e+00
2.305195348979155678e+00
2.305195348979155678e+00
2.335758781701101849e+00
2.335758781701101849e+00
2.354509353923154524e+00
2.425199011200292798e+00
2.425199011200292798e+00
2.308007934812463802e+00
2.308007934812463802e+00
2.275381939146092325e+00
2.311758049256874337e+00
2.311758049256874337e+00
2.313820612201300086e+00
2.266381664479506952e+00
2.266381664479506952e+00
2.296382580034791232e+00
2.296382580034791232e+00
2.302007751701407035e+00
2.266194158757286470e+00
2.266194158757286470e+00
2.234693197424237443e+00
2.234693197424237443e+00
2.299382671590319838e+00
2.302195257423627517e+00
2.302195257423627517e+00
2.315508163701284872e+00
2.356571916867580274e+00
2.356571916867580274e+00
2.342508987701040546e+00
2.300695211645863214e+00
2.300695211645863214e+00
2.317945738090151586e+00
2.287194799645985377e+00
2.287194799645985377e+00
2.324695944090090727e+00
2.342321481978820064e+00
2.342321481978820064e+00
2.323570909756767389e+00
2.323570909756767389e+00
2.262256538590655452e+00
2.232630634479812137e+00
2.232630634479812137e+00
2.284757225257118218e+00
2.284757225257118218e+00
2.336883816034425188e+00
2.351884273812066883e+00
2.351884273812066883e+00
2.360509537034211291e+00
2.352634296700948813e+00
2.352634296700948813e+00
2.286632282479323930e+00
2.286632282479323930e+00
2.305945371868038052e+00
2.336696310312204705e+00
2.336696310312204705e+00
2.265069124423963132e+00
2.265069124423963132e+00
2.299195165868098911e+00
2.300507705923642732e+00
2.300507705923642732e+00
2.270694296090578934e+00
2.270694296090578934e+00
2.261881527146214044e+00
2.260006469924008776e+00
2.260006469924008776e+00
2.281194616534928166e+00
2.281194616534928166e+00
2.299195165868098911e+00
2.341758964812158617e+00
2.341758964812158617e+00
2.358071962645344577e+00
2.354696859645375007e+00
2.354696859645375007e+00
2.374009949034089573e+00
2.374009949034089573e+00
2.376635029145176325e+00
2.348321665089877275e+00
2.348321665089877275e+00
2.302382763145847999e+00
2.302382763145847999e+00
2.229630542924283532e+00
2.196817041535691573e+00
2.196817041535691573e+00
2.248193609424115724e+00
2.248193609424115724e+00
2.254006286812952009e+00
2.274069399090548504e+00
2.274069399090548504e+00
2.299570177312540320e+00
2.317570726645710621e+00
2.317570726645710621e+00
2.363884640034180418e+00
2.363884640034180418e+00
2.386385326700643628e+00
2.385447798089541660e+00
2.385447798089541660e+00
2.364072145756401344e+00
2.364072145756401344e+00
2.326946012756737403e+00
2.258881435590685438e+00
2.258881435590685438e+00
2.257568895535142062e+00
2.278194524979400004e+00
2.287194799645985377e+00
2.287194799645985377e+00
2.255131321146275347e+00
2.255131321146275347e+00
2.244443494979705633e+00
2.244818506424146598e+00
2.244818506424146598e+00
2.273881893368328022e+00
2.273881893368328022e+00
2.307257911923581428e+00
2.345321573534348669e+00
2.345321573534348669e+00
2.374384960478530537e+00
2.357509445478682686e+00
2.357509445478682686e+00
2.340633930478835278e+00
2.340633930478835278e+00
2.336321298867763296e+00
2.286444776757103448e+00
2.286444776757103448e+00
2.295820062868129341e+00
2.295820062868129341e+00
2.266381664479506952e+00
2.257006378368480615e+00
2.257006378368480615e+00
2.286632282479323930e+00
2.286632282479323930e+00
2.294507522812585520e+00
2.267506698812830290e+00
2.267506698812830290e+00
2.258881435590685438e+00
2.258881435590685438e+00
2.274444410534989469e+00
2.368384777367473326e+00
2.368384777367473326e+00
2.468887844477675397e+00
2.381697683645130681e+00
2.381697683645130681e+00
2.312320566423536228e+00
2.312320566423536228e+00
2.279694570757164307e+00
2.233943174535355514e+00
2.233943174535355514e+00
2.235630726035340299e+00
2.235630726035340299e+00
2.275194433423871843e+00
2.317383220923490139e+00
2.317383220923490139e+00
2.304257820368053267e+00
2.304257820368053267e+00
2.265256630146183614e+00
2.268631733146153184e+00
2.268631733146153184e+00
2.295070039979247412e+00
2.295070039979247412e+00
2.320945829645680192e+00
2.360884548478652700e+00
2.360884548478652700e+00
2.371197363200781449e+00
2.339133884701071420e+00
2.339133884701071420e+00
2.314945646534623425e+00
2.314945646534623425e+00
2.288507339701529197e+00
2.260943998535111632e+00
2.260943998535111632e+00
2.287382305368205859e+00
2.287382305368205859e+00
2.300320200201422249e+00
2.308195440534684284e+00
2.308195440534684284e+00
2.271631824701681346e+00
2.244443494979705633e+00
2.244443494979705633e+00
2.263944090090640238e+00
2.263944090090640238e+00
2.300132694479201767e+00
2.351884273812066883e+00
2.351884273812066883e+00
2.383760246589556875e+00
2.383760246589556875e+00
2.419948850978118404e+00
2.400448255867183356e+00
2.400448255867183356e+00
2.326758507034516477e+00
2.326758507034516477e+00
2.267319193090609808e+00
2.270881801812799416e+00
2.270881801812799416e+00
2.282882168034912951e+00
2.282882168034912951e+00
2.277256996368297592e+00
2.282132145146031021e+00
2.282132145146031021e+00
2.279319559312723342e+00
2.279319559312723342e+00
2.259068941312906365e+00
2.284382213812677254e+00
2.284382213812677254e+00
2.283444685201574842e+00
2.335758781701101849e+00
2.335758781701101849e+00
2.392010498367259874e+00
2.392010498367259874e+00
2.364822168645283273e+00
2.337446333201086635e+00
2.337446333201086635e+00
2.328446058534500818e+00
2.328446058534500818e+00
2.308007934812463802e+00
2.302007751701407035e+00
2.302007751701407035e+00
2.284569719534897736e+00
2.284569719534897736e+00
2.267319193090609808e+00
2.241255897701956545e+00
2.241255897701956545e+00
2.221755302591021497e+00
2.221755302591021497e+00
2.259443952757347329e+00
2.241443403424177028e+00
2.241443403424177028e+00
2.347571642200994901e+00
2.441887020477920167e+00
2.441887020477920167e+00
2.406073427533799602e+00
2.406073427533799602e+00
2.371572374645222414e+00
2.366322214423047576e+00
2.366322214423047576e+00
2.336696310312204705e+00
2.336696310312204705e+00
2.237880794701986531e+00
2.244255989257484707e+00
2.244255989257484707e+00
2.284757225257118218e+00
2.284757225257118218e+00
2.277819513534959039e+00
2.242568437757499922e+00
2.242568437757499922e+00
2.280444593646046680e+00
2.280444593646046680e+00
2.319070772423474924e+00
2.337446333201086635e+00
2.337446333201086635e+00
2.382822717978454019e+00
2.382822717978454019e+00
2.391822992645039392e+00
2.355821893978697901e+00
2.355821893978697901e+00
2.292257454145939732e+00
2.282882168034912951e+00
2.282882168034912951e+00
2.303507797479171337e+00
2.303507797479171337e+00
2.292444959868159771e+00
2.279882076479384789e+00
2.279882076479384789e+00
2.309320474868007622e+00
2.309320474868007622e+00
2.267506698812830290e+00
2.262819055757316900e+00
2.262819055757316900e+00
2.331258644367808941e+00
2.331258644367808941e+00
2.311008026367992407e+00
2.323758415478988315e+00
2.323758415478988315e+00
2.374947477645191540e+00
2.374947477645191540e+00
2.354321848200934042e+00
2.300132694479201767e+00
2.300132694479201767e+00
2.318508255256813033e+00
2.285507248146000592e+00
2.285507248146000592e+00
2.237130771813104602e+00
2.237130771813104602e+00
2.244068483535264225e+00
2.265444135868404540e+00
2.265444135868404540e+00
2.304632831812494231e+00
2.304632831812494231e+00
2.279132053590502860e+00
2.290382396923734465e+00
2.290382396923734465e+00
2.291694936979278285e+00
2.291694936979278285e+00
2.353196813867610704e+00
2.395385601367229444e+00
2.395385601367229444e+00
2.400260750144962874e+00
2.400260750144962874e+00
2.369322305978576182e+00
2.337633838923307117e+00
2.337633838923307117e+00
2.326571001312295994e+00
2.293382488479262626e+00
2.293382488479262626e+00
2.292444959868159771e+00
2.292444959868159771e+00
2.287757316812646824e+00
2.279132053590502860e+00
2.279132053590502860e+00
2.280444593646046680e+00
2.280444593646046680e+00
2.263944090090640238e+00
2.282132145146031021e+00
2.282132145146031021e+00
2.288319833979308715e+00
2.327133518478957885e+00
2.327133518478957885e+00
2.389197912533951751e+00
2.389197912533951751e+00
2.367822260200811879e+00
2.293382488479262626e+00
2.293382488479262626e+00
2.325820978423414065e+00
2.325820978423414065e+00
2.280819605090487201e+00
2.270319284646137969e+00
2.270319284646137969e+00
2.287569811090426342e+00
2.287569811090426342e+00
2.306132877590258534e+00
2.293007477034821662e+00
2.293007477034821662e+00
2.265256630146183614e+00
2.265256630146183614e+00
2.236193243202001746e+00
2.281757133701590057e+00
2.281757133701590057e+00
2.303882808923612302e+00
2.339321390423291458e+00
2.339321390423291458e+00
2.386385326700643628e+00
2.386385326700643628e+00
2.379447614978484449e+00
2.349821710867641578e+00
2.349821710867641578e+00
2.332196172978911797e+00
2.332196172978911797e+00
2.299195165868098911e+00
2.311945554979094819e+00
2.311945554979094819e+00
2.290569902645954947e+00
2.290569902645954947e+00
2.265256630146183614e+00
2.265256630146183614e+00
2.265256630146183614e+00
2.258131412701803509e+00
2.231318094424268317e+00
2.231318094424268317e+00
2.292819971312600735e+00
2.292819971312600735e+00
2.311008026367992407e+00
2.362947111423078006e+00
2.362947111423078006e+00
2.397073152867214230e+00
2.397073152867214230e+00
2.376260017700735361e+00
2.351884273812066883e+00
2.351884273812066883e+00
2.336321298867763296e+00
2.336321298867763296e+00
2.290194891201513983e+00
2.281194616534928166e+00
2.254006286812952009e+00
2.254006286812952009e+00
2.246881069368571904e+00
2.232255623035371173e+00
2.232255623035371173e+00
2.243130954924161813e+00
2.243130954924161813e+00
2.306507889034699499e+00
2.328633564256721744e+00
2.328633564256721744e+00
2.384322763756218322e+00
2.384322763756218322e+00
2.400260750144962874e+00
2.354884365367595489e+00
2.354884365367595489e+00
2.363697134311959935e+00
2.325258461256752618e+00
2.325258461256752618e+00
2.283632190923795324e+00
2.283632190923795324e+00
2.274444410534989469e+00
2.270506790368358452e+00
2.270506790368358452e+00
2.276694479201635701e+00
2.276694479201635701e+00
2.269381756035035114e+00
2.236568254646443155e+00
2.236568254646443155e+00
2.262069032868434526e+00
2.262069032868434526e+00
2.304445326090273749e+00
2.329946104312265120e+00
2.329946104312265120e+00
2.377010040589617734e+00
2.377010040589617734e+00
2.414886196478164049e+00
2.365572191534165203e+00
2.365572191534165203e+00
2.324508438367870244e+00
2.316633198034607766e+00
2.316633198034607766e+00
2.284194708090456771e+00
2.284194708090456771e+00
2.242755943479720404e+00
2.229630542924283532e+00
2.229630542924283532e+00
2.260381481368449741e+00
2.260381481368449741e+00
2.278194524979400004e+00
2.299757683034760802e+00
2.299757683034760802e+00
2.334821253089998994e+00
2.334821253089998994e+00
2.305570360423596643e+00
2.330883632923367976e+00
2.374197454756310055e+00
2.374197454756310055e+00
2.394073061311685624e+00
2.394073061311685624e+00
2.353384319589831186e+00
2.326946012756737403e+00
2.326946012756737403e+00
2.308945463423566213e+00
2.286632282479323930e+00
2.274256904812768987e+00
2.274256904812768987e+00
2.272194341868343237e+00
2.272194341868343237e+00
2.277819513534959039e+00
2.252131229590746742e+00
2.252131229590746742e+00
2.253631275368511044e+00
2.253631275368511044e+00
2.300695211645863214e+00
2.326946012756737403e+00
2.326946012756737403e+00
2.365759697256386129e+00
2.399885738700521909e+00
2.399885738700521909e+00
2.373259926145207199e+00
2.373259926145207199e+00
2.324133426923429280e+00
2.321695852534562121e+00
2.321695852534562121e+00
2.297507614368114126e+00
2.297507614368114126e+00
2.289069856868190644e+00
2.262444044312875935e+00
2.262444044312875935e+00
2.263006561479537382e+00
2.263006561479537382e+00
2.258693929868464956e+00
2.215380108035523765e+00
2.215380108035523765e+00
2.257193884090700653e+00
2.257193884090700653e+00
2.304070314645832784e+00
2.332383678701132279e+00
2.332383678701132279e+00
2.393885555589465142e+00
2.426324045533616136e+00
2.426324045533616136e+00
2.382447706534013054e+00
2.382447706534013054e+00
2.353571825312051669e+00
2.299007660145878429e+00
2.299007660145878429e+00
2.271069307535019899e+00
2.271069307535019899e+00
2.260381481368449741e+00
2.234505691702016961e+00
2.234505691702016961e+00
2.236380748924222672e+00
2.236380748924222672e+00
2.221192785424360050e+00
2.208817407757805107e+00
2.208817407757805107e+00
2.263569078646198829e+00
2.333508713034455617e+00
2.333508713034455617e+00
2.377572557756279181e+00
2.377572557756279181e+00
2.406260933256020085e+00
2.378135074922940628e+00
2.378135074922940628e+00
2.355634388256477418e+00
2.355634388256477418e+00
2.353759331034272151e+00
2.320945829645680192e+00
2.320945829645680192e+00
2.284382213812677254e+00
2.273881893368328022e+00
2.268631733146153184e+00
2.262444044312875935e+00
2.262444044312875935e+00
2.255881344035157721e+00
2.255881344035157721e+00
2.256818872646260132e+00
2.302007751701407035e+00
2.302007751701407035e+00
2.316820703756828248e+00
2.316820703756828248e+00
2.369134800256355700e+00
2.404948393200476264e+00
2.404948393200476264e+00
2.365009674367503756e+00
2.365009674367503756e+00
2.307632923368022837e+00
2.290569902645954947e+00
2.290569902645954947e+00
2.293007477034821662e+00
2.293007477034821662e+00
2.294320017090365038e+00
2.275944456312753772e+00
2.275944456312753772e+00
2.283069673757133433e+00
2.292444959868159771e+00
2.292444959868159771e+00
2.257943906979583026e+00
2.257943906979583026e+00
2.266569170201727434e+00
2.298070131534776017e+00
2.298070131534776017e+00
2.313445600756859122e+00
2.313445600756859122e+00
2.348134159367656792e+00
2.387322855311746483e+00
2.387322855311746483e+00
2.370072328867458111e+00
2.370072328867458111e+00
2.337071321756645670e+00
2.326758507034516477e+00
2.326758507034516477e+00
2.303507797479171337e+00
2.303507797479171337e+00
2.297320108645893644e+00
2.287944822534867306e+00
2.287944822534867306e+00
2.278194524979400004e+00
2.278194524979400004e+00
2.247068575090792386e+00
2.226255439924313961e+00
2.226255439924313961e+00
2.253443769646290562e+00
2.279882076479384789e+00
2.279882076479384789e+00
2.304820337534714714e+00
2.304820337534714714e+00
2.360697042756431774e+00
2.378322580645161111e+00
2.378322580645161111e+00
2.340633930478835278e+00
2.340633930478835278e+00
2.330133610034486047e+00
2.334446241645558029e+00
2.334446241645558029e+00
2.320758323923459709e+00
2.319445783867915889e+00
2.319445783867915889e+00
2.290007385479293500e+00
2.300320200201422249e+00
2.300320200201422249e+00
2.282507156590471986e+00
2.282507156590471986e+00
2.227192968535416817e+00
2.286069765312662039e+00
2.286069765312662039e+00
2.314570635090182460e+00
2.314570635090182460e+00
2.336508804589983779e+00
2.378510086367381593e+00
2.378510086367381593e+00
2.370822351756340485e+00
2.370822351756340485e+00
2.330321115756706529e+00
2.320008301034577336e+00
2.320008301034577336e+00
2.302007751701407035e+00
2.285694753868221074e+00
2.285694753868221074e+00
2.292257454145939732e+00
2.292257454145939732e+00
2.273131870479445649e+00
2.269381756035035114e+00
2.269381756035035114e+00
2.260381481368449741e+00
2.260381481368449741e+00
2.259256447035126847e+00
2.297882625812555535e+00
2.297882625812555535e+00
2.309132969145787140e+00
2.309132969145787140e+00
2.348321665089877275e+00
2.362197088534196077e+00
2.362197088534196077e+00
2.330883632923367976e+00
2.330883632923367976e+00
2.332196172978911797e+00
2.307445417645802355e+00
2.307445417645802355e+00
2.287194799645985377e+00
2.287194799645985377e+00
2.296382580034791232e+00
2.312320566423536228e+00
2.312320566423536228e+00
2.285882259590441556e+00
2.275569444868312807e+00
2.275569444868312807e+00
2.234693197424237443e+00
2.234693197424237443e+00
2.256256355479598685e+00
2.318320749534592551e+00
2.318320749534592551e+00
2.329008575701162709e+00
2.329008575701162709e+00
2.383947752311777357e+00
2.409261024811548246e+00
2.409261024811548246e+00
2.365759697256386129e+00
2.365759697256386129e+00
2.320758323923459709e+00
2.301632740256966070e+00
2.301632740256966070e+00
2.284944730979339145e+00
2.281944639423810539e+00
2.258693929868464956e+00
2.272194341868343237e+00
2.272194341868343237e+00
2.252318735312967224e+00
2.252318735312967224e+00
2.232443128757591655e+00
2.262631550035096417e+00
2.262631550035096417e+00
2.293945005645924073e+00
2.293945005645924073e+00
2.327883541367839371e+00
2.383385235145115466e+00
2.383385235145115466e+00
2.412636127811517817e+00
2.383197729422894984e+00
2.383197729422894984e+00
2.354321848200934042e+00
2.354321848200934042e+00
2.330133610034486047e+00
2.308757957701345731e+00
2.308757957701345731e+00
2.299007660145878429e+00
2.299007660145878429e+00
2.280069582201605716e+00
2.265631641590625023e+00
2.265631641590625023e+00
2.254381298257393418e+00
2.254381298257393418e+00
2.197004547257912055e+00
2.232818140202032620e+00
2.232818140202032620e+00
2.276131962034974254e+00
2.276131962034974254e+00
2.357321939756462204e+00
2.392385509811700839e+00
2.392385509811700839e+00
2.367259743034150432e+00
2.367259743034150432e+00
2.353009308145390222e+00
2.351321756645405436e+00
2.351321756645405436e+00
2.317383220923490139e+00
2.312320566423536228e+00
2.312320566423536228e+00
2.300320200201422249e+00
2.300320200201422249e+00
2.281569627979369130e+00
2.269944273201696561e+00
2.269944273201696561e+00
2.236755760368663637e+00
2.236755760368663637e+00
2.246131046479689974e+00
2.294320017090365038e+00
2.294320017090365038e+00
2.295632557145908859e+00
2.295632557145908859e+00
2.340633930478835278e+00
2.374759971922971058e+00
2.374759971922971058e+00
2.363884640034180418e+00
2.363884640034180418e+00
2.350196722312082542e+00
2.335758781701101849e+00
2.335758781701101849e+00
2.301257728812525105e+00
2.299007660145878429e+00
2.299007660145878429e+00
2.292444959868159771e+00
2.279507065034943825e+00
2.279507065034943825e+00
2.263381572923978347e+00
2.263381572923978347e+00
2.233193151646474028e+00
2.244631000701926116e+00
2.244631000701926116e+00
2.327508529923398850e+00
2.327508529923398850e+00
2.321695852534562121e+00
2.340633930478835278e+00
2.340633930478835278e+00
2.362572099978637485e+00
2.350009216589862060e+00
2.350009216589862060e+00
2.327133518478957885e+00
2.327133518478957885e+00
2.301070223090304623e+00
2.288882351145970162e+00
2.288882351145970162e+00
2.280819605090487201e+00
2.280819605090487201e+00
2.264319101535081202e+00
2.270694296090578934e+00
2.270694296090578934e+00
2.255318826868495830e+00
2.255318826868495830e+00
2.241255897701956545e+00
2.286819788201544412e+00
2.286819788201544412e+00
2.325633472701193583e+00
2.349259193700979687e+00
2.349259193700979687e+00
2.403073335978270997e+00
2.403073335978270997e+00
2.401385784478286212e+00
2.362384594256416559e+00
2.362384594256416559e+00
2.329383587145603673e+00
2.329383587145603673e+00
2.302007751701407035e+00
2.283632190923795324e+00
2.283632190923795324e+00
2.274256904812768987e+00
2.274256904812768987e+00
2.260568987090670667e+00
2.259443952757347329e+00
2.259443952757347329e+00
2.236005737479781263e+00
2.236005737479781263e+00
2.242193426313058957e+00
2.300882717368083696e+00
2.300882717368083696e+00
2.314570635090182460e+00
2.347196630756553937e+00
2.347196630756553937e+00
2.385635303811762142e+00
2.385635303811762142e+00
2.382447706534013054e+00
2.362384594256416559e+00
2.362384594256416559e+00
2.349821710867641578e+00
2.349821710867641578e+00
2.308007934812463802e+00
2.293757499923703591e+00
2.293757499923703591e+00
2.268631733146153184e+00
2.268631733146153184e+00
2.271444318979460864e+00
2.244068483535264225e+00
2.244068483535264225e+00
2.253256263924070080e+00
2.253256263924070080e+00
2.307070406201360946e+00
2.328821069978942226e+00
2.328821069978942226e+00
2.357134434034241721e+00
2.357134434034241721e+00
2.355821893978697901e+00
2.349634205145421095e+00
2.349634205145421095e+00
2.330883632923367976e+00
2.330883632923367976e+00
2.334258735923337547e+00
2.295257545701467894e+00
2.295257545701467894e+00
2.285507248146000592e+00
2.284944730979339145e+00
2.284944730979339145e+00
2.279882076479384789e+00
2.279882076479384789e+00
2.265631641590625023e+00
2.242005920590838475e+00
2.242005920590838475e+00
2.276319467757194737e+00
2.276319467757194737e+00
2.316445692312387283e+00
2.328446058534500818e+00
2.328446058534500818e+00
2.375134983367412023e+00
2.375134983367412023e+00
2.395198095645008962e+00
2.363322122867518971e+00
2.363322122867518971e+00
2.334821253089998994e+00
2.334821253089998994e+00
2.308945463423566213e+00
2.307820429090243319e+00
2.307820429090243319e+00
2.280069582201605716e+00
2.256631366924039650e+00
2.256631366924039650e+00
2.263756584368419311e+00
2.263756584368419311e+00
2.240693380535294654e+00
2.230193060090945423e+00
2.230193060090945423e+00
2.279882076479384789e+00
2.279882076479384789e+00
2.297507614368114126e+00
2.335571275978881367e+00
2.335571275978881367e+00
2.388822901089510786e+00
2.388822901089510786e+00
2.387322855311746483e+00
2.360134525589770327e+00
2.360134525589770327e+00
2.336321298867763296e+00
2.336321298867763296e+00
2.297695120090334608e+00
2.277069490646077110e+00
2.277069490646077110e+00
2.276506973479415219e+00
2.261506515701773079e+00
2.261506515701773079e+00
2.272006836146122755e+00
2.239005829035309869e+00
2.239005829035309869e+00
2.259068941312906365e+00
2.259068941312906365e+00
2.315883175145725836e+00
2.322445875423444495e+00
2.322445875423444495e+00
2.381322672200689716e+00
2.381322672200689716e+00
2.407948484756004870e+00
2.353196813867610704e+00
2.353196813867610704e+00
2.305195348979155678e+00
2.295820062868129341e+00
2.295820062868129341e+00
2.271444318979460864e+00
2.271444318979460864e+00
2.250256172368541474e+00
2.241255897701956545e+00
2.241255897701956545e+00
2.257943906979583026e+00
2.257943906979583026e+00
2.265069124423963132e+00
2.242568437757499922e+00
2.242568437757499922e+00
2.275381939146092325e+00
2.275381939146092325e+00
2.323945921201208797e+00
2.345321573534348669e+00
2.345321573534348669e+00
2.394635578478347071e+00
2.394635578478347071e+00
2.410198553422650658e+00
2.363134617145298488e+00
2.363134617145298488e+00
2.319820795312356854e+00
2.319820795312356854e+00
2.321320841090121156e+00
2.286819788201544412e+00
2.286819788201544412e+00
2.278944547868282378e+00
2.265819147312845505e+00
2.265819147312845505e+00
2.263569078646198829e+00
2.263569078646198829e+00
2.260568987090670667e+00
2.247631092257453833e+00
2.247631092257453833e+00
2.280257087923826198e+00
2.280257087923826198e+00
2.307445417645802355e+00
2.342508987701040546e+00
2.342508987701040546e+00
2.385447798089541660e+00
2.385447798089541660e+00
2.387322855311746483e+00
2.352071779534287366e+00
2.352071779534287366e+00
2.333883724478896582e+00
2.333883724478896582e+00
2.291694936979278285e+00
2.278944547868282378e+00
2.278944547868282378e+00
2.283819696646015807e+00
2.276694479201635701e+00
2.276694479201635701e+00
2.267881710257271255e+00
2.239755851924192243e+00
2.239755851924192243e+00
2.248381115146336207e+00
2.248381115146336207e+00
2.312508072145756710e+00
2.327133518478957885e+00
2.327133518478957885e+00
2.336883816034425188e+00
2.377760063478499664e+00
2.377760063478499664e+00
2.377010040589617734e+00
2.377010040589617734e+00
2.327321024201178368e+00
2.307632923368022837e+00
2.307632923368022837e+00
2.289632374034852091e+00
2.289632374034852091e+00
2.282882168034912951e+00
2.269756767479476078e+00
2.269756767479476078e+00
2.270694296090578934e+00
2.270694296090578934e+00
2.276319467757194737e+00
2.244068483535264225e+00
2.244068483535264225e+00
2.264694112979522167e+00
2.264694112979522167e+00
2.320945829645680192e+00
2.336508804589983779e+00
2.336508804589983779e+00
2.391635486922818910e+00
2.401948301644947659e+00
2.401948301644947659e+00
2.361822077089755112e+00
2.361822077089755112e+00
2.342883999145481511e+00
2.326758507034516477e+00
2.326758507034516477e+00
2.290757408368175430e+00
2.290757408368175430e+00
2.272381847590563719e+00
2.246881069368571904e+00
2.246881069368571904e+00
2.248943632312997654e+00
2.248943632312997654e+00
2.240130863368633207e+00
2.215942625202185212e+00
2.215942625202185212e+00
2.273506881923887057e+00
2.317945738090151586e+00
2.317945738090151586e+00
2.331446150090029423e+00
2.331446150090029423e+00
2.368009765923032361e+00
2.386572832422864110e+00
2.386572832422864110e+00
2.356759422589800756e+00
2.356759422589800756e+00
2.336321298867763296e+00
2.321320841090121156e+00
2.321320841090121156e+00
2.297695120090334608e+00
2.297695120090334608e+00
2.282694662312692468e+00
2.262256538590655452e+00
2.262256538590655452e+00
2.265444135868404540e+00
2.265444135868404540e+00
2.240505874813074172e+00
2.233943174535355514e+00
2.233943174535355514e+00
2.289257362590411127e+00
2.315695669423505798e+00
2.315695669423505798e+00
2.348134159367656792e+00
2.348134159367656792e+00
2.392760521256141804e+00
2.390885464033936536e+00
2.390885464033936536e+00
2.366134708700827094e+00
2.366134708700827094e+00
2.341196447645496725e+00
2.288507339701529197e+00
2.288507339701529197e+00
2.269194250312814631e+00
2.269194250312814631e+00
2.236943266090884119e+00
2.242568437757499922e+00
2.242568437757499922e+00
2.256631366924039650e+00
2.244255989257484707e+00
2.244255989257484707e+00
2.261881527146214044e+00
2.261881527146214044e+00
2.321508346812341639e+00
2.322258369701224012e+00
2.322258369701224012e+00
2.360509537034211291e+00
2.360509537034211291e+00
2.380947660756248752e+00
2.373447431867427682e+00
2.373447431867427682e+00
2.344384044923245813e+00
2.344384044923245813e+00
2.328821069978942226e+00
2.293382488479262626e+00
2.293382488479262626e+00
2.269194250312814631e+00
2.269194250312814631e+00
2.259068941312906365e+00
2.256068849757378203e+00
2.256068849757378203e+00
2.259068941312906365e+00
2.259068941312906365e+00
2.244443494979705633e+00
2.263381572923978347e+00
2.263381572923978347e+00
2.311195532090212890e+00
2.312133060701315301e+00
2.312133060701315301e+00
2.364447157200842309e+00
2.364447157200842309e+00
2.377385052034058699e+00
2.358259468367565059e+00
2.358259468367565059e+00
2.333696218756676100e+00
2.333696218756676100e+00
2.314195623645741495e+00
2.292444959868159771e+00
2.292444959868159771e+00
2.276881984923856628e+00
2.276881984923856628e+00
2.266194158757286470e+00
2.271256813257240381e+00
2.271256813257240381e+00
2.261131504257332114e+00
2.242755943479720404e+00
2.242755943479720404e+00
2.283444685201574842e+00
2.283444685201574842e+00
2.311570543534653854e+00
2.333321207312235135e+00
2.333321207312235135e+00
2.382635212256233537e+00
2.382635212256233537e+00
2.390135441145054607e+00
2.347759147923215384e+00
2.347759147923215384e+00
2.340633930478835278e+00
2.340633930478835278e+00
2.315133152256843907e+00
2.292444959868159771e+00
2.292444959868159771e+00
2.288507339701529197e+00
2.274819421979430434e+00
2.274819421979430434e+00
2.277632007812738557e+00
2.277632007812738557e+00
2.240505874813074172e+00
2.221755302591021497e+00
2.221755302591021497e+00
2.281757133701590057e+00
2.281757133701590057e+00
2.305945371868038052e+00
2.338946378978850937e+00
2.338946378978850937e+00
2.372509903256325270e+00
2.372509903256325270e+00
2.365197180089724238e+00
2.325258461256752618e+00
2.325258461256752618e+00
2.317195715201269657e+00
2.317195715201269657e+00
2.303320291756950855e+00
2.296570085757011714e+00
2.296570085757011714e+00
2.270694296090578934e+00
2.256631366924039650e+00
2.256631366924039650e+00
2.263944090090640238e+00
2.263944090090640238e+00
2.245568529313028083e+00
2.254568803979613900e+00
2.254568803979613900e+00
2.306132877590258534e+00
2.306132877590258534e+00
2.314758140812402942e+00
2.353571825312051669e+00
2.353571825312051669e+00
2.380572649311807787e+00
2.380572649311807787e+00
2.374572466200750576e+00
2.347946653645436310e+00
2.347946653645436310e+00
2.332196172978911797e+00
2.299007660145878429e+00
2.299007660145878429e+00
2.285694753868221074e+00
2.285694753868221074e+00
2.273131870479445649e+00
2.270506790368358452e+00
2.270506790368358452e+00
2.263006561479537382e+00
2.263006561479537382e+00
2.234880703146458369e+00
2.259256447035126847e+00
2.259256447035126847e+00
2.298632648701437464e+00
2.298632648701437464e+00
2.329196081423383191e+00
2.380197637867366822e+00
2.380197637867366822e+00
2.378697592089602519e+00
2.350196722312082542e+00
2.350196722312082542e+00
2.323758415478988315e+00
2.323758415478988315e+00
2.297882625812555535e+00
2.278007019257179522e+00
2.278007019257179522e+00
2.274444410534989469e+00
2.274444410534989469e+00
2.263944090090640238e+00
2.260006469924008776e+00
2.260006469924008776e+00
2.248381115146336207e+00
2.248381115146336207e+00
2.239380840479750834e+00
2.278757042146061895e+00
2.278757042146061895e+00
2.308570451979125249e+00
2.308570451979125249e+00
2.336696310312204705e+00
2.387510361033966966e+00
2.387510361033966966e+00
2.392010498367259874e+00
2.358821985534226506e+00
2.358821985534226506e+00
2.333508713034455617e+00
2.333508713034455617e+00
2.302195257423627517e+00
2.285319742423780109e+00
2.285319742423780109e+00
2.267131687368389326e+00
2.267131687368389326e+00
2.252693746757408633e+00
2.266006653035065987e+00
2.266006653035065987e+00
2.246506057924130939e+00
2.246506057924130939e+00
2.249693655201880027e+00
2.301070223090304623e+00
2.301070223090304623e+00
2.319445783867915889e+00
2.319445783867915889e+00
2.360134525589770327e+00
2.398573198644978088e+00
2.398573198644978088e+00
2.379635120700704931e+00
2.340446424756614796e+00
2.340446424756614796e+00
2.319445783867915889e+00
2.319445783867915889e+00
2.287007293923764895e+00
2.275569444868312807e+00
2.275569444868312807e+00
2.262819055757316900e+00
2.262819055757316900e+00
2.256256355479598685e+00
2.258131412701803509e+00
2.258131412701803509e+00
2.229818048646504014e+00
2.252693746757408633e+00
2.305007843256935196e+00
2.305007843256935196e+00
2.313070589312418157e+00
2.313070589312418157e+00
2.367634754478591397e+00
2.391635486922818910e+00
2.391635486922818910e+00
2.369884823145237629e+00
2.369884823145237629e+00
2.340258919034394314e+00
2.324508438367870244e+00
2.324508438367870244e+00
2.291319925534837321e+00
2.291319925534837321e+00
2.284569719534897736e+00
2.269569261757255596e+00
2.269569261757255596e+00
2.272194341868343237e+00
2.272194341868343237e+00
2.264694112979522167e+00
2.241443403424177028e+00
2.241443403424177028e+00
2.266944181646168399e+00
2.266944181646168399e+00
2.303882808923612302e+00
2.329758598590044638e+00
2.329758598590044638e+00
2.380760155034028269e+00
2.381322672200689716e+00
2.381322672200689716e+00
2.356384411145359792e+00
2.356384411145359792e+00
2.329946104312265120e+00
2.297882625812555535e+00
2.297882625812555535e+00
2.280444593646046680e+00
2.280444593646046680e+00
2.280632099368266719e+00
2.264319101535081202e+00
2.264319101535081202e+00
2.266944181646168399e+00
2.266944181646168399e+00
2.252131229590746742e+00
2.250256172368541474e+00
2.250256172368541474e+00
2.306320383312479017e+00
2.306320383312479017e+00
2.329008575701162709e+00
2.360509537034211291e+00
2.360509537034211291e+00
2.392948026978362286e+00
2.379822626422925413e+00
2.379822626422925413e+00
2.345321573534348669e+00
2.320383312479018745e+00
2.320383312479018745e+00
2.281757133701590057e+00
2.281757133701590057e+00
2.276694479201635701e+00
2.268256721701712220e+00
2.268256721701712220e+00
2.246881069368571904e+00
2.248568620868556689e+00
2.248568620868556689e+00
2.229818048646504014e+00
2.229818048646504014e+00
2.244255989257484707e+00
2.308945463423566213e+00
2.308945463423566213e+00
2.320383312479018745e+00
2.362197088534196077e+00
2.362197088534196077e+00
2.392198004089480357e+00
2.392198004089480357e+00
2.359947019867549844e+00
2.338571367534409973e+00
2.338571367534409973e+00
2.324320932645649762e+00
2.324320932645649762e+00
2.296195074312570750e+00
2.284382213812677254e+00
2.284382213812677254e+00
2.270506790368358452e+00
2.270506790368358452e+00
2.259443952757347329e+00
2.246693563646351421e+00
2.246693563646351421e+00
2.231505600146489243e+00
2.231505600146489243e+00
2.267881710257271255e+00
2.323383404034546906e+00
2.323383404034546906e+00
2.331633655812249906e+00
2.382635212256233537e+00
2.382635212256233537e+00
2.396510635700552783e+00
2.396510635700552783e+00
2.369134800256355700e+00
2.340446424756614796e+00
2.340446424756614796e+00
2.315883175145725836e+00
