2.246693563646351421e+00
2.246693563646351421e+00
2.239943357646412725e+00
2.239943357646412725e+00
2.239943357646412725e+00
2.239943357646412725e+00
2.229818048646504014e+00
2.229818048646504014e+00
2.229818048646504014e+00
2.257943906979583026e+00
2.257943906979583026e+00
2.257943906979583026e+00
2.307445417645802355e+00
2.307445417645802355e+00
2.307445417645802355e+00
2.307445417645802355e+00
2.325258461256752618e+00
2.325258461256752618e+00
2.325258461256752618e+00
2.328446058534500818e+00
2.328446058534500818e+00
2.328446058534500818e+00
2.328446058534500818e+00
2.312133060701315301e+00
2.312133060701315301e+00
2.312133060701315301e+00
2.315133152256843907e+00
2.315133152256843907e+00
2.315133152256843907e+00
2.315133152256843907e+00
2.308570451979125249e+00
2.308570451979125249e+00
2.308570451979125249e+00
2.312695577867977192e+00
2.312695577867977192e+00
2.312695577867977192e+00
2.272381847590563719e+00
2.272381847590563719e+00
2.272381847590563719e+00
2.272381847590563719e+00
2.267506698812830290e+00
2.267506698812830290e+00
2.267506698812830290e+00
2.263006561479537382e+00
2.263006561479537382e+00
2.263006561479537382e+00
2.263006561479537382e+00
2.278382030701620931e+00
2.278382030701620931e+00
2.278382030701620931e+00
2.289069856868190644e+00
2.289069856868190644e+00
2.289069856868190644e+00
2.289069856868190644e+00
2.275569444868312807e+00
2.275569444868312807e+00
2.275569444868312807e+00
2.287944822534867306e+00
2.287944822534867306e+00
2.287944822534867306e+00
2.312883083590197675e+00
2.312883083590197675e+00
2.312883083590197675e+00
2.312883083590197675e+00
2.329383587145603673e+00
2.329383587145603673e+00
2.329383587145603673e+00
2.333321207312235135e+00
2.333321207312235135e+00
2.333321207312235135e+00
2.333321207312235135e+00
2.307445417645802355e+00
2.307445417645802355e+00
2.307445417645802355e+00
2.297695120090334608e+00
2.297695120090334608e+00
2.297695120090334608e+00
2.297695120090334608e+00
2.284757225257118218e+00
2.284757225257118218e+00
2.284757225257118218e+00
2.266381664479506952e+00
2.266381664479506952e+00
2.266381664479506952e+00
2.266381664479506952e+00
2.243130954924161813e+00
2.243130954924161813e+00
2.243130954924161813e+00
2.260006469924008776e+00
2.260006469924008776e+00
2.260006469924008776e+00
2.260943998535111632e+00
2.260943998535111632e+00
2.272006836146122755e+00
2.272006836146122755e+00
2.272006836146122755e+00
2.272006836146122755e+00
2.270694296090578934e+00
2.270694296090578934e+00
2.270694296090578934e+00
2.258693929868464956e+00
2.258693929868464956e+00
2.258693929868464956e+00
2.258693929868464956e+00
2.278382030701620931e+00
2.278382030701620931e+00
2.278382030701620931e+00
2.302757774590289408e+00
2.302757774590289408e+00
2.302757774590289408e+00
2.302757774590289408e+00
2.321695852534562121e+00
2.321695852534562121e+00
2.321695852534562121e+00
2.353759331034272151e+00
2.353759331034272151e+00
2.353759331034272151e+00
2.357696951200903612e+00
2.357696951200903612e+00
2.357696951200903612e+00
2.357696951200903612e+00
2.354509353923154524e+00
2.354509353923154524e+00
2.354509353923154524e+00
2.341008941923276243e+00
2.341008941923276243e+00
2.341008941923276243e+00
2.341008941923276243e+00
2.291507431257057803e+00
2.291507431257057803e+00
2.291507431257057803e+00
2.258506424146244473e+00
2.258506424146244473e+00
2.258506424146244473e+00
2.273319376201666131e+00
2.273319376201666131e+00
2.273319376201666131e+00
2.273319376201666131e+00
2.235068208868678852e+00
2.235068208868678852e+00
2.241068391979735619e+00
2.241068391979735619e+00
2.250443678090761956e+00
2.250443678090761956e+00
2.250443678090761956e+00
2.250443678090761956e+00
2.242380932035279439e+00
2.242380932035279439e+00
2.242380932035279439e+00
2.281757133701590057e+00
2.281757133701590057e+00
2.281757133701590057e+00
2.331821161534470832e+00
2.331821161534470832e+00
2.331821161534470832e+00
2.336133793145542814e+00
2.336133793145542814e+00
2.336133793145542814e+00
2.336133793145542814e+00
2.312320566423536228e+00
2.312320566423536228e+00
2.312320566423536228e+00
2.306507889034699499e+00
2.306507889034699499e+00
2.306507889034699499e+00
2.306507889034699499e+00
2.306132877590258534e+00
2.306132877590258534e+00
2.306132877590258534e+00
2.317008209479048730e+00
2.317008209479048730e+00
2.317008209479048730e+00
2.319633289590136371e+00
2.319633289590136371e+00
2.319633289590136371e+00
2.319633289590136371e+00
2.179191503646961792e+00
2.179191503646961792e+00
2.179191503646961792e+00
2.214630085146641392e+00
2.214630085146641392e+00
2.214630085146641392e+00
2.318695760979033516e+00
2.318695760979033516e+00
2.318695760979033516e+00
2.318695760979033516e+00
2.297507614368114126e+00
2.297507614368114126e+00
2.297507614368114126e+00
2.268256721701712220e+00
2.268256721701712220e+00
2.268256721701712220e+00
2.252131229590746742e+00
2.252131229590746742e+00
2.252131229590746742e+00
2.252131229590746742e+00
2.283069673757133433e+00
2.283069673757133433e+00
2.283069673757133433e+00
2.321508346812341639e+00
2.321508346812341639e+00
2.321508346812341639e+00
2.321508346812341639e+00
2.353571825312051669e+00
2.353571825312051669e+00
2.353571825312051669e+00
2.332946195867793726e+00
2.332946195867793726e+00
2.332946195867793726e+00
2.309882992034669069e+00
2.309882992034669069e+00
2.309882992034669069e+00
2.309882992034669069e+00
2.255318826868495830e+00
2.255318826868495830e+00
2.255318826868495830e+00
2.210317453535568966e+00
2.210317453535568966e+00
2.210317453535568966e+00
2.210317453535568966e+00
2.219130222479934300e+00
2.219130222479934300e+00
2.219130222479934300e+00
2.226817957090975852e+00
2.226817957090975852e+00
2.226817957090975852e+00
2.329008575701162709e+00
2.329008575701162709e+00
2.329008575701162709e+00
2.329008575701162709e+00
2.333883724478896582e+00
2.333883724478896582e+00
2.333883724478896582e+00
2.303507797479171337e+00
2.303507797479171337e+00
2.303507797479171337e+00
2.303507797479171337e+00
2.157253334147160473e+00
2.157253334147160473e+00
2.157253334147160473e+00
2.237693288979766049e+00
2.237693288979766049e+00
2.237693288979766049e+00
2.425386516922513280e+00
2.425386516922513280e+00
2.425386516922513280e+00
2.425386516922513280e+00
2.421261391033662225e+00
2.421261391033662225e+00
2.421261391033662225e+00
2.392573015533921321e+00
2.392573015533921321e+00
2.392573015533921321e+00
2.357509445478682686e+00
2.357509445478682686e+00
2.357509445478682686e+00
2.345509079256569152e+00
2.345509079256569152e+00
2.345509079256569152e+00
2.326758507034516477e+00
2.326758507034516477e+00
2.326758507034516477e+00
2.326758507034516477e+00
2.305570360423596643e+00
2.305570360423596643e+00
2.305570360423596643e+00
2.280069582201605716e+00
2.280069582201605716e+00
2.280069582201605716e+00
2.280069582201605716e+00
2.264319101535081202e+00
2.264319101535081202e+00
2.264319101535081202e+00
2.254568803979613900e+00
2.254568803979613900e+00
2.254568803979613900e+00
2.250443678090761956e+00
2.250443678090761956e+00
2.250443678090761956e+00
2.250443678090761956e+00
2.245568529313028083e+00
2.245568529313028083e+00
2.245568529313028083e+00
2.233380657368694511e+00
2.233380657368694511e+00
2.233380657368694511e+00
2.180691549424726094e+00
2.180691549424726094e+00
2.180691549424726094e+00
2.180691549424726094e+00
2.301820245979186552e+00
2.301820245979186552e+00
2.301820245979186552e+00
2.289632374034852091e+00
2.289632374034852091e+00
2.289632374034852091e+00
2.259256447035126847e+00
2.259256447035126847e+00
2.259256447035126847e+00
2.259256447035126847e+00
2.322445875423444495e+00
2.322445875423444495e+00
2.322445875423444495e+00
2.308757957701345731e+00
2.308757957701345731e+00
2.308757957701345731e+00
2.308757957701345731e+00
2.329008575701162709e+00
2.329008575701162709e+00
2.329008575701162709e+00
2.373822443311869090e+00
2.373822443311869090e+00
2.373822443311869090e+00
2.288132328257088233e+00
2.288132328257088233e+00
2.288132328257088233e+00
2.288132328257088233e+00
2.314570635090182460e+00
2.314570635090182460e+00
2.314570635090182460e+00
2.297132602923673161e+00
2.297132602923673161e+00
2.297132602923673161e+00
2.297132602923673161e+00
2.323570909756767389e+00
2.323570909756767389e+00
2.323570909756767389e+00
2.282319650868251504e+00
2.282319650868251504e+00
2.282319650868251504e+00
2.276506973479415219e+00
2.276506973479415219e+00
2.276506973479415219e+00
2.276506973479415219e+00
2.275381939146092325e+00
2.275381939146092325e+00
2.275381939146092325e+00
2.277069490646077110e+00
2.277069490646077110e+00
2.277069490646077110e+00
2.277069490646077110e+00
2.311195532090212890e+00
2.311195532090212890e+00
2.311195532090212890e+00
2.324695944090090727e+00
2.324695944090090727e+00
2.324695944090090727e+00
2.249881160924100509e+00
2.249881160924100509e+00
2.249881160924100509e+00
2.249881160924100509e+00
2.238443311868648422e+00
2.238443311868648422e+00
2.238443311868648422e+00
2.349259193700979687e+00
2.349259193700979687e+00
2.349259193700979687e+00
2.337821344645527599e+00
2.337821344645527599e+00
2.337821344645527599e+00
2.337821344645527599e+00
2.339696401867732423e+00
2.339696401867732423e+00
2.339696401867732423e+00
2.310445509201330516e+00
2.310445509201330516e+00
2.310445509201330516e+00
2.310445509201330516e+00
2.238255806146427940e+00
2.238255806146427940e+00
2.238255806146427940e+00
2.290194891201513983e+00
2.290194891201513983e+00
2.290194891201513983e+00
2.282319650868251504e+00
2.282319650868251504e+00
2.282319650868251504e+00
2.282319650868251504e+00
2.278194524979400004e+00
2.278194524979400004e+00
2.278194524979400004e+00
2.311570543534653854e+00
2.311570543534653854e+00
2.311570543534653854e+00
2.311570543534653854e+00
2.325070955534531691e+00
2.325070955534531691e+00
2.325070955534531691e+00
2.348696676534318240e+00
2.348696676534318240e+00
2.348696676534318240e+00
2.329571092867824156e+00
2.329571092867824156e+00
2.329571092867824156e+00
2.329571092867824156e+00
2.326571001312295994e+00
2.326571001312295994e+00
2.326571001312295994e+00
2.305007843256935196e+00
2.305007843256935196e+00
2.305007843256935196e+00
2.305007843256935196e+00
2.296195074312570750e+00
2.296195074312570750e+00
2.296195074312570750e+00
2.262631550035096417e+00
2.262631550035096417e+00
2.262631550035096417e+00
2.259818964201788294e+00
2.259818964201788294e+00
2.259818964201788294e+00
2.259818964201788294e+00
2.244443494979705633e+00
2.244443494979705633e+00
2.244443494979705633e+00
2.257381389812921579e+00
2.257381389812921579e+00
2.257381389812921579e+00
2.273506881923887057e+00
2.273506881923887057e+00
2.273506881923887057e+00
2.272006836146122755e+00
2.272006836146122755e+00
2.272006836146122755e+00
2.314570635090182460e+00
2.314570635090182460e+00
2.314570635090182460e+00
2.295445051423688376e+00
2.295445051423688376e+00
2.295445051423688376e+00
2.295445051423688376e+00
2.202254707480086449e+00
2.202254707480086449e+00
2.202254707480086449e+00
2.252318735312967224e+00
2.252318735312967224e+00
2.252318735312967224e+00
2.386385326700643628e+00
2.386385326700643628e+00
2.386385326700643628e+00
2.386385326700643628e+00
2.213130039368877089e+00
2.213130039368877089e+00
2.213130039368877089e+00
2.332008667256691314e+00
2.332008667256691314e+00
2.332008667256691314e+00
2.332008667256691314e+00
2.388072878200628413e+00
2.388072878200628413e+00
2.388072878200628413e+00
2.343259010589922919e+00
2.343259010589922919e+00
2.343259010589922919e+00
2.323008392590105942e+00
2.323008392590105942e+00
2.323008392590105942e+00
2.323008392590105942e+00
2.300132694479201767e+00
2.300132694479201767e+00
2.300132694479201767e+00
2.289444868312631609e+00
2.289444868312631609e+00
2.289444868312631609e+00
2.289444868312631609e+00
2.269006744590594149e+00
2.269006744590594149e+00
2.269006744590594149e+00
2.257381389812921579e+00
2.257381389812921579e+00
2.257381389812921579e+00
2.257381389812921579e+00
2.293757499923703591e+00
2.293757499923703591e+00
2.293757499923703591e+00
2.307070406201360946e+00
2.307070406201360946e+00
2.307070406201360946e+00
2.323945921201208797e+00
2.323945921201208797e+00
2.323945921201208797e+00
2.323945921201208797e+00
2.321320841090121156e+00
2.321320841090121156e+00
2.321320841090121156e+00
2.261694021423993561e+00
2.261694021423993561e+00
2.261694021423993561e+00
2.277256996368297592e+00
2.277256996368297592e+00
2.277256996368297592e+00
2.277256996368297592e+00
2.307070406201360946e+00
2.307070406201360946e+00
2.307070406201360946e+00
2.293382488479262626e+00
2.293382488479262626e+00
2.293382488479262626e+00
2.293382488479262626e+00
2.208442396313364142e+00
2.208442396313364142e+00
2.208442396313364142e+00
2.158003357036042402e+00
2.158003357036042402e+00
2.158003357036042402e+00
2.234693197424237443e+00
2.234693197424237443e+00
2.234693197424237443e+00
2.234693197424237443e+00
2.355071871089815971e+00
2.355071871089815971e+00
2.355071871089815971e+00
2.264131595812860720e+00
2.264131595812860720e+00
2.264131595812860720e+00
2.264131595812860720e+00
2.190254341257972914e+00
2.190254341257972914e+00
2.190254341257972914e+00
2.228318002868740155e+00
2.228318002868740155e+00
2.228318002868740155e+00
2.222880336924344391e+00
2.222880336924344391e+00
2.222880336924344391e+00
2.222880336924344391e+00
2.252131229590746742e+00
2.252131229590746742e+00
2.252131229590746742e+00
2.458950041199987613e+00
2.458950041199987613e+00
2.458950041199987613e+00
2.458950041199987613e+00
2.428574114200262368e+00
2.428574114200262368e+00
2.428574114200262368e+00
2.294507522812585520e+00
2.294507522812585520e+00
2.294507522812585520e+00
2.247443586535233351e+00
2.247443586535233351e+00
2.247443586535233351e+00
2.247443586535233351e+00
2.361447065645314147e+00
2.361447065645314147e+00
2.361447065645314147e+00
2.334633747367778511e+00
2.334633747367778511e+00
2.334633747367778511e+00
2.334633747367778511e+00
2.299757683034760802e+00
2.299757683034760802e+00
2.299757683034760802e+00
2.307070406201360946e+00
2.307070406201360946e+00
2.307070406201360946e+00
2.276319467757194737e+00
2.276319467757194737e+00
2.276319467757194737e+00
2.276319467757194737e+00
2.264319101535081202e+00
2.264319101535081202e+00
2.264319101535081202e+00
2.292819971312600735e+00
2.292819971312600735e+00
2.292819971312600735e+00
2.292819971312600735e+00
2.305570360423596643e+00
2.305570360423596643e+00
2.305570360423596643e+00
2.273694387646107540e+00
2.273694387646107540e+00
2.273694387646107540e+00
2.273694387646107540e+00
2.311570543534653854e+00
2.311570543534653854e+00
2.311570543534653854e+00
2.251568712424085295e+00
2.251568712424085295e+00
2.251568712424085295e+00
2.307820429090243319e+00
2.307820429090243319e+00
2.307820429090243319e+00
2.307820429090243319e+00
2.332196172978911797e+00
2.332196172978911797e+00
2.332196172978911797e+00
2.339321390423291458e+00
2.339321390423291458e+00
2.339321390423291458e+00
2.339321390423291458e+00
2.285507248146000592e+00
2.285507248146000592e+00
2.285507248146000592e+00
2.276319467757194737e+00
2.276319467757194737e+00
2.276319467757194737e+00
2.289257362590411127e+00
2.289257362590411127e+00
2.289257362590411127e+00
2.289257362590411127e+00
2.282507156590471986e+00
2.282507156590471986e+00
2.282507156590471986e+00
2.290194891201513983e+00
2.290194891201513983e+00
2.290194891201513983e+00
2.290194891201513983e+00
2.288319833979308715e+00
2.288319833979308715e+00
2.288319833979308715e+00
2.361634571367534630e+00
2.361634571367534630e+00
2.361634571367534630e+00
2.392948026978362286e+00
2.392948026978362286e+00
2.392948026978362286e+00
2.392948026978362286e+00
2.325258461256752618e+00
2.325258461256752618e+00
2.325258461256752618e+00
2.318133243812372069e+00
2.318133243812372069e+00
2.318133243812372069e+00
2.318133243812372069e+00
2.298632648701437464e+00
2.298632648701437464e+00
2.298632648701437464e+00
2.279694570757164307e+00
2.279694570757164307e+00
2.279694570757164307e+00
2.279694570757164307e+00
2.300882717368083696e+00
2.300882717368083696e+00
2.300882717368083696e+00
2.308007934812463802e+00
2.308007934812463802e+00
2.308007934812463802e+00
2.304820337534714714e+00
2.304820337534714714e+00
2.304820337534714714e+00
2.304820337534714714e+00
2.285319742423780109e+00
2.285319742423780109e+00
2.285319742423780109e+00
2.240130863368633207e+00
2.240130863368633207e+00
2.240130863368633207e+00
2.240130863368633207e+00
2.240693380535294654e+00
2.240693380535294654e+00
2.240693380535294654e+00
2.313258095034638639e+00
2.313258095034638639e+00
2.313258095034638639e+00
2.295820062868129341e+00
2.295820062868129341e+00
2.295820062868129341e+00
2.295820062868129341e+00
2.293194982757042144e+00
2.293194982757042144e+00
2.293194982757042144e+00
2.304257820368053267e+00
2.304257820368053267e+00
2.304257820368053267e+00
2.304257820368053267e+00
2.313070589312418157e+00
2.313070589312418157e+00
2.313070589312418157e+00
2.295070039979247412e+00
2.295070039979247412e+00
2.295070039979247412e+00
2.295070039979247412e+00
2.307632923368022837e+00
2.307632923368022837e+00
2.307632923368022837e+00
2.302382763145847999e+00
2.302382763145847999e+00
2.302382763145847999e+00
2.270506790368358452e+00
2.270506790368358452e+00
2.270506790368358452e+00
2.270506790368358452e+00
2.252506241035188150e+00
2.252506241035188150e+00
2.252506241035188150e+00
2.260193975646229259e+00
2.260193975646229259e+00
2.260193975646229259e+00
2.260193975646229259e+00
2.245193517868587563e+00
2.245193517868587563e+00
2.245193517868587563e+00
2.254568803979613900e+00
2.254568803979613900e+00
2.254568803979613900e+00
2.292819971312600735e+00
2.292819971312600735e+00
2.292819971312600735e+00
2.292819971312600735e+00
2.289819879757073018e+00
2.289819879757073018e+00
2.289819879757073018e+00
2.320195806756797818e+00
2.320195806756797818e+00
2.320195806756797818e+00
2.334071230201117064e+00
2.334071230201117064e+00
2.334071230201117064e+00
2.334071230201117064e+00
2.321695852534562121e+00
2.321695852534562121e+00
2.321695852534562121e+00
2.329383587145603673e+00
2.329383587145603673e+00
2.329383587145603673e+00
2.329383587145603673e+00
2.336508804589983779e+00
2.336508804589983779e+00
2.336508804589983779e+00
2.326946012756737403e+00
2.326946012756737403e+00
2.326946012756737403e+00
2.326946012756737403e+00
2.282507156590471986e+00
2.282507156590471986e+00
2.282507156590471986e+00
2.268819238868374111e+00
2.268819238868374111e+00
2.268819238868374111e+00
2.269944273201696561e+00
2.269944273201696561e+00
2.269944273201696561e+00
2.269944273201696561e+00
2.284944730979339145e+00
2.284944730979339145e+00
2.284944730979339145e+00
2.242943449201941331e+00
2.242943449201941331e+00
2.242943449201941331e+00
2.242943449201941331e+00
2.199817133091219734e+00
2.199817133091219734e+00
2.199817133091219734e+00
2.208817407757805107e+00
2.208817407757805107e+00
2.208817407757805107e+00
2.211629993591112786e+00
2.211629993591112786e+00
2.211629993591112786e+00
2.211629993591112786e+00
2.245568529313028083e+00
2.245568529313028083e+00
2.245568529313028083e+00
2.308382946256904766e+00
2.308382946256904766e+00
2.308382946256904766e+00
2.308382946256904766e+00
2.344759056367687222e+00
2.344759056367687222e+00
2.344759056367687222e+00
2.353384319589831186e+00
2.353384319589831186e+00
2.353384319589831186e+00
2.353384319589831186e+00
2.313258095034638639e+00
2.313258095034638639e+00
2.313258095034638639e+00
2.326383495590075512e+00
2.326383495590075512e+00
2.326383495590075512e+00
2.321320841090121156e+00
2.321320841090121156e+00
2.321320841090121156e+00
2.321320841090121156e+00
2.304070314645832784e+00
2.304070314645832784e+00
2.304070314645832784e+00
2.268819238868374111e+00
2.268819238868374111e+00
2.268819238868374111e+00
2.268819238868374111e+00
2.256068849757378203e+00
2.256068849757378203e+00
2.256068849757378203e+00
2.228880520035401602e+00
2.228880520035401602e+00
2.228880520035401602e+00
2.253631275368511044e+00
2.253631275368511044e+00
2.253631275368511044e+00
2.253631275368511044e+00
2.285507248146000592e+00
2.285507248146000592e+00
2.285507248146000592e+00
2.282319650868251504e+00
2.282319650868251504e+00
2.282319650868251504e+00
2.282319650868251504e+00
2.317945738090151586e+00
2.317945738090151586e+00
2.317945738090151586e+00
2.341571459089938134e+00
2.341571459089938134e+00
2.341571459089938134e+00
2.341571459089938134e+00
2.343071504867702437e+00
2.343071504867702437e+00
2.343071504867702437e+00
2.337258827478866152e+00
2.337258827478866152e+00
2.337258827478866152e+00
2.320945829645680192e+00
2.320945829645680192e+00
2.320945829645680192e+00
2.320945829645680192e+00
2.320195806756797818e+00
2.320195806756797818e+00
2.320195806756797818e+00
2.312133060701315301e+00
2.312133060701315301e+00
2.312133060701315301e+00
2.312133060701315301e+00
2.299757683034760802e+00
2.299757683034760802e+00
2.299757683034760802e+00
2.283632190923795324e+00
2.283632190923795324e+00
2.283632190923795324e+00
2.302195257423627517e+00
2.302195257423627517e+00
2.302195257423627517e+00
2.302195257423627517e+00
2.289257362590411127e+00
2.289257362590411127e+00
2.289257362590411127e+00
2.269194250312814631e+00
2.269194250312814631e+00
2.269194250312814631e+00
2.298257637256996500e+00
2.298257637256996500e+00
2.298257637256996500e+00
2.298257637256996500e+00
2.276506973479415219e+00
2.276506973479415219e+00
2.276506973479415219e+00
2.292632465590380253e+00
2.292632465590380253e+00
2.292632465590380253e+00
2.292632465590380253e+00
2.283257179479354360e+00
2.283257179479354360e+00
2.283257179479354360e+00
2.276319467757194737e+00
2.276319467757194737e+00
2.276319467757194737e+00
2.276319467757194737e+00
2.275756950590533290e+00
2.275756950590533290e+00
2.275756950590533290e+00
2.293945005645924073e+00
2.293945005645924073e+00
2.293945005645924073e+00
2.304445326090273749e+00
2.304445326090273749e+00
2.304445326090273749e+00
2.304445326090273749e+00
2.316070680867946319e+00
2.316070680867946319e+00
2.316070680867946319e+00
2.290569902645954947e+00
2.290569902645954947e+00
2.290569902645954947e+00
2.290569902645954947e+00
2.291507431257057803e+00
2.291507431257057803e+00
2.291507431257057803e+00
2.294507522812585520e+00
2.294507522812585520e+00
2.294507522812585520e+00
2.288882351145970162e+00
2.288882351145970162e+00
2.288882351145970162e+00
2.288882351145970162e+00
2.290382396923734465e+00
2.290382396923734465e+00
2.290382396923734465e+00
2.280632099368266719e+00
2.280632099368266719e+00
2.280632099368266719e+00
2.280632099368266719e+00
2.286819788201544412e+00
2.286819788201544412e+00
2.286819788201544412e+00
2.322445875423444495e+00
2.322445875423444495e+00
2.322445875423444495e+00
2.331633655812249906e+00
2.331633655812249906e+00
2.331633655812249906e+00
2.331633655812249906e+00
2.308757957701345731e+00
2.308757957701345731e+00
2.308757957701345731e+00
2.282132145146031021e+00
2.282132145146031021e+00
2.282132145146031021e+00
2.282132145146031021e+00
2.299570177312540320e+00
2.299570177312540320e+00
2.299570177312540320e+00
2.293569994201483109e+00
2.293569994201483109e+00
2.293569994201483109e+00
2.293569994201483109e+00
2.305382854701376161e+00
2.305382854701376161e+00
2.305382854701376161e+00
2.276506973479415219e+00
2.276506973479415219e+00
2.276506973479415219e+00
2.261694021423993561e+00
2.261694021423993561e+00
2.261694021423993561e+00
2.261694021423993561e+00
2.237130771813104602e+00
2.237130771813104602e+00
2.237130771813104602e+00
2.211629993591112786e+00
2.211629993591112786e+00
2.211629993591112786e+00
2.211629993591112786e+00
2.215567613757744247e+00
2.215567613757744247e+00
2.215567613757744247e+00
2.244255989257484707e+00
2.244255989257484707e+00
2.244255989257484707e+00
2.244255989257484707e+00
2.285882259590441556e+00
2.285882259590441556e+00
2.285882259590441556e+00
2.276131962034974254e+00
2.276131962034974254e+00
2.276131962034974254e+00
2.295445051423688376e+00
2.295445051423688376e+00
2.295445051423688376e+00
2.295445051423688376e+00
2.356009399700918827e+00
2.356009399700918827e+00
2.356009399700918827e+00
2.331446150090029423e+00
2.331446150090029423e+00
2.331446150090029423e+00
2.331446150090029423e+00
2.348696676534318240e+00
2.348696676534318240e+00
2.348696676534318240e+00
2.347759147923215384e+00
2.347759147923215384e+00
2.347759147923215384e+00
2.350571733756523507e+00
2.350571733756523507e+00
2.350571733756523507e+00
2.350571733756523507e+00
2.318133243812372069e+00
2.318133243812372069e+00
2.318133243812372069e+00
2.315695669423505798e+00
2.315695669423505798e+00
2.315695669423505798e+00
2.315695669423505798e+00
2.314383129367961978e+00
2.314383129367961978e+00
2.314383129367961978e+00
2.298632648701437464e+00
2.298632648701437464e+00
2.298632648701437464e+00
2.252506241035188150e+00
2.252506241035188150e+00
2.252506241035188150e+00
2.252506241035188150e+00
2.215380108035523765e+00
2.215380108035523765e+00
2.215380108035523765e+00
2.230568071535386387e+00
2.230568071535386387e+00
2.230568071535386387e+00
2.294132511368144556e+00
2.294132511368144556e+00
2.294132511368144556e+00
2.294132511368144556e+00
2.297320108645893644e+00
2.297320108645893644e+00
2.297320108645893644e+00
2.278194524979400004e+00
2.278194524979400004e+00
2.278194524979400004e+00
2.278194524979400004e+00
2.321695852534562121e+00
2.321695852534562121e+00
2.321695852534562121e+00
2.283444685201574842e+00
2.283444685201574842e+00
2.283444685201574842e+00
2.274819421979430434e+00
2.274819421979430434e+00
2.274819421979430434e+00
2.274819421979430434e+00
2.249506149479659545e+00
2.249506149479659545e+00
2.249506149479659545e+00
2.275381939146092325e+00
2.275381939146092325e+00
2.275381939146092325e+00
2.275381939146092325e+00
2.268069215979491737e+00
2.268069215979491737e+00
2.268069215979491737e+00
2.247818597979674760e+00
2.247818597979674760e+00
2.247818597979674760e+00
2.247818597979674760e+00
2.273694387646107540e+00
2.273694387646107540e+00
2.273694387646107540e+00
2.300695211645863214e+00
2.300695211645863214e+00
2.300695211645863214e+00
2.351321756645405436e+00
2.351321756645405436e+00
2.351321756645405436e+00
2.351321756645405436e+00
2.371759880367442896e+00
2.371759880367442896e+00
2.371759880367442896e+00
2.366884731589709023e+00
2.366884731589709023e+00
2.366884731589709023e+00
2.366884731589709023e+00
2.358259468367565059e+00
2.358259468367565059e+00
2.358259468367565059e+00
2.323945921201208797e+00
2.323945921201208797e+00
2.323945921201208797e+00
2.302757774590289408e+00
2.302757774590289408e+00
2.302757774590289408e+00
2.302757774590289408e+00
2.265256630146183614e+00
2.265256630146183614e+00
2.265256630146183614e+00
2.252318735312967224e+00
2.252318735312967224e+00
2.252318735312967224e+00
2.252318735312967224e+00
2.219130222479934300e+00
2.219130222479934300e+00
2.219130222479934300e+00
2.188754295480208611e+00
2.188754295480208611e+00
2.188754295480208611e+00
2.188754295480208611e+00
2.237505783257545566e+00
2.237505783257545566e+00
2.237505783257545566e+00
2.247068575090792386e+00
2.247068575090792386e+00
2.247068575090792386e+00
2.243693472090823260e+00
2.243693472090823260e+00
2.243693472090823260e+00
2.243693472090823260e+00
2.238068300424207457e+00
2.238068300424207457e+00
2.238068300424207457e+00
2.270319284646137969e+00
2.270319284646137969e+00
2.270319284646137969e+00
2.270319284646137969e+00
2.338008850367748082e+00
2.338008850367748082e+00
2.338008850367748082e+00
2.340258919034394314e+00
2.340258919034394314e+00
2.340258919034394314e+00
2.340258919034394314e+00
2.344196539201025331e+00
2.344196539201025331e+00
2.344196539201025331e+00
2.332196172978911797e+00
2.332196172978911797e+00
2.332196172978911797e+00
2.312133060701315301e+00
2.312133060701315301e+00
2.312133060701315301e+00
2.312133060701315301e+00
2.301632740256966070e+00
2.301632740256966070e+00
2.301632740256966070e+00
2.283819696646015807e+00
2.283819696646015807e+00
2.283819696646015807e+00
2.283819696646015807e+00
2.288882351145970162e+00
2.288882351145970162e+00
2.288882351145970162e+00
2.308382946256904766e+00
2.308382946256904766e+00
2.308382946256904766e+00
2.311570543534653854e+00
2.311570543534653854e+00
2.311570543534653854e+00
2.311570543534653854e+00
2.310820520645771925e+00
2.310820520645771925e+00
2.310820520645771925e+00
2.296007568590349823e+00
2.296007568590349823e+00
2.296007568590349823e+00
2.296007568590349823e+00
2.296007568590349823e+00
2.296007568590349823e+00
2.296007568590349823e+00
2.298257637256996500e+00
2.298257637256996500e+00
2.298257637256996500e+00
2.298257637256996500e+00
2.289257362590411127e+00
2.289257362590411127e+00
2.289257362590411127e+00
2.293945005645924073e+00
2.293945005645924073e+00
2.293945005645924073e+00
2.320758323923459709e+00
2.320758323923459709e+00
2.320758323923459709e+00
2.320758323923459709e+00
2.323945921201208797e+00
2.323945921201208797e+00
2.323945921201208797e+00
2.335571275978881367e+00
2.335571275978881367e+00
2.335571275978881367e+00
2.335571275978881367e+00
2.322445875423444495e+00
2.322445875423444495e+00
2.322445875423444495e+00
2.304632831812494231e+00
2.304632831812494231e+00
2.304632831812494231e+00
2.281194616534928166e+00
2.281194616534928166e+00
2.281194616534928166e+00
2.281194616534928166e+00
2.298820154423657947e+00
2.298820154423657947e+00
2.298820154423657947e+00
2.260943998535111632e+00
2.260943998535111632e+00
2.260943998535111632e+00
2.260943998535111632e+00
2.236005737479781263e+00
2.236005737479781263e+00
2.236005737479781263e+00
2.245381023590808045e+00
2.245381023590808045e+00
2.245381023590808045e+00
2.246693563646351421e+00
2.246693563646351421e+00
2.246693563646351421e+00
2.246693563646351421e+00
2.280632099368266719e+00
2.280632099368266719e+00
2.280632099368266719e+00
2.347009125034333454e+00
2.347009125034333454e+00
2.347009125034333454e+00
2.347009125034333454e+00
2.331821161534470832e+00
2.331821161534470832e+00
2.331821161534470832e+00
2.297695120090334608e+00
2.297695120090334608e+00
2.297695120090334608e+00
2.297695120090334608e+00
2.296007568590349823e+00
2.296007568590349823e+00
2.296007568590349823e+00
2.246318552201910457e+00
2.246318552201910457e+00
2.246318552201910457e+00
2.282507156590471986e+00
2.282507156590471986e+00
2.282507156590471986e+00
2.282507156590471986e+00
2.288882351145970162e+00
2.288882351145970162e+00
2.288882351145970162e+00
2.216880153813287624e+00
2.216880153813287624e+00
2.216880153813287624e+00
2.216880153813287624e+00
2.205067293313394572e+00
2.205067293313394572e+00
2.205067293313394572e+00
2.251193700979644330e+00
2.251193700979644330e+00
2.251193700979644330e+00
2.286632282479323930e+00
2.286632282479323930e+00
2.286632282479323930e+00
2.286632282479323930e+00
2.267881710257271255e+00
2.267881710257271255e+00
2.267881710257271255e+00
2.291694936979278285e+00
2.291694936979278285e+00
2.291694936979278285e+00
2.291694936979278285e+00
2.368572283089693808e+00
2.368572283089693808e+00
2.368572283089693808e+00
2.339883907589953349e+00
2.339883907589953349e+00
2.339883907589953349e+00
2.339883907589953349e+00
2.347384136478774419e+00
2.347384136478774419e+00
2.347384136478774419e+00
2.405135898922696747e+00
2.405135898922696747e+00
2.405135898922696747e+00
2.379822626422925413e+00
2.379822626422925413e+00
2.379822626422925413e+00
2.379822626422925413e+00
2.283257179479354360e+00
2.283257179479354360e+00
2.283257179479354360e+00
2.245943540757469048e+00
2.245943540757469048e+00
2.245943540757469048e+00
2.245943540757469048e+00
2.179191503646961792e+00
2.179191503646961792e+00
2.179191503646961792e+00
2.206942350535599839e+00
2.206942350535599839e+00
2.206942350535599839e+00
2.262631550035096417e+00
2.262631550035096417e+00
2.262631550035096417e+00
2.262631550035096417e+00
2.374572466200750576e+00
2.374572466200750576e+00
2.374572466200750576e+00
2.375697500534073914e+00
2.375697500534073914e+00
2.375697500534073914e+00
2.375697500534073914e+00
2.330696127201147494e+00
2.330696127201147494e+00
2.330696127201147494e+00
2.313258095034638639e+00
2.313258095034638639e+00
2.313258095034638639e+00
2.291507431257057803e+00
2.291507431257057803e+00
2.291507431257057803e+00
2.291507431257057803e+00
2.252506241035188150e+00
2.252506241035188150e+00
2.252506241035188150e+00
2.236755760368663637e+00
2.236755760368663637e+00
2.236755760368663637e+00
2.236755760368663637e+00
2.210129947813348927e+00
2.210129947813348927e+00
2.210129947813348927e+00
2.179191503646961792e+00
2.179191503646961792e+00
2.179191503646961792e+00
2.201879696035645484e+00
2.201879696035645484e+00
2.201879696035645484e+00
2.201879696035645484e+00
2.233568163090914993e+00
2.233568163090914993e+00
2.233568163090914993e+00
2.266569170201727434e+00
2.266569170201727434e+00
2.266569170201727434e+00
2.266569170201727434e+00
2.314570635090182460e+00
2.314570635090182460e+00
2.314570635090182460e+00
2.323570909756767389e+00
2.323570909756767389e+00
2.323570909756767389e+00
2.343446516312143402e+00
2.343446516312143402e+00
2.343446516312143402e+00
2.343446516312143402e+00
2.375509994811853431e+00
2.375509994811853431e+00
2.375509994811853431e+00
2.351884273812066883e+00
2.351884273812066883e+00
2.351884273812066883e+00
2.351884273812066883e+00
2.377760063478499664e+00
2.377760063478499664e+00
2.377760063478499664e+00
2.371009857478560967e+00
2.371009857478560967e+00
2.371009857478560967e+00
2.371009857478560967e+00
2.361072054200873183e+00
2.361072054200873183e+00
2.361072054200873183e+00
2.355446882534256936e+00
2.355446882534256936e+00
2.355446882534256936e+00
2.235255714590899334e+00
2.235255714590899334e+00
2.235255714590899334e+00
2.235255714590899334e+00
2.229630542924283532e+00
2.229630542924283532e+00
2.229630542924283532e+00
2.292819971312600735e+00
2.292819971312600735e+00
2.292819971312600735e+00
2.292819971312600735e+00
2.267694204535050773e+00
2.267694204535050773e+00
2.267694204535050773e+00
2.281757133701590057e+00
2.281757133701590057e+00
2.281757133701590057e+00
2.305007843256935196e+00
2.305007843256935196e+00
2.305007843256935196e+00
2.305007843256935196e+00
2.272381847590563719e+00
2.272381847590563719e+00
2.272381847590563719e+00
2.254381298257393418e+00
2.254381298257393418e+00
2.254381298257393418e+00
2.254381298257393418e+00
2.238818323313089387e+00
2.238818323313089387e+00
2.238818323313089387e+00
2.236380748924222672e+00
2.236380748924222672e+00
2.236380748924222672e+00
2.236380748924222672e+00
2.266194158757286470e+00
2.266194158757286470e+00
2.266194158757286470e+00
2.269569261757255596e+00
2.269569261757255596e+00
2.269569261757255596e+00
2.241255897701956545e+00
2.241255897701956545e+00
2.241255897701956545e+00
2.241255897701956545e+00
2.255131321146275347e+00
2.255131321146275347e+00
2.255131321146275347e+00
2.273506881923887057e+00
2.273506881923887057e+00
2.273506881923887057e+00
2.273506881923887057e+00
2.285507248146000592e+00
2.285507248146000592e+00
2.285507248146000592e+00
2.305570360423596643e+00
2.305570360423596643e+00
2.305570360423596643e+00
2.305570360423596643e+00
2.300132694479201767e+00
2.300132694479201767e+00
2.300132694479201767e+00
2.302007751701407035e+00
2.302007751701407035e+00
2.302007751701407035e+00
2.272756859035004684e+00
2.272756859035004684e+00
2.272756859035004684e+00
2.272756859035004684e+00
2.273506881923887057e+00
2.273506881923887057e+00
2.273506881923887057e+00
2.294882534257026929e+00
2.294882534257026929e+00
2.294882534257026929e+00
2.294882534257026929e+00
2.276506973479415219e+00
2.276506973479415219e+00
2.276506973479415219e+00
2.269194250312814631e+00
2.269194250312814631e+00
2.269194250312814631e+00
2.344009033478804849e+00
2.344009033478804849e+00
2.344009033478804849e+00
2.344009033478804849e+00
2.357321939756462204e+00
2.357321939756462204e+00
2.357321939756462204e+00
2.307632923368022837e+00
2.307632923368022837e+00
2.307632923368022837e+00
2.307632923368022837e+00
2.313258095034638639e+00
2.313258095034638639e+00
2.313258095034638639e+00
2.306882900479140464e+00
2.306882900479140464e+00
2.306882900479140464e+00
2.306882900479140464e+00
2.302382763145847999e+00
2.302382763145847999e+00
2.302382763145847999e+00
2.330508621478927012e+00
2.330508621478927012e+00
2.330508621478927012e+00
2.301445234534745587e+00
2.301445234534745587e+00
2.301445234534745587e+00
2.301445234534745587e+00
2.274444410534989469e+00
2.274444410534989469e+00
2.274444410534989469e+00
2.234318185979796478e+00
2.234318185979796478e+00
2.234318185979796478e+00
2.234318185979796478e+00
2.262256538590655452e+00
2.262256538590655452e+00
2.262256538590655452e+00
2.284007202368236289e+00
2.284007202368236289e+00
2.284007202368236289e+00
2.262256538590655452e+00
2.262256538590655452e+00
2.262256538590655452e+00
2.262256538590655452e+00
2.267694204535050773e+00
2.267694204535050773e+00
2.267694204535050773e+00
2.309695486312448587e+00
2.309695486312448587e+00
2.309695486312448587e+00
2.309695486312448587e+00
2.321320841090121156e+00
2.321320841090121156e+00
2.321320841090121156e+00
2.302757774590289408e+00
2.302757774590289408e+00
2.302757774590289408e+00
2.295632557145908859e+00
2.295632557145908859e+00
2.295632557145908859e+00
2.295632557145908859e+00
2.291319925534837321e+00
2.291319925534837321e+00
2.291319925534837321e+00
2.283257179479354360e+00
2.283257179479354360e+00
2.283257179479354360e+00
2.283257179479354360e+00
2.293945005645924073e+00
2.293945005645924073e+00
2.293945005645924073e+00
2.288882351145970162e+00
2.288882351145970162e+00
2.288882351145970162e+00
2.315133152256843907e+00
2.315133152256843907e+00
2.315133152256843907e+00
2.315133152256843907e+00
2.326946012756737403e+00
2.326946012756737403e+00
2.326946012756737403e+00
2.319820795312356854e+00
2.319820795312356854e+00
2.319820795312356854e+00
2.319820795312356854e+00
2.342321481978820064e+00
2.342321481978820064e+00
2.342321481978820064e+00
2.365197180089724238e+00
2.365197180089724238e+00
2.365197180089724238e+00
2.332196172978911797e+00
2.332196172978911797e+00
2.332196172978911797e+00
2.332196172978911797e+00
2.384510269478438804e+00
2.384510269478438804e+00
2.384510269478438804e+00
2.353946836756492633e+00
2.353946836756492633e+00
2.353946836756492633e+00
2.353946836756492633e+00
2.324320932645649762e+00
2.324320932645649762e+00
2.324320932645649762e+00
2.309882992034669069e+00
2.309882992034669069e+00
2.309882992034669069e+00
2.309882992034669069e+00
2.305195348979155678e+00
2.305195348979155678e+00
2.305195348979155678e+00
2.275569444868312807e+00
2.275569444868312807e+00
2.275569444868312807e+00
2.158753379924924776e+00
2.158753379924924776e+00
2.158753379924924776e+00
2.158753379924924776e+00
2.155378276924954761e+00
2.155378276924954761e+00
2.155378276924954761e+00
2.113376995147556947e+00
2.113376995147556947e+00
2.113376995147556947e+00
2.113376995147556947e+00
2.162878505813776275e+00
2.162878505813776275e+00
2.162878505813776275e+00
2.206192327646717910e+00
2.206192327646717910e+00
2.206192327646717910e+00
2.258881435590685438e+00
2.258881435590685438e+00
2.258881435590685438e+00
2.258881435590685438e+00
2.290944914090395912e+00
2.290944914090395912e+00
2.290944914090395912e+00
2.361447065645314147e+00
2.361447065645314147e+00
2.361447065645314147e+00
2.348509170812097757e+00
2.348509170812097757e+00
2.348509170812097757e+00
2.348509170812097757e+00
2.329383587145603673e+00
2.329383587145603673e+00
2.329383587145603673e+00
2.327133518478957885e+00
2.327133518478957885e+00
2.327133518478957885e+00
2.327133518478957885e+00
2.291507431257057803e+00
2.291507431257057803e+00
2.291507431257057803e+00
2.252881252479629115e+00
2.252881252479629115e+00
2.252881252479629115e+00
2.252881252479629115e+00
2.295257545701467894e+00
2.295257545701467894e+00
2.295257545701467894e+00
2.272194341868343237e+00
2.272194341868343237e+00
2.272194341868343237e+00
2.266569170201727434e+00
2.266569170201727434e+00
2.266569170201727434e+00
2.266569170201727434e+00
2.269381756035035114e+00
2.269381756035035114e+00
2.269381756035035114e+00
2.243318460646382295e+00
2.243318460646382295e+00
2.243318460646382295e+00
2.243318460646382295e+00
2.292444959868159771e+00
2.292444959868159771e+00
2.292444959868159771e+00
2.333321207312235135e+00
2.333321207312235135e+00
2.333321207312235135e+00
2.347196630756553937e+00
2.347196630756553937e+00
2.347196630756553937e+00
2.347196630756553937e+00
2.399698232978301426e+00
2.399698232978301426e+00
2.399698232978301426e+00
2.383385235145115466e+00
2.383385235145115466e+00
2.383385235145115466e+00
2.383385235145115466e+00
2.399698232978301426e+00
2.399698232978301426e+00
2.399698232978301426e+00
2.388822901089510786e+00
2.388822901089510786e+00
2.388822901089510786e+00
2.388822901089510786e+00
2.390135441145054607e+00
2.390135441145054607e+00
2.390135441145054607e+00
2.353196813867610704e+00
2.353196813867610704e+00
2.353196813867610704e+00
2.318883266701254442e+00
2.318883266701254442e+00
2.318883266701254442e+00
2.318883266701254442e+00
2.257568895535142062e+00
2.257568895535142062e+00
2.257568895535142062e+00
2.155003265480513797e+00
2.155003265480513797e+00
2.155003265480513797e+00
2.155003265480513797e+00
2.093501388592180934e+00
2.093501388592180934e+00
2.093501388592180934e+00
2.114127018036439321e+00
2.114127018036439321e+00
2.114127018036439321e+00
2.144315439313944083e+00
2.144315439313944083e+00
2.144315439313944083e+00
2.144315439313944083e+00
2.262256538590655452e+00
2.262256538590655452e+00
2.262256538590655452e+00
2.290007385479293500e+00
2.290007385479293500e+00
2.290007385479293500e+00
2.290007385479293500e+00
2.344196539201025331e+00
2.344196539201025331e+00
2.344196539201025331e+00
2.363697134311959935e+00
2.363697134311959935e+00
2.363697134311959935e+00
2.363697134311959935e+00
2.349259193700979687e+00
2.349259193700979687e+00
2.349259193700979687e+00
2.313820612201300086e+00
2.313820612201300086e+00
2.313820612201300086e+00
2.261131504257332114e+00
2.261131504257332114e+00
2.261131504257332114e+00
2.261131504257332114e+00
2.243318460646382295e+00
2.243318460646382295e+00
2.243318460646382295e+00
2.224942899868770141e+00
2.224942899868770141e+00
2.224942899868770141e+00
2.224942899868770141e+00
2.237505783257545566e+00
2.237505783257545566e+00
2.237505783257545566e+00
2.241630909146397510e+00
2.241630909146397510e+00
2.241630909146397510e+00
2.309132969145787140e+00
2.309132969145787140e+00
2.309132969145787140e+00
2.309132969145787140e+00
2.341758964812158617e+00
2.341758964812158617e+00
2.341758964812158617e+00
2.392760521256141804e+00
2.392760521256141804e+00
2.392760521256141804e+00
2.392760521256141804e+00
2.325820978423414065e+00
2.325820978423414065e+00
2.325820978423414065e+00
2.354134342478713116e+00
2.354134342478713116e+00
2.354134342478713116e+00
2.354134342478713116e+00
2.311383037812433372e+00
2.311383037812433372e+00
2.311383037812433372e+00
2.292257454145939732e+00
2.292257454145939732e+00
2.292257454145939732e+00
2.359572008423108880e+00
2.359572008423108880e+00
2.359572008423108880e+00
2.359572008423108880e+00
2.369697317423017147e+00
2.369697317423017147e+00
2.369697317423017147e+00
2.219505233924375265e+00
2.219505233924375265e+00
2.219505233924375265e+00
2.219505233924375265e+00
2.232818140202032620e+00
2.232818140202032620e+00
2.232818140202032620e+00
2.207879879146702695e+00
2.207879879146702695e+00
2.207879879146702695e+00
2.250068666646320992e+00
2.250068666646320992e+00
2.250068666646320992e+00
2.250068666646320992e+00
2.281007110812707683e+00
2.281007110812707683e+00
2.281007110812707683e+00
2.364259651478621826e+00
2.364259651478621826e+00
2.364259651478621826e+00
2.364259651478621826e+00
2.464200201422162451e+00
2.464200201422162451e+00
2.464200201422162451e+00
2.406073427533799602e+00
2.406073427533799602e+00
2.406073427533799602e+00
2.359196996978667915e+00
2.359196996978667915e+00
2.359196996978667915e+00
2.359196996978667915e+00
2.288132328257088233e+00
2.288132328257088233e+00
2.288132328257088233e+00
2.124627338480788552e+00
2.124627338480788552e+00
2.124627338480788552e+00
2.124627338480788552e+00
2.167191137424848257e+00
2.167191137424848257e+00
2.167191137424848257e+00
2.178066469313638454e+00
2.178066469313638454e+00
2.178066469313638454e+00
2.178066469313638454e+00
2.200004638813440216e+00
2.200004638813440216e+00
2.200004638813440216e+00
2.193816949980162967e+00
2.193816949980162967e+00
2.193816949980162967e+00
2.233193151646474028e+00
2.233193151646474028e+00
2.233193151646474028e+00
2.233193151646474028e+00
2.230755577257606870e+00
2.230755577257606870e+00
2.230755577257606870e+00
2.247443586535233351e+00
2.247443586535233351e+00
2.247443586535233351e+00
2.247443586535233351e+00
2.295257545701467894e+00
2.295257545701467894e+00
2.295257545701467894e+00
2.365759697256386129e+00
2.365759697256386129e+00
2.365759697256386129e+00
2.353384319589831186e+00
2.353384319589831186e+00
2.353384319589831186e+00
2.353384319589831186e+00
2.321320841090121156e+00
2.321320841090121156e+00
2.321320841090121156e+00
2.288507339701529197e+00
2.288507339701529197e+00
2.288507339701529197e+00
2.288507339701529197e+00
2.289444868312631609e+00
2.289444868312631609e+00
2.289444868312631609e+00
2.277444502090518075e+00
2.277444502090518075e+00
2.277444502090518075e+00
2.277444502090518075e+00
2.315695669423505798e+00
2.315695669423505798e+00
2.315695669423505798e+00
2.339508896145511940e+00
2.339508896145511940e+00
2.339508896145511940e+00
2.342883999145481511e+00
2.342883999145481511e+00
2.342883999145481511e+00
2.342883999145481511e+00
2.317570726645710621e+00
2.317570726645710621e+00
2.317570726645710621e+00
2.311758049256874337e+00
2.311758049256874337e+00
2.311758049256874337e+00
2.311758049256874337e+00
2.291319925534837321e+00
2.291319925534837321e+00
2.291319925534837321e+00
2.288694845423749680e+00
2.288694845423749680e+00
2.288694845423749680e+00
2.319820795312356854e+00
2.319820795312356854e+00
2.319820795312356854e+00
2.319820795312356854e+00
2.339696401867732423e+00
2.339696401867732423e+00
2.339696401867732423e+00
2.309132969145787140e+00
2.309132969145787140e+00
2.310070497756889552e+00
2.310070497756889552e+00
2.310070497756889552e+00
2.361447065645314147e+00
2.361447065645314147e+00
2.361447065645314147e+00
2.352259285256507848e+00
2.352259285256507848e+00
2.352259285256507848e+00
2.352259285256507848e+00
2.325633472701193583e+00
2.325633472701193583e+00
2.325633472701193583e+00
2.348509170812097757e+00
2.348509170812097757e+00
2.348509170812097757e+00
2.348509170812097757e+00
2.264131595812860720e+00
2.264131595812860720e+00
2.264131595812860720e+00
2.215380108035523765e+00
2.215380108035523765e+00
2.215380108035523765e+00
2.215380108035523765e+00
2.251943723868526259e+00
2.251943723868526259e+00
2.251943723868526259e+00
2.290757408368175430e+00
2.290757408368175430e+00
2.290757408368175430e+00
2.246318552201910457e+00
2.246318552201910457e+00
2.246318552201910457e+00
2.246318552201910457e+00
2.266756675923947917e+00
2.266756675923947917e+00
2.266756675923947917e+00
2.267319193090609808e+00
2.267319193090609808e+00
2.267319193090609808e+00
2.267319193090609808e+00
2.272944364757225166e+00
2.272944364757225166e+00
2.272944364757225166e+00
2.278944547868282378e+00
2.278944547868282378e+00
2.278944547868282378e+00
2.326946012756737403e+00
2.326946012756737403e+00
2.326946012756737403e+00
2.326946012756737403e+00
2.333133701590014208e+00
2.333133701590014208e+00
2.333133701590014208e+00
2.313445600756859122e+00
2.313445600756859122e+00
2.313445600756859122e+00
2.313445600756859122e+00
2.326946012756737403e+00
2.326946012756737403e+00
2.326946012756737403e+00
2.247443586535233351e+00
2.247443586535233351e+00
2.247443586535233351e+00
2.247443586535233351e+00
2.229255531479842567e+00
2.229255531479842567e+00
2.229255531479842567e+00
2.271444318979460864e+00
2.271444318979460864e+00
2.271444318979460864e+00
2.322445875423444495e+00
2.322445875423444495e+00
2.322445875423444495e+00
2.322445875423444495e+00
2.312320566423536228e+00
2.312320566423536228e+00
2.312320566423536228e+00
2.249506149479659545e+00
2.249506149479659545e+00
2.249506149479659545e+00
2.249506149479659545e+00
2.294320017090365038e+00
2.294320017090365038e+00
2.294320017090365038e+00
2.167941160313730187e+00
2.167941160313730187e+00
2.167941160313730187e+00
2.203192236091189304e+00
2.203192236091189304e+00
2.203192236091189304e+00
2.203192236091189304e+00
2.296007568590349823e+00
2.296007568590349823e+00
2.296007568590349823e+00
2.299757683034760802e+00
2.299757683034760802e+00
2.299757683034760802e+00
2.299757683034760802e+00
2.246318552201910457e+00
2.246318552201910457e+00
2.246318552201910457e+00
2.322070863979003530e+00
2.322070863979003530e+00
2.322070863979003530e+00
2.322070863979003530e+00
2.363697134311959935e+00
2.363697134311959935e+00
2.363697134311959935e+00
2.355634388256477418e+00
2.355634388256477418e+00
2.355634388256477418e+00
2.356009399700918827e+00
2.356009399700918827e+00
2.356009399700918827e+00
2.336133793145542814e+00
2.336133793145542814e+00
2.336133793145542814e+00
2.303882808923612302e+00
2.303882808923612302e+00
2.303882808923612302e+00
2.303882808923612302e+00
2.231693105868709726e+00
2.231693105868709726e+00
2.231693105868709726e+00
2.247818597979674760e+00
2.247818597979674760e+00
2.247818597979674760e+00
2.286069765312662039e+00
2.286069765312662039e+00
2.286069765312662039e+00
2.286069765312662039e+00
2.329571092867824156e+00
2.329571092867824156e+00
2.329571092867824156e+00
2.328446058534500818e+00
2.328446058534500818e+00
2.328446058534500818e+00
2.368572283089693808e+00
2.368572283089693808e+00
2.368572283089693808e+00
2.368572283089693808e+00
2.309320474868007622e+00
2.309320474868007622e+00
2.309320474868007622e+00
2.356009399700918827e+00
2.356009399700918827e+00
2.356009399700918827e+00
2.356009399700918827e+00
2.432136722922452865e+00
2.432136722922452865e+00
2.432136722922452865e+00
2.437011871700186294e+00
2.437011871700186294e+00
2.437011871700186294e+00
2.253256263924070080e+00
2.253256263924070080e+00
2.253256263924070080e+00
2.253256263924070080e+00
2.174691366313669327e+00
2.174691366313669327e+00
2.174691366313669327e+00
2.172066286202582130e+00
2.172066286202582130e+00
2.172066286202582130e+00
2.172066286202582130e+00
2.130627521591845319e+00
2.130627521591845319e+00
2.130627521591845319e+00
2.120127201147496088e+00
2.120127201147496088e+00
2.120127201147496088e+00
2.184441663869136629e+00
2.184441663869136629e+00
2.184441663869136629e+00
2.184441663869136629e+00
2.247068575090792386e+00
2.247068575090792386e+00
2.247068575090792386e+00
2.298070131534776017e+00
2.298070131534776017e+00
2.298070131534776017e+00
2.298070131534776017e+00
2.260943998535111632e+00
2.260943998535111632e+00
2.260943998535111632e+00
2.272569353312784202e+00
2.272569353312784202e+00
2.272569353312784202e+00
2.320383312479018745e+00
2.320383312479018745e+00
2.320383312479018745e+00
2.320383312479018745e+00
2.338571367534409973e+00
2.338571367534409973e+00
2.338571367534409973e+00
2.347196630756553937e+00
2.347196630756553937e+00
2.347196630756553937e+00
2.347196630756553937e+00
2.354134342478713116e+00
2.354134342478713116e+00
2.354134342478713116e+00
2.382072695089572090e+00
2.382072695089572090e+00
2.382072695089572090e+00
2.382072695089572090e+00
2.401760795922727176e+00
2.401760795922727176e+00
2.401760795922727176e+00
2.423323953978087530e+00
2.423323953978087530e+00
2.423323953978087530e+00
2.443387066255684470e+00
2.443387066255684470e+00
2.443387066255684470e+00
2.443387066255684470e+00
2.379822626422925413e+00
2.379822626422925413e+00
2.379822626422925413e+00
2.468137821588793912e+00
2.468137821588793912e+00
2.468137821588793912e+00
2.468137821588793912e+00
2.495138645588549586e+00
2.495138645588549586e+00
2.495138645588549586e+00
2.409073519089327764e+00
2.409073519089327764e+00
2.409073519089327764e+00
2.409073519089327764e+00
2.258131412701803509e+00
2.258131412701803509e+00
2.258131412701803509e+00
2.241068391979735619e+00
2.241068391979735619e+00
2.241068391979735619e+00
2.184441663869136629e+00
2.184441663869136629e+00
2.184441663869136629e+00
2.184441663869136629e+00
2.112814477980895500e+00
2.112814477980895500e+00
2.112814477980895500e+00
1.999186010315256334e+00
1.999186010315256334e+00
1.999186010315256334e+00
1.999186010315256334e+00
1.936559099093600356e+00
1.936559099093600356e+00
1.936559099093600356e+00
2.005748710592974771e+00
2.005748710592974771e+00
2.005748710592974771e+00
2.232630634479812137e+00
2.232630634479812137e+00
2.232630634479812137e+00
2.232630634479812137e+00
2.338196356089969008e+00
2.338196356089969008e+00
2.338196356089969008e+00
2.305382854701376161e+00
2.305382854701376161e+00
2.305382854701376161e+00
2.305382854701376161e+00
2.320195806756797818e+00
2.320195806756797818e+00
2.320195806756797818e+00
2.279319559312723342e+00
2.279319559312723342e+00
2.279319559312723342e+00
2.279319559312723342e+00
2.282319650868251504e+00
2.282319650868251504e+00
2.282319650868251504e+00
2.297507614368114126e+00
2.297507614368114126e+00
2.297507614368114126e+00
2.321320841090121156e+00
2.321320841090121156e+00
2.321320841090121156e+00
2.321320841090121156e+00
2.340821436201055761e+00
2.340821436201055761e+00
2.340821436201055761e+00
2.397823175756096159e+00
2.397823175756096159e+00
2.397823175756096159e+00
2.322820886867885459e+00
2.322820886867885459e+00
2.322820886867885459e+00
2.322820886867885459e+00
2.300882717368083696e+00
2.300882717368083696e+00
2.300882717368083696e+00
2.329946104312265120e+00
2.329946104312265120e+00
2.329946104312265120e+00
2.294132511368144556e+00
2.294132511368144556e+00
2.294132511368144556e+00
2.294132511368144556e+00
2.263194067201757864e+00
2.263194067201757864e+00
2.263194067201757864e+00
2.347196630756553937e+00
2.347196630756553937e+00
2.347196630756553937e+00
2.347196630756553937e+00
2.283069673757133433e+00
2.283069673757133433e+00
2.283069673757133433e+00
2.290757408368175430e+00
2.290757408368175430e+00
2.290757408368175430e+00
2.290757408368175430e+00
2.269381756035035114e+00
2.269381756035035114e+00
2.269381756035035114e+00
2.289632374034852091e+00
2.289632374034852091e+00
2.289632374034852091e+00
2.352446790978728330e+00
2.352446790978728330e+00
2.352446790978728330e+00
2.352446790978728330e+00
2.352259285256507848e+00
2.352259285256507848e+00
2.352259285256507848e+00
2.323195898312326424e+00
2.323195898312326424e+00
2.323195898312326424e+00
2.323195898312326424e+00
2.338571367534409973e+00
2.338571367534409973e+00
2.338571367534409973e+00
2.310445509201330516e+00
2.310445509201330516e+00
2.310445509201330516e+00
2.304820337534714714e+00
2.304820337534714714e+00
2.304820337534714714e+00
2.304820337534714714e+00
2.250068666646320992e+00
2.250068666646320992e+00
2.250068666646320992e+00
2.292819971312600735e+00
2.292819971312600735e+00
2.292819971312600735e+00
2.292819971312600735e+00
2.316820703756828248e+00
2.316820703756828248e+00
2.316820703756828248e+00
2.237505783257545566e+00
2.237505783257545566e+00
2.237505783257545566e+00
2.237505783257545566e+00
2.152753196813867564e+00
2.152753196813867564e+00
2.152753196813867564e+00
2.207317361980041248e+00
2.207317361980041248e+00
2.207317361980041248e+00
2.221942808313242423e+00
2.221942808313242423e+00
2.221942808313242423e+00
2.221942808313242423e+00
2.279319559312723342e+00
2.279319559312723342e+00
2.279319559312723342e+00
2.264506607257301685e+00
2.264506607257301685e+00
2.264506607257301685e+00
2.264506607257301685e+00
2.307257911923581428e+00
2.307257911923581428e+00
2.307257911923581428e+00
2.396885647144993747e+00
2.396885647144993747e+00
2.396885647144993747e+00
2.381135166478469234e+00
2.381135166478469234e+00
2.381135166478469234e+00
2.381135166478469234e+00
2.373259926145207199e+00
2.373259926145207199e+00
2.373259926145207199e+00
2.343446516312143402e+00
2.343446516312143402e+00
2.343446516312143402e+00
2.343446516312143402e+00
2.344384044923245813e+00
2.344384044923245813e+00
2.344384044923245813e+00
2.289632374034852091e+00
2.289632374034852091e+00
2.289632374034852091e+00
2.258318918424023991e+00
2.258318918424023991e+00
2.258318918424023991e+00
2.258318918424023991e+00
2.254943815424054865e+00
2.254943815424054865e+00
2.254943815424054865e+00
2.249318643757439062e+00
2.249318643757439062e+00
2.249318643757439062e+00
2.249318643757439062e+00
2.335946287423322332e+00
2.335946287423322332e+00
2.335946287423322332e+00
2.381697683645130681e+00
2.381697683645130681e+00
2.381697683645130681e+00
2.381697683645130681e+00
2.372509903256325270e+00
2.372509903256325270e+00
2.372509903256325270e+00
2.237880794701986531e+00
2.237880794701986531e+00
2.237880794701986531e+00
2.251943723868526259e+00
2.251943723868526259e+00
2.251943723868526259e+00
2.251943723868526259e+00
2.218755211035493335e+00
2.218755211035493335e+00
2.218755211035493335e+00
2.184629169591357556e+00
2.184629169591357556e+00
2.184629169591357556e+00
2.184629169591357556e+00
2.178253975035859380e+00
2.178253975035859380e+00
2.178253975035859380e+00
2.188941801202429094e+00
2.188941801202429094e+00
2.188941801202429094e+00
2.280069582201605716e+00
2.280069582201605716e+00
2.280069582201605716e+00
2.280069582201605716e+00
2.437761894589068223e+00
2.437761894589068223e+00
2.437761894589068223e+00
2.480325693533127485e+00
2.480325693533127485e+00
2.480325693533127485e+00
2.480325693533127485e+00
2.350946745200964472e+00
2.350946745200964472e+00
2.350946745200964472e+00
2.339321390423291458e+00
2.339321390423291458e+00
2.339321390423291458e+00
2.441699514755699685e+00
2.441699514755699685e+00
2.441699514755699685e+00
2.441699514755699685e+00
2.473762993255409270e+00
2.473762993255409270e+00
2.473762993255409270e+00
2.535077364421521651e+00
2.535077364421521651e+00
2.535077364421521651e+00
2.535077364421521651e+00
2.543890133365886541e+00
2.543890133365886541e+00
2.543890133365886541e+00
2.431761711478011456e+00
2.431761711478011456e+00
2.431761711478011456e+00
2.431761711478011456e+00
2.259256447035126847e+00
2.259256447035126847e+00
2.259256447035126847e+00
2.183691640980254700e+00
2.183691640980254700e+00
2.183691640980254700e+00
2.077375896481215900e+00
2.077375896481215900e+00
2.077375896481215900e+00
2.077375896481215900e+00
1.971247657704397804e+00
1.971247657704397804e+00
1.971247657704397804e+00
1.901870540482802907e+00
1.901870540482802907e+00
1.901870540482802907e+00
1.901870540482802907e+00
2.003498641926328094e+00
2.003498641926328094e+00
2.003498641926328094e+00
2.081501022370067400e+00
2.081501022370067400e+00
2.081501022370067400e+00
2.193629444257942485e+00
2.193629444257942485e+00
2.193629444257942485e+00
2.193629444257942485e+00
2.234693197424237443e+00
2.234693197424237443e+00
2.234693197424237443e+00
2.240505874813074172e+00
2.240505874813074172e+00
2.240505874813074172e+00
2.240505874813074172e+00
2.212755027924436124e+00
2.212755027924436124e+00
2.212755027924436124e+00
2.244068483535264225e+00
2.244068483535264225e+00
2.244068483535264225e+00
2.244068483535264225e+00
2.330696127201147494e+00
2.330696127201147494e+00
2.330696127201147494e+00
2.396135624256111374e+00
2.396135624256111374e+00
2.396135624256111374e+00
2.440011963255714900e+00
2.440011963255714900e+00
2.440011963255714900e+00
2.440011963255714900e+00
2.449574755088961275e+00
2.449574755088961275e+00
2.449574755088961275e+00
2.433074251533554833e+00
2.433074251533554833e+00
2.433074251533554833e+00
2.433074251533554833e+00
2.344384044923245813e+00
2.344384044923245813e+00
2.344384044923245813e+00
2.273881893368328022e+00
2.273881893368328022e+00
2.273881893368328022e+00
2.273881893368328022e+00
2.288882351145970162e+00
2.288882351145970162e+00
2.288882351145970162e+00
2.266756675923947917e+00
2.266756675923947917e+00
2.266756675923947917e+00
2.232818140202032620e+00
2.232818140202032620e+00
2.232818140202032620e+00
2.232818140202032620e+00
2.333883724478896582e+00
2.333883724478896582e+00
2.333883724478896582e+00
2.456137455366679934e+00
2.456137455366679934e+00
2.456137455366679934e+00
2.456137455366679934e+00
2.528139652699362028e+00
2.528139652699362028e+00
2.528139652699362028e+00
2.525702078310495757e+00
2.525702078310495757e+00
2.525702078310495757e+00
2.321320841090121156e+00
2.321320841090121156e+00
2.321320841090121156e+00
2.321320841090121156e+00
2.143752922147282192e+00
2.143752922147282192e+00
2.143752922147282192e+00
2.129689992980742907e+00
2.129689992980742907e+00
2.129689992980742907e+00
2.156503311258278099e+00
2.156503311258278099e+00
2.156503311258278099e+00
2.156503311258278099e+00
2.235630726035340299e+00
2.235630726035340299e+00
2.235630726035340299e+00
2.293757499923703591e+00
2.293757499923703591e+00
2.293757499923703591e+00
2.293757499923703591e+00
2.422386425366985119e+00
2.422386425366985119e+00
2.422386425366985119e+00
2.379635120700704931e+00
2.379635120700704931e+00
2.379635120700704931e+00
2.379635120700704931e+00
2.231505600146489243e+00
2.231505600146489243e+00
2.231505600146489243e+00
2.245193517868587563e+00
2.245193517868587563e+00
2.245193517868587563e+00
2.265819147312845505e+00
2.265819147312845505e+00
2.265819147312845505e+00
2.265819147312845505e+00
2.196254524369030126e+00
2.196254524369030126e+00
2.196254524369030126e+00
2.196817041535691573e+00
2.196817041535691573e+00
2.196817041535691573e+00
2.196817041535691573e+00
2.221192785424360050e+00
2.221192785424360050e+00
2.221192785424360050e+00
2.329196081423383191e+00
2.329196081423383191e+00
2.329196081423383191e+00
2.406073427533799602e+00
2.406073427533799602e+00
2.406073427533799602e+00
2.406073427533799602e+00
2.408511001922666317e+00
2.408511001922666317e+00
2.408511001922666317e+00
2.333883724478896582e+00
2.333883724478896582e+00
2.333883724478896582e+00
2.333883724478896582e+00
2.308195440534684284e+00
2.308195440534684284e+00
2.308195440534684284e+00
2.230568071535386387e+00
2.230568071535386387e+00
2.230568071535386387e+00
2.230568071535386387e+00
2.185379192480239485e+00
2.185379192480239485e+00
2.185379192480239485e+00
2.273506881923887057e+00
2.273506881923887057e+00
2.273506881923887057e+00
2.367447248756370914e+00
2.367447248756370914e+00
2.367447248756370914e+00
2.367447248756370914e+00
2.356571916867580274e+00
2.356571916867580274e+00
2.356571916867580274e+00
2.321320841090121156e+00
2.321320841090121156e+00
2.321320841090121156e+00
2.321320841090121156e+00
2.266006653035065987e+00
2.266006653035065987e+00
2.266006653035065987e+00
2.285507248146000592e+00
2.285507248146000592e+00
2.285507248146000592e+00
2.301820245979186552e+00
2.301820245979186552e+00
2.301820245979186552e+00
2.301820245979186552e+00
2.316445692312387283e+00
2.316445692312387283e+00
2.316445692312387283e+00
2.335571275978881367e+00
2.335571275978881367e+00
2.335571275978881367e+00
2.335571275978881367e+00
2.307070406201360946e+00
2.307070406201360946e+00
2.307070406201360946e+00
2.311195532090212890e+00
2.311195532090212890e+00
2.311195532090212890e+00
2.312508072145756710e+00
2.312508072145756710e+00
2.312508072145756710e+00
2.312508072145756710e+00
2.368009765923032361e+00
2.368009765923032361e+00
2.368009765923032361e+00
2.346821619312112972e+00
2.346821619312112972e+00
2.346821619312112972e+00
2.346821619312112972e+00
2.301820245979186552e+00
2.301820245979186552e+00
2.301820245979186552e+00
2.221942808313242423e+00
2.221942808313242423e+00
2.221942808313242423e+00
2.221942808313242423e+00
2.231318094424268317e+00
2.231318094424268317e+00
2.231318094424268317e+00
2.243505966368602778e+00
2.243505966368602778e+00
2.243505966368602778e+00
2.245943540757469048e+00
2.245943540757469048e+00
2.245943540757469048e+00
2.245943540757469048e+00
2.298445142979216982e+00
2.298445142979216982e+00
2.298445142979216982e+00
2.252881252479629115e+00
2.252881252479629115e+00
2.252881252479629115e+00
2.189504318369090985e+00
2.189504318369090985e+00
2.189504318369090985e+00
2.189504318369090985e+00
2.222317819757682944e+00
2.222317819757682944e+00
2.222317819757682944e+00
2.306882900479140464e+00
2.306882900479140464e+00
2.306882900479140464e+00
2.306882900479140464e+00
2.363134617145298488e+00
2.363134617145298488e+00
2.363134617145298488e+00
2.364072145756401344e+00
2.364072145756401344e+00
2.364072145756401344e+00
2.364072145756401344e+00
2.294507522812585520e+00
2.294507522812585520e+00
2.294507522812585520e+00
2.340633930478835278e+00
2.340633930478835278e+00
2.340633930478835278e+00
2.346446607867672007e+00
2.346446607867672007e+00
2.346446607867672007e+00
2.346446607867672007e+00
2.356759422589800756e+00
2.356759422589800756e+00
2.356759422589800756e+00
2.376635029145176325e+00
2.376635029145176325e+00
2.376635029145176325e+00
2.376635029145176325e+00
2.470762901699881109e+00
2.470762901699881109e+00
2.470762901699881109e+00
2.450699789422284613e+00
2.450699789422284613e+00
2.450699789422284613e+00
2.402510818811609106e+00
2.402510818811609106e+00
2.402510818811609106e+00
2.402510818811609106e+00
2.348134159367656792e+00
2.348134159367656792e+00
2.348134159367656792e+00
2.095563951536606684e+00
2.095563951536606684e+00
2.095563951536606684e+00
2.095563951536606684e+00
2.047187475203710694e+00
2.047187475203710694e+00
2.088626239814447505e+00
2.202254707480086449e+00
2.202254707480086449e+00
2.329946104312265120e+00
2.329946104312265120e+00
2.246881069368571904e+00
2.197004547257912055e+00
2.197004547257912055e+00
2.249318643757439062e+00
2.361822077089755112e+00
2.361822077089755112e+00
2.282132145146031021e+00
2.282132145146031021e+00
2.300507705923642732e+00
2.316445692312387283e+00
2.316445692312387283e+00
2.377385052034058699e+00
2.377385052034058699e+00
2.463637684255501004e+00
2.444512100589007364e+00
2.444512100589007364e+00
2.374572466200750576e+00
2.374572466200750576e+00
2.378885097811823002e+00
2.250631183812982439e+00
2.250631183812982439e+00
2.234130680257575996e+00
2.234130680257575996e+00
2.190816858424634361e+00
2.304257820368053267e+00
2.304257820368053267e+00
2.272756859035004684e+00
2.225505417035432032e+00
2.225505417035432032e+00
2.209379924924466998e+00
2.209379924924466998e+00
2.208817407757805107e+00
2.305382854701376161e+00
2.305382854701376161e+00
2.254943815424054865e+00
2.299757683034760802e+00
2.299757683034760802e+00
2.368759788811914291e+00
2.338946378978850937e+00
2.418823816644795066e+00
2.418823816644795066e+00
2.441324503311258276e+00
2.441324503311258276e+00
2.470387890255439700e+00
2.419386333811456957e+00
2.419386333811456957e+00
2.362947111423078006e+00
2.239005829035309869e+00
2.239005829035309869e+00
2.182379100924710880e+00
2.182379100924710880e+00
2.120877224036378017e+00
2.048500015259254514e+00
2.048500015259254514e+00
2.112064455092013571e+00
2.112064455092013571e+00
2.139440290536210654e+00
2.291694936979278285e+00
2.291694936979278285e+00
2.369322305978576182e+00
2.369322305978576182e+00
2.414323679311502602e+00
2.355634388256477418e+00
2.355634388256477418e+00
2.325445966978973100e+00
2.322820886867885459e+00
2.322820886867885459e+00
2.357884456923124095e+00
2.357884456923124095e+00
2.284944730979339145e+00
2.317570726645710621e+00
2.317570726645710621e+00
2.303132786034730373e+00
2.303132786034730373e+00
2.285132236701559627e+00
2.309882992034669069e+00
2.309882992034669069e+00
2.311945554979094819e+00
2.311945554979094819e+00
2.277819513534959039e+00
2.303695303201391820e+00
2.303695303201391820e+00
2.424823999755851833e+00
2.424823999755851833e+00
2.392760521256141804e+00
2.280819605090487201e+00
2.280819605090487201e+00
2.335196264534440402e+00
2.335196264534440402e+00
2.341758964812158617e+00
2.304257820368053267e+00
2.229255531479842567e+00
2.229255531479842567e+00
2.297320108645893644e+00
2.297320108645893644e+00
2.199817133091219734e+00
2.091438825647755628e+00
2.091438825647755628e+00
2.107939329203161627e+00
2.107939329203161627e+00
2.256818872646260132e+00
2.415073702200384531e+00
2.415073702200384531e+00
2.440761986144596829e+00
2.427074068422498510e+00
2.427074068422498510e+00
2.383947752311777357e+00
2.383947752311777357e+00
2.300132694479201767e+00
2.150503128147221332e+00
2.150503128147221332e+00
2.067438093203528116e+00
2.154815759758293314e+00
2.154815759758293314e+00
2.196067018646809643e+00
2.196067018646809643e+00
2.355821893978697901e+00
2.396885647144993747e+00
2.396885647144993747e+00
2.330133610034486047e+00
2.330133610034486047e+00
2.311383037812433372e+00
2.387135349589526001e+00
2.387135349589526001e+00
2.400635761589403838e+00
2.400635761589403838e+00
2.490826013977477604e+00
2.404385876033814373e+00
2.404385876033814373e+00
2.373822443311869090e+00
2.271819330423901828e+00
2.271819330423901828e+00
2.177503952146977007e+00
2.177503952146977007e+00
2.203379741813409787e+00
2.201879696035645484e+00
2.201879696035645484e+00
2.324508438367870244e+00
2.324508438367870244e+00
2.209004913480026033e+00
2.182004089480269915e+00
2.182004089480269915e+00
2.221567796868801015e+00
2.379447614978484449e+00
2.379447614978484449e+00
2.356384411145359792e+00
2.356384411145359792e+00
2.373822443311869090e+00
2.338758873256630455e+00
2.338758873256630455e+00
2.332196172978911797e+00
2.332196172978911797e+00
2.315133152256843907e+00
2.222692831202123909e+00
2.222692831202123909e+00
2.373447431867427682e+00
2.373447431867427682e+00
2.492138554033020981e+00
2.377947569200720146e+00
2.377947569200720146e+00
2.389572923978392716e+00
2.389572923978392716e+00
2.385635303811762142e+00
2.212567522202215642e+00
2.212567522202215642e+00
2.101751640369884377e+00
1.974622760704367153e+00
1.974622760704367153e+00
2.071750724814600098e+00
2.071750724814600098e+00
2.369697317423017147e+00
2.445824640644550740e+00
2.243505966368602778e+00
2.243505966368602778e+00
2.186879238258003344e+00
2.120877224036378017e+00
2.120877224036378017e+00
2.254943815424054865e+00
2.254943815424054865e+00
2.354321848200934042e+00
2.250443678090761956e+00
2.250443678090761956e+00
2.359196996978667915e+00
2.359196996978667915e+00
2.281569627979369130e+00
2.211817499313333268e+00
2.211817499313333268e+00
2.300132694479201767e+00
2.300132694479201767e+00
2.606892056031983707e+00
2.540890041810357936e+00
2.540890041810357936e+00
2.439261940366832526e+00
2.439261940366832526e+00
2.234505691702016961e+00
2.117502121036408447e+00
2.117502121036408447e+00
2.126877407147435228e+00
2.156878322702719064e+00
2.156878322702719064e+00
2.441324503311258276e+00
2.441324503311258276e+00
2.362009582811975594e+00
2.239005829035309869e+00
2.239005829035309869e+00
2.278194524979400004e+00
2.278194524979400004e+00
2.367822260200811879e+00
2.330883632923367976e+00
2.330883632923367976e+00
2.449949766533402684e+00
2.449949766533402684e+00
2.234318185979796478e+00
2.123689809869686140e+00
2.123689809869686140e+00
2.207692373424482213e+00
2.207692373424482213e+00
2.477888119144261214e+00
2.595641712698752102e+00
2.595641712698752102e+00
2.505076448866237371e+00
2.587766472365489623e+00
2.587766472365489623e+00
2.556265511032441040e+00
2.556265511032441040e+00
2.476575579088717394e+00
2.186691732535783306e+00
2.186691732535783306e+00
1.815992919705801567e+00
1.815992919705801567e+00
1.696926786095767303e+00
1.926246284371471162e+00
1.926246284371471162e+00
2.410011047700430176e+00
2.410011047700430176e+00
2.541452558977019383e+00
2.425761528366954689e+00
2.425761528366954689e+00
2.602204412976470316e+00
2.382447706534013054e+00
2.382447706534013054e+00
2.034437086092715230e+00
2.034437086092715230e+00
1.943684316537980239e+00
2.071938230536820580e+00
2.071938230536820580e+00
2.252131229590746742e+00
2.252131229590746742e+00
2.298820154423657947e+00
2.480325693533127485e+00
2.480325693533127485e+00
2.440011963255714900e+00
2.440011963255714900e+00
2.111314432203131197e+00
1.998623493148594665e+00
1.998623493148594665e+00
2.280257087923826198e+00
2.280257087923826198e+00
2.348509170812097757e+00
2.422948942533646566e+00
2.422948942533646566e+00
2.293194982757042144e+00
2.356571916867580274e+00
2.356571916867580274e+00
2.482950773644215126e+00
2.482950773644215126e+00
2.603329447309793654e+00
2.418636310922574584e+00
2.418636310922574584e+00
2.230943082979827352e+00
2.230943082979827352e+00
2.062562944425794242e+00
2.193254432813501520e+00
2.193254432813501520e+00
2.311758049256874337e+00
2.311758049256874337e+00
2.319070772423474924e+00
2.148253059480575100e+00
2.148253059480575100e+00
2.090126285592211808e+00
2.078313425092318756e+00
2.078313425092318756e+00
2.302945280312509890e+00
2.302945280312509890e+00
2.387697866756187448e+00
2.440761986144596829e+00
2.440761986144596829e+00
2.374572466200750576e+00
2.374572466200750576e+00
2.379822626422925413e+00
2.326195989867855030e+00
2.326195989867855030e+00
2.284944730979339145e+00
2.284944730979339145e+00
2.191941892757957699e+00
2.406635944700461049e+00
2.406635944700461049e+00
2.392010498367259874e+00
2.392010498367259874e+00
2.338571367534409973e+00
2.401385784478286212e+00
2.401385784478286212e+00
2.402323313089388623e+00
2.389572923978392716e+00
2.155565782647175688e+00
2.155565782647175688e+00
2.248943632312997654e+00
2.248943632312997654e+00
2.475825556199835464e+00
2.570515945921201251e+00
2.570515945921201251e+00
2.504701437421796406e+00
2.239755851924192243e+00
2.239755851924192243e+00
1.985310586870937088e+00
1.985310586870937088e+00
1.857994201483199603e+00
1.827430768761253654e+00
1.827430768761253654e+00
2.201879696035645484e+00
2.201879696035645484e+00
2.698582354197820887e+00
2.601266884365367460e+00
2.601266884365367460e+00
2.504701437421796406e+00
2.504701437421796406e+00
2.304070314645832784e+00
2.378135074922940628e+00
2.378135074922940628e+00
2.365009674367503756e+00
2.111314432203131197e+00
2.111314432203131197e+00
2.165503585924863472e+00
2.165503585924863472e+00
2.422198919644764192e+00
2.355071871089815971e+00
2.355071871089815971e+00
2.119564683980834197e+00
2.119564683980834197e+00
2.060125370036927084e+00
2.219880245368816230e+00
2.219880245368816230e+00
2.398010681478316641e+00
2.398010681478316641e+00
2.328071047090059853e+00
2.134190130314035372e+00
2.134190130314035372e+00
2.497013702810754854e+00
2.497013702810754854e+00
2.373634937589648164e+00
2.095563951536606684e+00
2.095563951536606684e+00
2.029749443037202283e+00
2.395573107089449927e+00
2.395573107089449927e+00
2.554202948088015290e+00
2.554202948088015290e+00
2.502263863032929692e+00
2.207317361980041248e+00
2.207317361980041248e+00
2.243693472090823260e+00
2.243693472090823260e+00
2.353009308145390222e+00
2.381135166478469234e+00
2.381135166478469234e+00
2.333321207312235135e+00
2.333321207312235135e+00
2.230005554368724940e+00
2.286069765312662039e+00
2.286069765312662039e+00
2.022624225592822178e+00
2.031999511703848516e+00
2.031999511703848516e+00
2.297882625812555535e+00
2.297882625812555535e+00
2.395010589922788480e+00
2.429699148533585706e+00
2.429699148533585706e+00
2.298820154423657947e+00
2.298820154423657947e+00
2.602016907254249833e+00
2.548202764976958523e+00
2.548202764976958523e+00
2.414323679311502602e+00
2.414323679311502602e+00
2.311383037812433372e+00
2.399510727256080500e+00
2.399510727256080500e+00
2.443762077700125435e+00
2.252881252479629115e+00
2.252881252479629115e+00
2.485763359477523249e+00
2.485763359477523249e+00
2.379072603534043484e+00
2.194004455702383449e+00
2.194004455702383449e+00
2.053750175481429796e+00
2.053750175481429796e+00
1.922683675649281332e+00
2.001436078981902345e+00
2.001436078981902345e+00
1.999186010315256334e+00
1.999186010315256334e+00
1.752990997039704624e+00
2.043812372203741567e+00
2.043812372203741567e+00
2.371572374645222414e+00
2.437949400311288706e+00
2.437949400311288706e+00
2.497013702810754854e+00
2.497013702810754854e+00
2.457262489700002828e+00
2.269569261757255596e+00
2.269569261757255596e+00
2.313258095034638639e+00
2.313258095034638639e+00
2.334071230201117064e+00
2.360134525589770327e+00
2.360134525589770327e+00
2.423511459700308013e+00
2.423511459700308013e+00
2.494951139866329104e+00
2.536764915921506436e+00
2.536764915921506436e+00
2.256256355479598685e+00
2.256256355479598685e+00
1.964309945982238181e+00
1.923246192815943001e+00
1.923246192815943001e+00
2.212380016479995160e+00
2.651330912198248235e+00
2.651330912198248235e+00
2.710582720419934866e+00
2.710582720419934866e+00
2.370447340311899076e+00
2.067438093203528116e+00
2.067438093203528116e+00
2.141315347758415477e+00
2.093876400036621899e+00
2.093876400036621899e+00
2.225130405590991067e+00
2.225130405590991067e+00
2.351134250923184954e+00
2.483138279366435608e+00
2.483138279366435608e+00
2.607829584643086118e+00
2.490263496810816157e+00
2.490263496810816157e+00
2.377947569200720146e+00
2.377947569200720146e+00
2.006873744926298109e+00
2.056000244148076028e+00
2.056000244148076028e+00
2.095563951536606684e+00
2.095563951536606684e+00
2.288507339701529197e+00
2.347759147923215384e+00
2.347759147923215384e+00
2.359947019867549844e+00
2.359947019867549844e+00
2.344384044923245813e+00
2.345696584978789634e+00
2.345696584978789634e+00
2.241630909146397510e+00
2.275756950590533290e+00
2.275756950590533290e+00
2.194566972869045340e+00
2.194566972869045340e+00
2.154253242591631867e+00
2.259256447035126847e+00
2.259256447035126847e+00
2.461012604144413807e+00
2.461012604144413807e+00
2.532077272865993045e+00
2.582516312143315229e+00
2.582516312143315229e+00
2.296945097201452679e+00
2.296945097201452679e+00
2.118627155369731785e+00
2.323570909756767389e+00
2.323570909756767389e+00
2.419761345255897922e+00
2.419761345255897922e+00
2.294882534257026929e+00
2.259443952757347329e+00
2.259443952757347329e+00
2.017374065370647340e+00
2.131002533036286284e+00
2.131002533036286284e+00
2.164753563035981099e+00
2.164753563035981099e+00
2.259068941312906365e+00
2.386760338145085036e+00
2.386760338145085036e+00
2.274444410534989469e+00
2.274444410534989469e+00
2.345696584978789634e+00
2.382822717978454019e+00
2.382822717978454019e+00
2.316633198034607766e+00
2.416761253700369316e+00
2.416761253700369316e+00
2.425011505478072316e+00
2.425011505478072316e+00
2.136440198980682048e+00
2.459325052644428578e+00
2.459325052644428578e+00
2.595266701254311137e+00
2.595266701254311137e+00
2.249318643757439062e+00
2.132877590258491995e+00
2.132877590258491995e+00
1.970872646259956840e+00
1.970872646259956840e+00
2.095751457258827610e+00
2.267319193090609808e+00
2.267319193090609808e+00
2.320758323923459709e+00
2.320758323923459709e+00
2.336508804589983779e+00
2.391072969756157018e+00
2.391072969756157018e+00
2.545390179143650844e+00
2.463637684255501004e+00
2.463637684255501004e+00
2.327133518478957885e+00
2.327133518478957885e+00
2.127439924314096675e+00
2.103064180425428198e+00
2.103064180425428198e+00
2.599766838587603157e+00
2.599766838587603157e+00
2.282507156590471986e+00
2.111314432203131197e+00
2.111314432203131197e+00
2.117502121036408447e+00
2.117502121036408447e+00
2.093688894314401416e+00
2.178628986480300345e+00
2.178628986480300345e+00
2.210317453535568966e+00
2.115064546647541732e+00
2.115064546647541732e+00
2.285319742423780109e+00
2.285319742423780109e+00
2.524014526810510528e+00
2.638955534531693736e+00
2.638955534531693736e+00
2.514826746421705117e+00
2.514826746421705117e+00
2.448449720755638381e+00
2.281382122257148648e+00
2.281382122257148648e+00
2.168691183202612560e+00
2.168691183202612560e+00
1.832493423261207788e+00
2.070625690481276759e+00
2.070625690481276759e+00
2.480325693533127485e+00
2.480325693533127485e+00
2.480513199255348411e+00
2.479388164922025517e+00
2.479388164922025517e+00
2.574453566087832268e+00
2.574453566087832268e+00
2.298445142979216982e+00
2.179379009369182274e+00
2.179379009369182274e+00
2.135127658925138228e+00
2.204129764702292160e+00
2.204129764702292160e+00
2.406448438978240567e+00
2.406448438978240567e+00
2.430824182866909045e+00
2.370447340311899076e+00
2.370447340311899076e+00
2.263194067201757864e+00
2.298257637256996500e+00
2.298257637256996500e+00
2.302382763145847999e+00
2.302382763145847999e+00
2.306320383312479017e+00
2.040249763481551515e+00
2.040249763481551515e+00
1.971622669148838769e+00
1.971622669148838769e+00
2.232818140202032620e+00
2.248193609424115724e+00
2.248193609424115724e+00
2.228880520035401602e+00
2.228880520035401602e+00
2.449199743644520311e+00
2.597329264198736443e+00
2.597329264198736443e+00
2.716207892086550224e+00
2.731770867030854255e+00
2.731770867030854255e+00
2.483513290810876573e+00
2.483513290810876573e+00
2.047187475203710694e+00
1.672176030762657639e+00
1.672176030762657639e+00
1.983435529648732043e+00
1.983435529648732043e+00
2.274631916257209951e+00
2.275006927701650916e+00
2.275006927701650916e+00
2.458950041199987613e+00
2.458950041199987613e+00
2.451449812311166987e+00
2.327133518478957885e+00
2.327133518478957885e+00
2.342133976256599581e+00
2.342133976256599581e+00
2.235630726035340299e+00
2.319820795312356854e+00
2.319820795312356854e+00
2.485950865199743731e+00
2.485950865199743731e+00
2.388072878200628413e+00
2.429324137089144742e+00
2.429324137089144742e+00
2.379635120700704931e+00
2.220442762535478121e+00
2.220442762535478121e+00
2.101189123203222930e+00
2.101189123203222930e+00
2.183879146702475182e+00
2.176003906369212704e+00
2.176003906369212704e+00
2.199254615924558287e+00
2.199254615924558287e+00
2.298070131534776017e+00
2.317758232367931104e+00
2.317758232367931104e+00
2.374947477645191540e+00
2.374947477645191540e+00
2.346634113589892490e+00
2.180879055146946577e+00
2.180879055146946577e+00
1.992435804315317194e+00
1.992435804315317194e+00
2.123127292703024249e+00
2.377197546311838217e+00
2.377197546311838217e+00
2.265631641590625023e+00
2.343634022034363884e+00
2.343634022034363884e+00
2.479575670644245999e+00
2.479575670644245999e+00
2.268256721701712220e+00
2.431574205755790974e+00
2.431574205755790974e+00
2.443762077700125435e+00
2.443762077700125435e+00
2.415636219367045978e+00
2.337821344645527599e+00
2.337821344645527599e+00
2.180879055146946577e+00
2.180879055146946577e+00
2.251193700979644330e+00
2.368572283089693808e+00
2.368572283089693808e+00
2.552515396588030505e+00
2.392573015533921321e+00
2.392573015533921321e+00
2.294320017090365038e+00
2.294320017090365038e+00
2.368009765923032361e+00
2.204129764702292160e+00
2.204129764702292160e+00
2.068188116092410045e+00
2.068188116092410045e+00
2.049437543870357370e+00
2.147503036591693171e+00
2.147503036591693171e+00
2.228505508590960638e+00
2.228505508590960638e+00
2.302945280312509890e+00
2.304820337534714714e+00
2.304820337534714714e+00
2.278007019257179522e+00
2.123502304147465658e+00
2.123502304147465658e+00
2.360697042756431774e+00
2.360697042756431774e+00
2.245193517868587563e+00
2.217630176702169997e+00
2.217630176702169997e+00
2.525702078310495757e+00
2.525702078310495757e+00
2.541265053254798900e+00
2.563578234199041628e+00
2.563578234199041628e+00
2.640643086031678521e+00
2.640643086031678521e+00
2.486325876644184696e+00
2.465325235755485789e+00
2.465325235755485789e+00
2.346071596423230599e+00
2.346071596423230599e+00
2.072875759147922992e+00
1.949309488204596263e+00
1.949309488204596263e+00
2.058812829981383707e+00
2.072688253425702509e+00
2.072688253425702509e+00
2.240318369090853690e+00
2.240318369090853690e+00
2.293382488479262626e+00
2.315695669423505798e+00
2.315695669423505798e+00
2.289069856868190644e+00
2.373259926145207199e+00
2.373259926145207199e+00
2.352071779534287366e+00
2.352071779534287366e+00
2.185379192480239485e+00
2.118252143925290376e+00
2.118252143925290376e+00
2.359759514145329362e+00
2.359759514145329362e+00
2.361259559923093665e+00
2.303695303201391820e+00
2.303695303201391820e+00
2.336133793145542814e+00
2.442449537644581614e+00
2.442449537644581614e+00
2.596954252754295922e+00
2.596954252754295922e+00
2.522326975310525743e+00
2.268256721701712220e+00
2.268256721701712220e+00
2.212380016479995160e+00
2.212380016479995160e+00
2.261881527146214044e+00
2.307070406201360946e+00
2.307070406201360946e+00
2.213317545091097571e+00
2.213317545091097571e+00
2.212005005035553751e+00
2.225130405590991067e+00
2.225130405590991067e+00
2.190816858424634361e+00
2.161003448591571008e+00
2.161003448591571008e+00
2.156690816980498582e+00
2.156690816980498582e+00
2.275756950590533290e+00
2.350009216589862060e+00
2.350009216589862060e+00
2.448637226477858864e+00
2.448637226477858864e+00
2.411886104922635443e+00
2.413573656422620228e+00
2.413573656422620228e+00
2.381510177922910199e+00
2.381510177922910199e+00
2.386010315256203107e+00
2.305757866145817125e+00
2.305757866145817125e+00
2.238068300424207457e+00
2.238068300424207457e+00
2.281007110812707683e+00
2.356946928312021239e+00
2.356946928312021239e+00
2.516514297921689458e+00
2.416198736533707869e+00
2.416198736533707869e+00
2.131565050202948175e+00
2.131565050202948175e+00
2.006123722037415735e+00
1.982498001037629409e+00
1.982498001037629409e+00
2.169816217535935454e+00
2.169816217535935454e+00
2.329758598590044638e+00
2.469637867366557771e+00
2.469637867366557771e+00
2.416198736533707869e+00
2.416198736533707869e+00
2.294320017090365038e+00
2.289444868312631609e+00
2.289444868312631609e+00
2.305570360423596643e+00
2.265256630146183614e+00
2.265256630146183614e+00
2.321883358256782603e+00
2.321883358256782603e+00
2.353571825312051669e+00
2.312133060701315301e+00
2.312133060701315301e+00
2.164941068758201581e+00
2.164941068758201581e+00
2.395948118533890892e+00
2.355259376812036454e+00
2.355259376812036454e+00
2.345509079256569152e+00
2.345509079256569152e+00
2.419198828089236475e+00
2.374947477645191540e+00
2.374947477645191540e+00
2.223442854091006282e+00
2.241068391979735619e+00
2.241068391979735619e+00
2.221755302591021497e+00
2.221755302591021497e+00
2.239380840479750834e+00
2.373822443311869090e+00
2.373822443311869090e+00
2.568078371532334536e+00
2.568078371532334536e+00
2.500763817255165389e+00
2.419761345255897922e+00
2.419761345255897922e+00
2.302382763145847999e+00
2.302382763145847999e+00
2.215942625202185212e+00
2.142815393536179780e+00
2.142815393536179780e+00
2.041937314981536300e+00
1.927558824427014983e+00
1.927558824427014983e+00
2.224755394146549659e+00
2.224755394146549659e+00
2.325820978423414065e+00
2.387510361033966966e+00
2.387510361033966966e+00
2.352071779534287366e+00
2.352071779534287366e+00
2.245381023590808045e+00
2.250256172368541474e+00
2.250256172368541474e+00
2.302007751701407035e+00
2.302007751701407035e+00
2.282132145146031021e+00
2.412448622089296890e+00
2.412448622089296890e+00
2.466075258644368162e+00
2.466075258644368162e+00
2.464762718588824342e+00
2.350196722312082542e+00
2.350196722312082542e+00
2.091251319925535146e+00
2.077750907925656865e+00
2.232255623035371173e+00
2.232255623035371173e+00
2.459325052644428578e+00
2.433824274422437206e+00
2.433824274422437206e+00
2.494951139866329104e+00
2.494951139866329104e+00
2.471325418866542556e+00
2.290382396923734465e+00
2.290382396923734465e+00
2.193816949980162967e+00
2.193629444257942485e+00
2.193629444257942485e+00
2.239568346201971760e+00
2.239568346201971760e+00
2.386760338145085036e+00
2.384322763756218322e+00
2.384322763756218322e+00
2.382447706534013054e+00
2.382447706534013054e+00
2.277819513534959039e+00
2.087126194036683202e+00
2.087126194036683202e+00
2.053562669759208870e+00
2.053562669759208870e+00
2.230005554368724940e+00
2.300132694479201767e+00
2.300132694479201767e+00
2.363322122867518971e+00
2.363322122867518971e+00
2.428761619922483295e+00
2.263194067201757864e+00
2.263194067201757864e+00
2.260381481368449741e+00
2.260381481368449741e+00
2.309695486312448587e+00
2.290944914090395912e+00
2.290944914090395912e+00
2.342133976256599581e+00
2.109439374980925930e+00
2.109439374980925930e+00
2.287007293923764895e+00
2.287007293923764895e+00
2.523827021088290046e+00
2.488763451033051854e+00
2.488763451033051854e+00
2.356946928312021239e+00
2.356946928312021239e+00
2.300695211645863214e+00
2.305945371868038052e+00
2.305945371868038052e+00
2.302195257423627517e+00
2.302195257423627517e+00
2.276506973479415219e+00
2.191379375591296252e+00
2.329758598590044638e+00
2.329758598590044638e+00
2.248943632312997654e+00
2.248943632312997654e+00
2.256443861201819168e+00
2.318320749534592551e+00
2.318320749534592551e+00
2.196817041535691573e+00
2.290382396923734465e+00
2.290382396923734465e+00
2.257006378368480615e+00
2.257006378368480615e+00
2.348696676534318240e+00
2.282319650868251504e+00
2.282319650868251504e+00
2.320758323923459709e+00
2.320758323923459709e+00
2.317008209479048730e+00
2.375134983367412023e+00
2.375134983367412023e+00
2.402885830256050514e+00
2.439074434644612044e+00
2.439074434644612044e+00
2.362572099978637485e+00
2.362572099978637485e+00
2.266944181646168399e+00
2.256631366924039650e+00
2.256631366924039650e+00
2.283069673757133433e+00
2.283069673757133433e+00
2.304632831812494231e+00
2.238443311868648422e+00
2.238443311868648422e+00
2.190441846980193397e+00
2.190441846980193397e+00
2.079250953703421168e+00
2.266944181646168399e+00
2.266944181646168399e+00
2.463075167088839557e+00
2.366509720145268059e+00
2.366509720145268059e+00
2.259631458479567812e+00
2.259631458479567812e+00
2.208629902035584625e+00
2.196817041535691573e+00
2.196817041535691573e+00
2.299945188756981285e+00
2.299945188756981285e+00
2.332571184423352761e+00
2.433449262977995797e+00
2.433449262977995797e+00
2.437386883144627259e+00
2.350384228034303025e+00
2.350384228034303025e+00
2.280444593646046680e+00
2.280444593646046680e+00
2.070625690481276759e+00
2.173378826258125951e+00
2.173378826258125951e+00
2.276506973479415219e+00
2.276506973479415219e+00
2.399885738700521909e+00
2.435324320200201509e+00
2.435324320200201509e+00
2.418448805200354101e+00
2.418448805200354101e+00
2.341946470534379099e+00
2.294132511368144556e+00
2.294132511368144556e+00
2.295820062868129341e+00
2.260943998535111632e+00
2.260943998535111632e+00
2.302007751701407035e+00
2.302007751701407035e+00
2.302195257423627517e+00
2.298070131534776017e+00
2.298070131534776017e+00
2.392385509811700839e+00
2.499451277199621568e+00
2.499451277199621568e+00
2.381322672200689716e+00
2.381322672200689716e+00
2.314570635090182460e+00
2.072875759147922992e+00
2.072875759147922992e+00
1.971435163426618287e+00
1.971435163426618287e+00
2.150690633869442259e+00
2.328821069978942226e+00
2.328821069978942226e+00
2.393510544145024177e+00
2.393510544145024177e+00
2.371572374645222414e+00
2.377760063478499664e+00
2.377760063478499664e+00
2.349446699423200169e+00
2.325445966978973100e+00
2.325445966978973100e+00
2.295445051423688376e+00
2.295445051423688376e+00
2.266944181646168399e+00
2.217442670979949515e+00
2.217442670979949515e+00
2.312883083590197675e+00
2.312883083590197675e+00
2.323008392590105942e+00
2.343634022034363884e+00
2.343634022034363884e+00
2.326383495590075512e+00
2.266569170201727434e+00
2.266569170201727434e+00
2.238443311868648422e+00
2.238443311868648422e+00
2.360509537034211291e+00
2.275569444868312807e+00
2.275569444868312807e+00
2.236755760368663637e+00
2.236755760368663637e+00
2.308382946256904766e+00
2.321133335367900674e+00
2.321133335367900674e+00
2.394823084200567997e+00
2.394823084200567997e+00
2.401198278756065729e+00
2.314383129367961978e+00
2.314383129367961978e+00
2.271631824701681346e+00
2.271631824701681346e+00
2.217067659535508550e+00
2.236943266090884119e+00
2.236943266090884119e+00
2.344009033478804849e+00
2.344009033478804849e+00
2.405135898922696747e+00
2.374384960478530537e+00
2.374384960478530537e+00
2.339133884701071420e+00
2.339696401867732423e+00
2.339696401867732423e+00
2.314008117923521013e+00
2.314008117923521013e+00
2.390322946867275089e+00
2.454074892422254184e+00
2.454074892422254184e+00
2.429324137089144742e+00
2.429324137089144742e+00
2.378697592089602519e+00
2.252131229590746742e+00
2.252131229590746742e+00
2.024874294259468410e+00
2.024874294259468410e+00
1.972935209204382367e+00
2.117502121036408447e+00
2.117502121036408447e+00
2.167753654591509704e+00
2.221005279702139568e+00
2.221005279702139568e+00
2.272756859035004684e+00
2.272756859035004684e+00
2.351696768089846401e+00
2.452949858088931290e+00
2.452949858088931290e+00
2.462700155644398592e+00
2.462700155644398592e+00
2.437011871700186294e+00
2.447137180700094561e+00
2.447137180700094561e+00
2.348884182256538722e+00
2.348884182256538722e+00
2.241255897701956545e+00
2.220067751091036712e+00
2.220067751091036712e+00
2.127064912869655711e+00
2.128564958647419569e+00
2.128564958647419569e+00
2.195504501480147752e+00
2.195504501480147752e+00
2.239755851924192243e+00
2.287382305368205859e+00
2.287382305368205859e+00
2.342321481978820064e+00
2.342321481978820064e+00
2.399698232978301426e+00
2.395198095645008962e+00
2.395198095645008962e+00
2.397260658589434712e+00
2.397260658589434712e+00
2.365572191534165203e+00
2.284382213812677254e+00
2.284382213812677254e+00
2.314008117923521013e+00
2.314008117923521013e+00
2.359384502700888397e+00
2.368572283089693808e+00
2.368572283089693808e+00
2.335008758812219920e+00
2.335008758812219920e+00
2.199442121646778769e+00
2.232630634479812137e+00
2.232630634479812137e+00
2.277819513534959039e+00
2.309507980590228104e+00
2.309507980590228104e+00
2.349071687978759204e+00
2.349071687978759204e+00
2.359759514145329362e+00
2.298257637256996500e+00
2.298257637256996500e+00
2.212755027924436124e+00
2.212755027924436124e+00
2.221755302591021497e+00
2.246881069368571904e+00
2.246881069368571904e+00
2.215192602313302839e+00
2.321133335367900674e+00
2.321133335367900674e+00
2.335008758812219920e+00
2.335008758812219920e+00
2.298257637256996500e+00
2.381510177922910199e+00
2.381510177922910199e+00
2.365572191534165203e+00
2.365572191534165203e+00
2.358071962645344577e+00
2.331633655812249906e+00
2.331633655812249906e+00
2.355071871089815971e+00
2.355071871089815971e+00
2.390697958311716054e+00
2.405135898922696747e+00
2.405135898922696747e+00
2.386572832422864110e+00
2.386572832422864110e+00
2.320758323923459709e+00
2.269569261757255596e+00
2.269569261757255596e+00
2.267881710257271255e+00
2.224567888424329176e+00
2.224567888424329176e+00
2.289069856868190644e+00
2.289069856868190644e+00
2.294507522812585520e+00
2.251193700979644330e+00
2.251193700979644330e+00
2.293007477034821662e+00
2.293007477034821662e+00
2.245381023590808045e+00
2.143752922147282192e+00
2.143752922147282192e+00
2.224192876979888212e+00
2.224192876979888212e+00
2.295445051423688376e+00
2.335008758812219920e+00
2.335008758812219920e+00
2.360134525589770327e+00
2.360134525589770327e+00
2.320570818201239227e+00
2.347196630756553937e+00
2.347196630756553937e+00
2.380010132145145896e+00
2.372322397534104788e+00
2.372322397534104788e+00
2.352446790978728330e+00
2.352446790978728330e+00
2.369134800256355700e+00
2.361634571367534630e+00
2.361634571367534630e+00
2.334633747367778511e+00
2.334633747367778511e+00
2.152753196813867564e+00
2.169628711813714972e+00
2.169628711813714972e+00
2.259443952757347329e+00
2.284569719534897736e+00
2.284569719534897736e+00
2.339883907589953349e+00
2.339883907589953349e+00
2.299757683034760802e+00
2.283632190923795324e+00
2.283632190923795324e+00
2.357321939756462204e+00
2.357321939756462204e+00
2.360884548478652700e+00
2.324508438367870244e+00
2.324508438367870244e+00
2.299757683034760802e+00
2.299757683034760802e+00
2.213692556535538980e+00
2.098939054536576698e+00
2.098939054536576698e+00
2.154253242591631867e+00
2.267131687368389326e+00
2.267131687368389326e+00
2.253068758201849597e+00
2.253068758201849597e+00
2.272194341868343237e+00
2.382822717978454019e+00
2.382822717978454019e+00
2.429136631366924259e+00
2.429136631366924259e+00
2.415636219367045978e+00
2.400448255867183356e+00
2.400448255867183356e+00
2.376635029145176325e+00
2.376635029145176325e+00
2.318883266701254442e+00
2.258131412701803509e+00
2.258131412701803509e+00
2.184816675313578038e+00
2.184816675313578038e+00
2.258318918424023991e+00
2.255131321146275347e+00
2.255131321146275347e+00
2.325820978423414065e+00
2.342696493423261028e+00
2.342696493423261028e+00
2.257943906979583026e+00
2.257943906979583026e+00
2.317945738090151586e+00
2.372884914700766235e+00
2.372884914700766235e+00
2.381697683645130681e+00
2.381697683645130681e+00
2.363697134311959935e+00
2.263944090090640238e+00
2.263944090090640238e+00
2.275006927701650916e+00
2.275006927701650916e+00
2.239943357646412725e+00
2.247068575090792386e+00
2.247068575090792386e+00
2.232630634479812137e+00
2.232630634479812137e+00
2.216880153813287624e+00
2.168316171758171151e+00
2.168316171758171151e+00
2.270319284646137969e+00
2.381510177922910199e+00
2.381510177922910199e+00
2.475263039033173573e+00
2.475263039033173573e+00
2.430261665700247153e+00
2.380572649311807787e+00
2.386010315256203107e+00
2.372322397534104788e+00
2.295445051423688376e+00
2.295445051423688376e+00
2.216505142368846659e+00
2.216505142368846659e+00
2.202817224646748340e+00
2.231130588702047834e+00
2.231130588702047834e+00
2.310445509201330516e+00
2.310445509201330516e+00
2.371009857478560967e+00
2.395948118533890892e+00
2.395948118533890892e+00
2.343446516312143402e+00
2.343446516312143402e+00
2.280819605090487201e+00
2.277444502090518075e+00
2.277444502090518075e+00
2.285882259590441556e+00
2.285882259590441556e+00
2.191566881313516735e+00
2.158940885647145258e+00
2.158940885647145258e+00
2.276694479201635701e+00
2.276694479201635701e+00
2.363697134311959935e+00
2.390697958311716054e+00
2.390697958311716054e+00
2.257943906979583026e+00
2.201129673146763555e+00
2.201129673146763555e+00
2.276319467757194737e+00
2.276319467757194737e+00
2.342321481978820064e+00
2.334258735923337547e+00
2.334258735923337547e+00
2.353009308145390222e+00
2.353009308145390222e+00
2.390322946867275089e+00
2.498513748588519157e+00
2.498513748588519157e+00
2.637080477309488025e+00
2.637080477309488025e+00
2.536389904477065471e+00
2.383760246589556875e+00
2.383760246589556875e+00
2.239568346201971760e+00
2.031624500259407551e+00
2.031624500259407551e+00
1.909558275093844459e+00
1.909558275093844459e+00
2.024874294259468410e+00
2.182566606646931362e+00
2.182566606646931362e+00
2.246506057924130939e+00
2.315320657979064389e+00
2.334633747367778511e+00
2.382260200811792572e+00
2.382260200811792572e+00
2.431011688589129527e+00
2.356946928312021239e+00
2.356946928312021239e+00
2.340258919034394314e+00
2.340258919034394314e+00
2.254756309701834383e+00
2.201129673146763555e+00
2.201129673146763555e+00
2.161940977202673420e+00
2.161940977202673420e+00
2.194379467146824858e+00
2.265819147312845505e+00
2.265819147312845505e+00
2.252506241035188150e+00
2.252506241035188150e+00
2.293569994201483109e+00
2.289632374034852091e+00
2.289632374034852091e+00
2.354696859645375007e+00
2.338383861812189490e+00
2.338383861812189490e+00
2.312133060701315301e+00
2.312133060701315301e+00
2.340446424756614796e+00
2.320570818201239227e+00
2.320570818201239227e+00
2.369134800256355700e+00
2.369134800256355700e+00
2.378697592089602519e+00
2.352259285256507848e+00
2.352259285256507848e+00
2.273881893368328022e+00
2.181816583758049433e+00
2.181816583758049433e+00
2.199067110202337361e+00
2.199067110202337361e+00
2.270319284646137969e+00
2.300695211645863214e+00
2.300695211645863214e+00
2.320008301034577336e+00
2.320008301034577336e+00
2.341383953367717208e+00
2.308570451979125249e+00
2.308570451979125249e+00
2.291882442701498768e+00
2.291882442701498768e+00
2.353571825312051669e+00
2.330133610034486047e+00
2.330133610034486047e+00
2.313070589312418157e+00
2.288507339701529197e+00
2.288507339701529197e+00
2.246506057924130939e+00
2.246506057924130939e+00
2.272569353312784202e+00
2.296757591479232197e+00
2.296757591479232197e+00
2.321883358256782603e+00
2.321883358256782603e+00
2.307820429090243319e+00
2.287194799645985377e+00
2.287194799645985377e+00
2.319445783867915889e+00
2.364072145756401344e+00
2.364072145756401344e+00
2.380010132145145896e+00
2.380010132145145896e+00
2.356571916867580274e+00
2.352446790978728330e+00
2.352446790978728330e+00
2.308757957701345731e+00
2.294320017090365038e+00
2.294320017090365038e+00
2.279132053590502860e+00
2.244631000701926116e+00
2.244631000701926116e+00
2.198692098757896396e+00
2.198692098757896396e+00
2.210317453535568966e+00
2.257568895535142062e+00
2.257568895535142062e+00
2.347196630756553937e+00
2.347196630756553937e+00
2.383010223700674501e+00
2.368947294534135217e+00
2.368947294534135217e+00
2.405135898922696747e+00
2.405135898922696747e+00
2.377385052034058699e+00
2.243693472090823260e+00
2.243693472090823260e+00
2.128189947202978605e+00
2.128189947202978605e+00
2.212192510757774677e+00
2.294695028534806447e+00
2.294695028534806447e+00
2.300320200201422249e+00
2.290007385479293500e+00
2.290007385479293500e+00
2.307820429090243319e+00
2.307820429090243319e+00
2.373822443311869090e+00
2.389572923978392716e+00
2.389572923978392716e+00
2.367447248756370914e+00
2.367447248756370914e+00
2.364822168645283273e+00
2.355634388256477418e+00
2.355634388256477418e+00
2.318133243812372069e+00
2.318133243812372069e+00
2.327696035645618888e+00
2.262069032868434526e+00
2.262069032868434526e+00
2.182566606646931362e+00
2.170378734702597345e+00
2.170378734702597345e+00
2.236193243202001746e+00
2.236193243202001746e+00
2.266194158757286470e+00
2.220255256813257638e+00
2.220255256813257638e+00
2.194566972869045340e+00
2.194566972869045340e+00
2.243880977813043742e+00
2.250068666646320992e+00
2.250068666646320992e+00
2.293945005645924073e+00
2.293945005645924073e+00
2.246131046479689974e+00
2.353946836756492633e+00
2.353946836756492633e+00
2.420886379589221260e+00
2.420886379589221260e+00
2.431574205755790974e+00
2.409261024811548246e+00
2.409261024811548246e+00
2.357509445478682686e+00
2.306132877590258534e+00
2.306132877590258534e+00
2.293007477034821662e+00
2.293007477034821662e+00
2.285694753868221074e+00
2.265444135868404540e+00
2.265444135868404540e+00
2.288319833979308715e+00
2.288319833979308715e+00
2.403635853144932444e+00
2.431761711478011456e+00
2.431761711478011456e+00
2.388635395367290304e+00
2.388635395367290304e+00
2.371947386089663379e+00
2.276319467757194737e+00
2.276319467757194737e+00
2.142815393536179780e+00
2.101564134647663895e+00
2.101564134647663895e+00
2.120689718314157535e+00
2.120689718314157535e+00
2.126502395702994264e+00
2.242755943479720404e+00
2.242755943479720404e+00
2.324883449812311209e+00
2.324883449812311209e+00
2.355634388256477418e+00
2.348134159367656792e+00
2.348134159367656792e+00
2.318133243812372069e+00
2.318133243812372069e+00
2.303695303201391820e+00
2.297695120090334608e+00
2.297695120090334608e+00
2.303132786034730373e+00
2.303132786034730373e+00
2.315695669423505798e+00
2.339321390423291458e+00
2.339321390423291458e+00
2.321883358256782603e+00
2.308007934812463802e+00
2.308007934812463802e+00
2.323195898312326424e+00
2.323195898312326424e+00
2.313633106479079604e+00
2.326946012756737403e+00
2.326946012756737403e+00
2.306695394756919981e+00
2.306695394756919981e+00
2.310633014923550999e+00
2.324320932645649762e+00
2.324320932645649762e+00
2.301257728812525105e+00
2.301257728812525105e+00
2.278007019257179522e+00
2.280069582201605716e+00
2.280069582201605716e+00
2.320758323923459709e+00
2.320758323923459709e+00
2.353196813867610704e+00
2.309882992034669069e+00
2.309882992034669069e+00
2.359196996978667915e+00
2.368197271645252844e+00
2.368197271645252844e+00
2.374572466200750576e+00
2.374572466200750576e+00
2.353759331034272151e+00
2.327696035645618888e+00
2.327696035645618888e+00
2.239193334757530351e+00
2.135127658925138228e+00
2.135127658925138228e+00
2.144502945036164565e+00
2.144502945036164565e+00
2.184254158146916147e+00
2.194191961424603932e+00
2.194191961424603932e+00
2.255506332590716312e+00
2.255506332590716312e+00
2.249506149479659545e+00
2.296570085757011714e+00
2.296570085757011714e+00
2.339696401867732423e+00
2.339696401867732423e+00
2.374572466200750576e+00
2.388822901089510786e+00
2.388822901089510786e+00
2.338571367534409973e+00
2.338571367534409973e+00
2.309882992034669069e+00
2.299570177312540320e+00
2.299570177312540320e+00
2.291507431257057803e+00
2.291507431257057803e+00
2.312320566423536228e+00
2.320383312479018745e+00
2.320383312479018745e+00
2.318133243812372069e+00
2.333133701590014208e+00
2.333133701590014208e+00
2.392198004089480357e+00
2.392198004089480357e+00
2.357884456923124095e+00
2.315320657979064389e+00
2.315320657979064389e+00
2.311758049256874337e+00
2.311758049256874337e+00
2.355259376812036454e+00
2.276319467757194737e+00
2.276319467757194737e+00
2.145627979369487459e+00
2.145627979369487459e+00
2.199254615924558287e+00
2.219692739646595747e+00
2.219692739646595747e+00
2.236943266090884119e+00
2.236943266090884119e+00
2.286819788201544412e+00
2.339696401867732423e+00
2.339696401867732423e+00
2.349259193700979687e+00
2.398760704367198571e+00
2.398760704367198571e+00
2.357321939756462204e+00
2.357321939756462204e+00
2.338758873256630455e+00
2.353946836756492633e+00
2.353946836756492633e+00
2.279694570757164307e+00
2.279694570757164307e+00
2.240130863368633207e+00
2.292819971312600735e+00
2.292819971312600735e+00
2.268069215979491737e+00
2.254006286812952009e+00
2.254006286812952009e+00
2.275381939146092325e+00
2.275381939146092325e+00
2.220817773979919085e+00
2.211817499313333268e+00
2.211817499313333268e+00
2.265256630146183614e+00
2.265256630146183614e+00
2.279882076479384789e+00
2.266381664479506952e+00
2.266381664479506952e+00
2.223442854091006282e+00
2.223442854091006282e+00
2.289444868312631609e+00
2.364634662923062791e+00
2.364634662923062791e+00
2.382072695089572090e+00
2.382072695089572090e+00
2.382447706534013054e+00
2.398573198644978088e+00
2.398573198644978088e+00
2.338008850367748082e+00
2.338008850367748082e+00
2.299945188756981285e+00
2.265444135868404540e+00
2.265444135868404540e+00
2.269381756035035114e+00
2.255506332590716312e+00
2.255506332590716312e+00
2.288507339701529197e+00
2.288507339701529197e+00
2.270319284646137969e+00
2.270881801812799416e+00
2.270881801812799416e+00
2.314383129367961978e+00
2.314383129367961978e+00
2.315133152256843907e+00
2.293007477034821662e+00
2.293007477034821662e+00
2.334633747367778511e+00
2.334633747367778511e+00
2.352259285256507848e+00
2.313820612201300086e+00
2.313820612201300086e+00
2.297132602923673161e+00
2.289819879757073018e+00
2.289819879757073018e+00
2.280069582201605716e+00
2.280069582201605716e+00
2.238443311868648422e+00
2.243693472090823260e+00
2.243693472090823260e+00
2.252318735312967224e+00
2.252318735312967224e+00
2.284382213812677254e+00
2.312320566423536228e+00
2.312320566423536228e+00
2.333883724478896582e+00
2.333883724478896582e+00
2.378322580645161111e+00
2.403260841700491479e+00
2.403260841700491479e+00
2.418823816644795066e+00
2.395948118533890892e+00
2.395948118533890892e+00
2.359759514145329362e+00
2.268256721701712220e+00
2.268256721701712220e+00
2.170566240424817828e+00
2.170566240424817828e+00
2.221192785424360050e+00
2.315508163701284872e+00
2.315508163701284872e+00
2.339321390423291458e+00
2.339321390423291458e+00
2.334821253089998994e+00
2.286257271034882521e+00
2.286257271034882521e+00
2.190066835535752432e+00
2.190066835535752432e+00
2.226067934202093479e+00
2.246881069368571904e+00
2.246881069368571904e+00
2.271069307535019899e+00
2.315883175145725836e+00
2.315883175145725836e+00
2.308382946256904766e+00
2.308382946256904766e+00
2.300507705923642732e+00
2.275381939146092325e+00
2.275381939146092325e+00
2.282694662312692468e+00
2.282694662312692468e+00
2.292632465590380253e+00
2.290757408368175430e+00
2.290757408368175430e+00
2.290007385479293500e+00
2.290007385479293500e+00
2.311758049256874337e+00
2.308757957701345731e+00
2.308757957701345731e+00
2.302195257423627517e+00
2.302195257423627517e+00
2.323570909756767389e+00
2.326008484145634547e+00
2.326008484145634547e+00
2.308757957701345731e+00
2.360134525589770327e+00
2.360134525589770327e+00
2.297132602923673161e+00
2.297132602923673161e+00
2.295257545701467894e+00
2.291694936979278285e+00
2.291694936979278285e+00
2.290757408368175430e+00
2.290757408368175430e+00
2.339883907589953349e+00
2.244818506424146598e+00
2.244818506424146598e+00
2.201317178868984037e+00
2.201317178868984037e+00
2.275569444868312807e+00
2.332758690145573244e+00
2.332758690145573244e+00
2.444512100589007364e+00
2.444512100589007364e+00
2.426324045533616136e+00
2.362197088534196077e+00
2.362197088534196077e+00
2.322633381145664977e+00
2.228693014313181120e+00
2.228693014313181120e+00
2.131752555925168657e+00
2.131752555925168657e+00
2.190816858424634361e+00
2.261131504257332114e+00
2.261131504257332114e+00
2.284757225257118218e+00
2.309882992034669069e+00
2.309882992034669069e+00
2.326008484145634547e+00
2.326008484145634547e+00
2.317758232367931104e+00
2.290194891201513983e+00
2.290194891201513983e+00
2.274819421979430434e+00
2.274819421979430434e+00
2.267694204535050773e+00
2.296195074312570750e+00
2.296195074312570750e+00
2.306882900479140464e+00
2.306882900479140464e+00
2.344571550645466296e+00
2.362759605700857524e+00
2.362759605700857524e+00
2.325070955534531691e+00
2.325070955534531691e+00
2.269194250312814631e+00
2.298257637256996500e+00
2.298257637256996500e+00
2.297507614368114126e+00
2.274819421979430434e+00
2.274819421979430434e+00
2.293007477034821662e+00
2.293007477034821662e+00
2.365384685811944721e+00
2.410573564867091623e+00
2.410573564867091623e+00
2.451262306588946061e+00
2.451262306588946061e+00
2.423136448255867048e+00
2.362947111423078006e+00
2.362947111423078006e+00
2.266944181646168399e+00
2.266944181646168399e+00
2.247068575090792386e+00
2.122564775536362802e+00
2.122564775536362802e+00
2.135877681814020157e+00
2.213317545091097571e+00
2.213317545091097571e+00
2.230755577257606870e+00
2.230755577257606870e+00
2.221005279702139568e+00
2.230943082979827352e+00
2.230943082979827352e+00
2.259818964201788294e+00
2.259818964201788294e+00
2.314195623645741495e+00
2.342508987701040546e+00
2.342508987701040546e+00
2.335946287423322332e+00
2.335946287423322332e+00
2.351509262367625919e+00
2.344946562089907705e+00
2.344946562089907705e+00
2.337071321756645670e+00
2.337071321756645670e+00
2.343821527756584366e+00
2.305945371868038052e+00
2.305945371868038052e+00
2.306320383312479017e+00
2.288882351145970162e+00
2.288882351145970162e+00
2.258881435590685438e+00
2.258881435590685438e+00
2.236193243202001746e+00
2.242755943479720404e+00
2.242755943479720404e+00
2.262256538590655452e+00
2.262256538590655452e+00
2.288694845423749680e+00
2.326195989867855030e+00
2.326195989867855030e+00
2.337446333201086635e+00
2.337446333201086635e+00
2.351509262367625919e+00
2.371572374645222414e+00
2.371572374645222414e+00
2.334446241645558029e+00
2.334446241645558029e+00
2.279132053590502860e+00
2.219692739646595747e+00
2.219692739646595747e+00
2.216317636646626177e+00
2.267506698812830290e+00
2.267506698812830290e+00
2.284007202368236289e+00
2.284007202368236289e+00
2.292257454145939732e+00
2.308195440534684284e+00
2.308195440534684284e+00
2.304257820368053267e+00
2.304257820368053267e+00
2.309132969145787140e+00
2.316258186590166801e+00
2.316258186590166801e+00
2.311945554979094819e+00
2.311945554979094819e+00
2.322445875423444495e+00
2.349634205145421095e+00
2.349634205145421095e+00
2.329571092867824156e+00
2.329571092867824156e+00
2.328071047090059853e+00
2.303507797479171337e+00
2.303507797479171337e+00
2.293194982757042144e+00
2.299195165868098911e+00
2.299195165868098911e+00
2.266944181646168399e+00
2.266944181646168399e+00
2.239755851924192243e+00
2.248381115146336207e+00
2.248381115146336207e+00
2.281382122257148648e+00
2.281382122257148648e+00
2.299945188756981285e+00
2.294695028534806447e+00
2.294695028534806447e+00
2.330696127201147494e+00
2.330696127201147494e+00
2.326571001312295994e+00
2.300320200201422249e+00
2.300320200201422249e+00
2.314008117923521013e+00
2.314008117923521013e+00
2.326383495590075512e+00
2.281569627979369130e+00
2.281569627979369130e+00
2.278757042146061895e+00
2.318508255256813033e+00
2.318508255256813033e+00
2.358259468367565059e+00
2.358259468367565059e+00
2.358446974089785542e+00
2.319258278145695407e+00
2.319258278145695407e+00
2.294132511368144556e+00
2.294132511368144556e+00
2.293194982757042144e+00
2.296757591479232197e+00
2.296757591479232197e+00
2.289632374034852091e+00
2.289632374034852091e+00
2.233755668813135031e+00
2.241818414868617992e+00
2.241818414868617992e+00
2.322633381145664977e+00
2.308382946256904766e+00
2.308382946256904766e+00
2.293757499923703591e+00
2.293757499923703591e+00
2.287944822534867306e+00
2.277819513534959039e+00
2.277819513534959039e+00
2.202817224646748340e+00
2.202817224646748340e+00
2.199629627368999252e+00
2.221380291146580532e+00
2.221380291146580532e+00
2.264506607257301685e+00
2.264506607257301685e+00
2.277632007812738557e+00
2.307257911923581428e+00
2.307257911923581428e+00
2.341196447645496725e+00
2.341196447645496725e+00
2.356009399700918827e+00
2.348321665089877275e+00
2.348321665089877275e+00
2.338758873256630455e+00
2.327508529923398850e+00
2.327508529923398850e+00
2.341383953367717208e+00
2.341383953367717208e+00
2.404760887478255782e+00
2.399510727256080500e+00
2.399510727256080500e+00
2.399135715811639535e+00
2.399135715811639535e+00
2.420698873867000778e+00
2.331821161534470832e+00
2.331821161534470832e+00
2.189129306924649576e+00
2.189129306924649576e+00
2.116189580980865070e+00
2.185004181035798521e+00
2.185004181035798521e+00
2.212380016479995160e+00
2.212380016479995160e+00
2.195129490035706787e+00
2.259443952757347329e+00
2.259443952757347329e+00
2.287382305368205859e+00
2.282319650868251504e+00
2.282319650868251504e+00
2.328446058534500818e+00
2.328446058534500818e+00
2.282882168034912951e+00
2.276694479201635701e+00
2.276694479201635701e+00
2.284007202368236289e+00
2.286069765312662039e+00
2.286069765312662039e+00
2.303132786034730373e+00
2.303132786034730373e+00
2.306695394756919981e+00
2.298445142979216982e+00
2.298445142979216982e+00
2.353196813867610704e+00
2.353196813867610704e+00
2.353571825312051669e+00
2.334821253089998994e+00
2.334821253089998994e+00
2.345321573534348669e+00
2.345321573534348669e+00
2.339508896145511940e+00
2.352259285256507848e+00
2.352259285256507848e+00
2.329571092867824156e+00
2.329571092867824156e+00
2.314570635090182460e+00
2.340071413312173831e+00
2.340071413312173831e+00
2.299570177312540320e+00
2.252693746757408633e+00
2.252693746757408633e+00
2.253818781090731527e+00
2.253818781090731527e+00
2.193629444257942485e+00
2.181254066591387542e+00
2.181254066591387542e+00
2.211254982146671821e+00
2.211254982146671821e+00
2.247818597979674760e+00
2.269194250312814631e+00
2.269194250312814631e+00
2.350384228034303025e+00
2.350384228034303025e+00
2.353759331034272151e+00
2.338571367534409973e+00
2.338571367534409973e+00
2.319633289590136371e+00
2.319633289590136371e+00
2.285882259590441556e+00
2.287569811090426342e+00
2.287569811090426342e+00
2.271631824701681346e+00
2.271631824701681346e+00
2.266756675923947917e+00
2.289632374034852091e+00
2.289632374034852091e+00
2.286444776757103448e+00
2.302570268868068482e+00
2.302570268868068482e+00
2.326195989867855030e+00
2.326195989867855030e+00
2.348134159367656792e+00
2.354134342478713116e+00
2.354134342478713116e+00
2.338196356089969008e+00
2.338196356089969008e+00
2.307070406201360946e+00
2.334071230201117064e+00
2.334071230201117064e+00
2.368947294534135217e+00
2.368947294534135217e+00
2.320570818201239227e+00
2.309882992034669069e+00
2.309882992034669069e+00
2.283444685201574842e+00
2.269381756035035114e+00
2.269381756035035114e+00
2.195316995757927270e+00
2.195316995757927270e+00
2.192129398480178182e+00
2.282319650868251504e+00
2.282319650868251504e+00
2.317945738090151586e+00
2.317945738090151586e+00
2.313258095034638639e+00
2.347196630756553937e+00
2.347196630756553937e+00
2.317195715201269657e+00
2.317195715201269657e+00
2.269381756035035114e+00
2.303132786034730373e+00
2.303132786034730373e+00
2.327133518478957885e+00
2.345884090701010116e+00
2.345884090701010116e+00
2.401760795922727176e+00
2.401760795922727176e+00
2.405323404644917229e+00
2.358446974089785542e+00
2.358446974089785542e+00
2.236380748924222672e+00
2.236380748924222672e+00
2.161940977202673420e+00
2.122002258369701355e+00
2.122002258369701355e+00
2.102876674703207716e+00
2.102876674703207716e+00
2.187816766869105756e+00
2.315883175145725836e+00
2.315883175145725836e+00
2.324695944090090727e+00
2.324695944090090727e+00
2.329383587145603673e+00
2.330321115756706529e+00
2.330321115756706529e+00
2.284382213812677254e+00
2.284382213812677254e+00
2.277819513534959039e+00
2.312695577867977192e+00
2.312695577867977192e+00
2.305757866145817125e+00
2.309132969145787140e+00
2.309132969145787140e+00
2.295070039979247412e+00
2.295070039979247412e+00
2.311758049256874337e+00
2.345884090701010116e+00
2.345884090701010116e+00
2.363509628589739453e+00
2.363509628589739453e+00
2.397635670033875677e+00
2.426511551255836618e+00
2.426511551255836618e+00
2.383947752311777357e+00
2.348509170812097757e+00
2.297507614368114126e+00
2.208254890591143660e+00
2.144127933591723156e+00
2.144127933591723156e+00
2.137377727591784460e+00
2.137377727591784460e+00
2.184441663869136629e+00
2.234505691702016961e+00
2.234505691702016961e+00
2.274444410534989469e+00
2.347759147923215384e+00
2.347759147923215384e+00
2.353946836756492633e+00
2.353946836756492633e+00
2.352071779534287366e+00
2.370259834589678594e+00
2.370259834589678594e+00
2.409636036255989211e+00
2.409636036255989211e+00
2.342883999145481511e+00
2.342133976256599581e+00
2.342133976256599581e+00
2.316820703756828248e+00
2.316820703756828248e+00
2.249693655201880027e+00
2.201879696035645484e+00
2.201879696035645484e+00
2.227755485702078264e+00
2.227755485702078264e+00
2.202254707480086449e+00
2.192504409924619146e+00
2.192504409924619146e+00
2.248381115146336207e+00
2.248381115146336207e+00
2.293757499923703591e+00
2.302757774590289408e+00
2.302757774590289408e+00
2.337258827478866152e+00
2.349446699423200169e+00
2.349446699423200169e+00
2.339883907589953349e+00
2.339883907589953349e+00
2.338196356089969008e+00
2.326383495590075512e+00
2.326383495590075512e+00
2.318508255256813033e+00
2.318508255256813033e+00
2.308945463423566213e+00
2.283632190923795324e+00
2.283632190923795324e+00
2.275569444868312807e+00
2.275569444868312807e+00
2.281007110812707683e+00
2.269194250312814631e+00
2.295070039979247412e+00
2.295070039979247412e+00
2.343071504867702437e+00
2.343071504867702437e+00
2.336508804589983779e+00
2.338008850367748082e+00
2.338008850367748082e+00
2.299570177312540320e+00
2.299570177312540320e+00
2.306320383312479017e+00
2.303507797479171337e+00
2.303507797479171337e+00
2.256256355479598685e+00
2.256256355479598685e+00
2.257006378368480615e+00
2.237505783257545566e+00
2.237505783257545566e+00
2.238630817590868904e+00
2.252506241035188150e+00
2.252506241035188150e+00
2.275194433423871843e+00
2.275194433423871843e+00
2.307820429090243319e+00
2.343071504867702437e+00
2.343071504867702437e+00
2.334258735923337547e+00
2.334258735923337547e+00
2.332383678701132279e+00
2.327508529923398850e+00
2.327508529923398850e+00
2.322258369701224012e+00
2.322258369701224012e+00
2.362759605700857524e+00
2.333321207312235135e+00
2.333321207312235135e+00
2.313633106479079604e+00
2.304632831812494231e+00
2.304632831812494231e+00
2.310820520645771925e+00
2.310820520645771925e+00
2.257756401257362544e+00
2.268069215979491737e+00
2.268069215979491737e+00
2.264881618701742649e+00
2.264881618701742649e+00
2.298820154423657947e+00
2.286632282479323930e+00
2.286632282479323930e+00
2.224942899868770141e+00
2.224942899868770141e+00
2.252881252479629115e+00
2.276131962034974254e+00
2.276131962034974254e+00
2.284382213812677254e+00
2.312695577867977192e+00
2.312695577867977192e+00
2.302195257423627517e+00
2.302195257423627517e+00
2.282507156590471986e+00
2.297132602923673161e+00
2.297132602923673161e+00
2.290944914090395912e+00
2.290944914090395912e+00
2.291694936979278285e+00
2.268819238868374111e+00
2.268819238868374111e+00
2.278007019257179522e+00
2.278007019257179522e+00
2.312508072145756710e+00
2.350571733756523507e+00
2.350571733756523507e+00
2.342883999145481511e+00
2.331821161534470832e+00
2.331821161534470832e+00
2.268819238868374111e+00
2.268819238868374111e+00
2.257006378368480615e+00
2.284944730979339145e+00
2.284944730979339145e+00
2.282694662312692468e+00
2.288319833979308715e+00
2.288319833979308715e+00
2.278194524979400004e+00
2.278194524979400004e+00
2.275569444868312807e+00
2.299945188756981285e+00
2.299945188756981285e+00
2.285694753868221074e+00
2.285694753868221074e+00
2.286257271034882521e+00
2.312695577867977192e+00
2.312695577867977192e+00
2.288694845423749680e+00
2.324695944090090727e+00
2.324695944090090727e+00
2.343634022034363884e+00
2.343634022034363884e+00
2.335383770256660885e+00
2.421823908200323228e+00
2.421823908200323228e+00
2.412636127811517817e+00
2.412636127811517817e+00
2.381135166478469234e+00
2.329196081423383191e+00
2.329196081423383191e+00
2.271631824701681346e+00
2.271631824701681346e+00
2.173191320535905025e+00
2.148065553758354618e+00
