2.252881252479629115e+00
2.252881252479629115e+00
2.252881252479629115e+00
2.312320566423536228e+00
2.312320566423536228e+00
2.312320566423536228e+00
2.312320566423536228e+00
2.351509262367625919e+00
2.351509262367625919e+00
2.351509262367625919e+00
2.380385143589587305e+00
2.380385143589587305e+00
2.380385143589587305e+00
2.380385143589587305e+00
2.398760704367198571e+00
2.398760704367198571e+00
2.398760704367198571e+00
2.366697225867488541e+00
2.366697225867488541e+00
2.366697225867488541e+00
2.333696218756676100e+00
2.333696218756676100e+00
2.333696218756676100e+00
2.333696218756676100e+00
2.326008484145634547e+00
2.326008484145634547e+00
2.326008484145634547e+00
2.282319650868251504e+00
2.282319650868251504e+00
2.282319650868251504e+00
2.282319650868251504e+00
2.250256172368541474e+00
2.250256172368541474e+00
2.250256172368541474e+00
2.245568529313028083e+00
2.245568529313028083e+00
2.245568529313028083e+00
2.245568529313028083e+00
2.300507705923642732e+00
2.300507705923642732e+00
2.300507705923642732e+00
2.287944822534867306e+00
2.287944822534867306e+00
2.287944822534867306e+00
2.253631275368511044e+00
2.253631275368511044e+00
2.253631275368511044e+00
2.253631275368511044e+00
2.259256447035126847e+00
2.259256447035126847e+00
2.259256447035126847e+00
2.299382671590319838e+00
2.299382671590319838e+00
2.299382671590319838e+00
2.299382671590319838e+00
2.314383129367961978e+00
2.314383129367961978e+00
2.314383129367961978e+00
2.308757957701345731e+00
2.308757957701345731e+00
2.308757957701345731e+00
2.308757957701345731e+00
2.283069673757133433e+00
2.283069673757133433e+00
2.283069673757133433e+00
2.275194433423871843e+00
2.275194433423871843e+00
2.275194433423871843e+00
2.296945097201452679e+00
2.296945097201452679e+00
2.296945097201452679e+00
2.296945097201452679e+00
2.292444959868159771e+00
2.292444959868159771e+00
2.292444959868159771e+00
2.292632465590380253e+00
2.292632465590380253e+00
2.292632465590380253e+00
2.292632465590380253e+00
2.282319650868251504e+00
2.282319650868251504e+00
2.282319650868251504e+00
2.266569170201727434e+00
2.266569170201727434e+00
2.266569170201727434e+00
2.270506790368358452e+00
2.270506790368358452e+00
2.270506790368358452e+00
2.270506790368358452e+00
2.247818597979674760e+00
2.247818597979674760e+00
2.247818597979674760e+00
2.265631641590625023e+00
2.265631641590625023e+00
2.265631641590625023e+00
2.321883358256782603e+00
2.321883358256782603e+00
2.321883358256782603e+00
2.352071779534287366e+00
2.352071779534287366e+00
2.352071779534287366e+00
2.375885006256294396e+00
2.375885006256294396e+00
2.375885006256294396e+00
2.375885006256294396e+00
2.411511093478194478e+00
2.411511093478194478e+00
2.411511093478194478e+00
2.407573473311563461e+00
2.407573473311563461e+00
2.407573473311563461e+00
2.407573473311563461e+00
2.378135074922940628e+00
2.378135074922940628e+00
2.378135074922940628e+00
2.357509445478682686e+00
2.357509445478682686e+00
2.357509445478682686e+00
2.316445692312387283e+00
2.316445692312387283e+00
2.316445692312387283e+00
2.316445692312387283e+00
2.297882625812555535e+00
2.297882625812555535e+00
2.297882625812555535e+00
2.276506973479415219e+00
2.276506973479415219e+00
2.276506973479415219e+00
2.276506973479415219e+00
2.254193792535172935e+00
2.254193792535172935e+00
2.254193792535172935e+00
2.246131046479689974e+00
2.246131046479689974e+00
2.246131046479689974e+00
2.226255439924313961e+00
2.226255439924313961e+00
2.276881984923856628e+00
2.276881984923856628e+00
2.276881984923856628e+00
2.315508163701284872e+00
2.315508163701284872e+00
2.315508163701284872e+00
2.315508163701284872e+00
2.333133701590014208e+00
2.333133701590014208e+00
2.333133701590014208e+00
2.335383770256660885e+00
2.335383770256660885e+00
2.335383770256660885e+00
2.335383770256660885e+00
2.330133610034486047e+00
2.330133610034486047e+00
2.330133610034486047e+00
2.304820337534714714e+00
2.304820337534714714e+00
2.304820337534714714e+00
2.319633289590136371e+00
2.319633289590136371e+00
2.319633289590136371e+00
2.319633289590136371e+00
2.302195257423627517e+00
2.302195257423627517e+00
2.302195257423627517e+00
2.280257087923826198e+00
2.280257087923826198e+00
2.280257087923826198e+00
2.280257087923826198e+00
2.263569078646198829e+00
2.263569078646198829e+00
2.263569078646198829e+00
2.251006195257423848e+00
2.251006195257423848e+00
2.251006195257423848e+00
2.270319284646137969e+00
2.270319284646137969e+00
2.270319284646137969e+00
2.270319284646137969e+00
2.256443861201819168e+00
2.256443861201819168e+00
2.256443861201819168e+00
2.246318552201910457e+00
2.246318552201910457e+00
2.246318552201910457e+00
2.246318552201910457e+00
2.292257454145939732e+00
2.292257454145939732e+00
2.292257454145939732e+00
2.345321573534348669e+00
2.345321573534348669e+00
2.345321573534348669e+00
2.360322031311990809e+00
2.360322031311990809e+00
2.360322031311990809e+00
2.360322031311990809e+00
2.382072695089572090e+00
2.382072695089572090e+00
2.382072695089572090e+00
2.379447614978484449e+00
2.379447614978484449e+00
2.379447614978484449e+00
2.334258735923337547e+00
2.334258735923337547e+00
2.310445509201330516e+00
2.310445509201330516e+00
2.310445509201330516e+00
2.310445509201330516e+00
2.279319559312723342e+00
2.279319559312723342e+00
2.279319559312723342e+00
2.287007293923764895e+00
2.287007293923764895e+00
2.287007293923764895e+00
2.287007293923764895e+00
2.300320200201422249e+00
2.300320200201422249e+00
2.300320200201422249e+00
2.285882259590441556e+00
2.285882259590441556e+00
2.285882259590441556e+00
2.278194524979400004e+00
2.278194524979400004e+00
2.278194524979400004e+00
2.278194524979400004e+00
2.248943632312997654e+00
2.248943632312997654e+00
2.248943632312997654e+00
2.247631092257453833e+00
2.247631092257453833e+00
2.247631092257453833e+00
2.247631092257453833e+00
2.288694845423749680e+00
2.288694845423749680e+00
2.288694845423749680e+00
2.295257545701467894e+00
2.295257545701467894e+00
2.295257545701467894e+00
2.338571367534409973e+00
2.338571367534409973e+00
2.338571367534409973e+00
2.338571367534409973e+00
2.390322946867275089e+00
2.390322946867275089e+00
2.390322946867275089e+00
2.381510177922910199e+00
2.381510177922910199e+00
2.381510177922910199e+00
2.381510177922910199e+00
2.326195989867855030e+00
2.326195989867855030e+00
2.326195989867855030e+00
2.323195898312326424e+00
2.323195898312326424e+00
2.323195898312326424e+00
2.323195898312326424e+00
2.313820612201300086e+00
2.313820612201300086e+00
2.313820612201300086e+00
2.301445234534745587e+00
2.301445234534745587e+00
2.301445234534745587e+00
2.318320749534592551e+00
2.318320749534592551e+00
2.318320749534592551e+00
2.318320749534592551e+00
2.329383587145603673e+00
2.329383587145603673e+00
2.329383587145603673e+00
2.320945829645680192e+00
2.320945829645680192e+00
2.320945829645680192e+00
2.320945829645680192e+00
2.270506790368358452e+00
2.270506790368358452e+00
2.270506790368358452e+00
2.270506790368358452e+00
2.270506790368358452e+00
2.270506790368358452e+00
2.298070131534776017e+00
2.298070131534776017e+00
2.298070131534776017e+00
2.271256813257240381e+00
2.271256813257240381e+00
2.271256813257240381e+00
2.271256813257240381e+00
2.264694112979522167e+00
2.264694112979522167e+00
2.264694112979522167e+00
2.289069856868190644e+00
2.289069856868190644e+00
2.289069856868190644e+00
2.289069856868190644e+00
2.318133243812372069e+00
2.318133243812372069e+00
2.318133243812372069e+00
2.292069948423719250e+00
2.292069948423719250e+00
2.292069948423719250e+00
2.292069948423719250e+00
2.287194799645985377e+00
2.287194799645985377e+00
2.287194799645985377e+00
2.275006927701650916e+00
2.275006927701650916e+00
2.275006927701650916e+00
2.274444410534989469e+00
2.274444410534989469e+00
2.274444410534989469e+00
2.274444410534989469e+00
2.248568620868556689e+00
2.248568620868556689e+00
2.248568620868556689e+00
2.241443403424177028e+00
2.241443403424177028e+00
2.241443403424177028e+00
2.241443403424177028e+00
2.236755760368663637e+00
2.236755760368663637e+00
2.236755760368663637e+00
2.293569994201483109e+00
2.293569994201483109e+00
2.293569994201483109e+00
2.336133793145542814e+00
2.336133793145542814e+00
2.336133793145542814e+00
2.336133793145542814e+00
2.364259651478621826e+00
2.364259651478621826e+00
2.364259651478621826e+00
2.383197729422894984e+00
2.383197729422894984e+00
2.383197729422894984e+00
2.383197729422894984e+00
2.406635944700461049e+00
2.406635944700461049e+00
2.406635944700461049e+00
2.398385692922757606e+00
2.398385692922757606e+00
2.398385692922757606e+00
2.398385692922757606e+00
2.321883358256782603e+00
2.321883358256782603e+00
2.321883358256782603e+00
2.291882442701498768e+00
2.291882442701498768e+00
2.291882442701498768e+00
2.281382122257148648e+00
2.281382122257148648e+00
2.281382122257148648e+00
2.281382122257148648e+00
2.290194891201513983e+00
2.290194891201513983e+00
2.290194891201513983e+00
2.285319742423780109e+00
2.285319742423780109e+00
2.285319742423780109e+00
2.285319742423780109e+00
2.261881527146214044e+00
2.261881527146214044e+00
2.261881527146214044e+00
2.266944181646168399e+00
2.266944181646168399e+00
2.266944181646168399e+00
2.266944181646168399e+00
2.243880977813043742e+00
2.243880977813043742e+00
2.243880977813043742e+00
2.216692648091067142e+00
2.216692648091067142e+00
2.216692648091067142e+00
2.246881069368571904e+00
2.246881069368571904e+00
2.246881069368571904e+00
2.246881069368571904e+00
2.266756675923947917e+00
2.266756675923947917e+00
2.266756675923947917e+00
2.332758690145573244e+00
2.332758690145573244e+00
2.332758690145573244e+00
2.332758690145573244e+00
2.388260383922848895e+00
2.388260383922848895e+00
2.388260383922848895e+00
2.401385784478286212e+00
2.401385784478286212e+00
2.401385784478286212e+00
2.367822260200811879e+00
2.367822260200811879e+00
2.367822260200811879e+00
2.367822260200811879e+00
2.340821436201055761e+00
2.340821436201055761e+00
2.340821436201055761e+00
2.308195440534684284e+00
2.308195440534684284e+00
2.308195440534684284e+00
2.308195440534684284e+00
2.278944547868282378e+00
2.278944547868282378e+00
2.278944547868282378e+00
2.251006195257423848e+00
2.251006195257423848e+00
2.251006195257423848e+00
2.251006195257423848e+00
2.248381115146336207e+00
2.248381115146336207e+00
2.248381115146336207e+00
2.253818781090731527e+00
2.253818781090731527e+00
2.253818781090731527e+00
2.239568346201971760e+00
2.239568346201971760e+00
2.239568346201971760e+00
2.239568346201971760e+00
2.276694479201635701e+00
2.276694479201635701e+00
2.336321298867763296e+00
2.336321298867763296e+00
2.336321298867763296e+00
2.344946562089907705e+00
2.344946562089907705e+00
2.344946562089907705e+00
2.366322214423047576e+00
2.366322214423047576e+00
2.366322214423047576e+00
2.366322214423047576e+00
2.389197912533951751e+00
2.389197912533951751e+00
2.389197912533951751e+00
2.363697134311959935e+00
2.363697134311959935e+00
2.363697134311959935e+00
2.363697134311959935e+00
2.304070314645832784e+00
2.304070314645832784e+00
2.304070314645832784e+00
2.282882168034912951e+00
2.282882168034912951e+00
2.282882168034912951e+00
2.303882808923612302e+00
2.303882808923612302e+00
2.303882808923612302e+00
2.303882808923612302e+00
2.304820337534714714e+00
2.304820337534714714e+00
2.304820337534714714e+00
2.287569811090426342e+00
2.287569811090426342e+00
2.287569811090426342e+00
2.287569811090426342e+00
2.279132053590502860e+00
2.279132053590502860e+00
2.279132053590502860e+00
2.273694387646107540e+00
2.273694387646107540e+00
2.273694387646107540e+00
2.241630909146397510e+00
2.241630909146397510e+00
2.241630909146397510e+00
2.241630909146397510e+00
2.246318552201910457e+00
2.246318552201910457e+00
2.246318552201910457e+00
2.281007110812707683e+00
2.281007110812707683e+00
2.281007110812707683e+00
2.281007110812707683e+00
2.326946012756737403e+00
2.326946012756737403e+00
2.326946012756737403e+00
2.369322305978576182e+00
2.369322305978576182e+00
2.369322305978576182e+00
2.369322305978576182e+00
2.412823633533738299e+00
2.412823633533738299e+00
2.412823633533738299e+00
2.391260475478377501e+00
2.391260475478377501e+00
2.391260475478377501e+00
2.355634388256477418e+00
2.355634388256477418e+00
2.355634388256477418e+00
2.355634388256477418e+00
2.298820154423657947e+00
2.298820154423657947e+00
2.298820154423657947e+00
2.264319101535081202e+00
2.264319101535081202e+00
2.264319101535081202e+00
2.264319101535081202e+00
2.257756401257362544e+00
2.257756401257362544e+00
2.257756401257362544e+00
2.239380840479750834e+00
2.239380840479750834e+00
2.239380840479750834e+00
2.239380840479750834e+00
2.234693197424237443e+00
2.234693197424237443e+00
2.234693197424237443e+00
2.259443952757347329e+00
2.259443952757347329e+00
2.259443952757347329e+00
2.282319650868251504e+00
2.282319650868251504e+00
2.282319650868251504e+00
2.282319650868251504e+00
2.355634388256477418e+00
2.355634388256477418e+00
2.355634388256477418e+00
2.382260200811792572e+00
2.382260200811792572e+00
2.382260200811792572e+00
2.382260200811792572e+00
2.370447340311899076e+00
2.370447340311899076e+00
2.370447340311899076e+00
2.361259559923093665e+00
2.361259559923093665e+00
2.361259559923093665e+00
2.332946195867793726e+00
2.332946195867793726e+00
2.332946195867793726e+00
2.332946195867793726e+00
2.281007110812707683e+00
2.281007110812707683e+00
2.281007110812707683e+00
2.261881527146214044e+00
2.261881527146214044e+00
2.261881527146214044e+00
2.261881527146214044e+00
2.247818597979674760e+00
2.247818597979674760e+00
2.247818597979674760e+00
2.289257362590411127e+00
2.289257362590411127e+00
2.289257362590411127e+00
2.289257362590411127e+00
2.317570726645710621e+00
2.317570726645710621e+00
2.317570726645710621e+00
2.284382213812677254e+00
2.284382213812677254e+00
2.284382213812677254e+00
2.234505691702016961e+00
2.234505691702016961e+00
2.234505691702016961e+00
2.234505691702016961e+00
2.210692464980010374e+00
2.210692464980010374e+00
2.210692464980010374e+00
2.229443037202063049e+00
2.229443037202063049e+00
2.229443037202063049e+00
2.278944547868282378e+00
2.278944547868282378e+00
2.278944547868282378e+00
2.278944547868282378e+00
2.322820886867885459e+00
2.322820886867885459e+00
2.322820886867885459e+00
2.366134708700827094e+00
2.366134708700827094e+00
2.366134708700827094e+00
2.389947935422834124e+00
2.389947935422834124e+00
2.389947935422834124e+00
2.389947935422834124e+00
2.381510177922910199e+00
2.381510177922910199e+00
2.381510177922910199e+00
2.333133701590014208e+00
2.333133701590014208e+00
2.333133701590014208e+00
2.333133701590014208e+00
2.326946012756737403e+00
2.326946012756737403e+00
2.326946012756737403e+00
2.296945097201452679e+00
2.296945097201452679e+00
2.296945097201452679e+00
2.296945097201452679e+00
2.287194799645985377e+00
2.287194799645985377e+00
2.287194799645985377e+00
2.273881893368328022e+00
2.273881893368328022e+00
2.273881893368328022e+00
2.248381115146336207e+00
2.248381115146336207e+00
2.248381115146336207e+00
2.248381115146336207e+00
2.252131229590746742e+00
2.252131229590746742e+00
2.252131229590746742e+00
2.241443403424177028e+00
2.241443403424177028e+00
2.241443403424177028e+00
2.241443403424177028e+00
2.257193884090700653e+00
2.257193884090700653e+00
2.257193884090700653e+00
2.289632374034852091e+00
2.289632374034852091e+00
2.289632374034852091e+00
2.313070589312418157e+00
2.313070589312418157e+00
2.313070589312418157e+00
2.313070589312418157e+00
2.345884090701010116e+00
2.345884090701010116e+00
2.345884090701010116e+00
2.386760338145085036e+00
2.386760338145085036e+00
2.386760338145085036e+00
2.386760338145085036e+00
2.386385326700643628e+00
2.386385326700643628e+00
2.386385326700643628e+00
2.353384319589831186e+00
2.353384319589831186e+00
2.353384319589831186e+00
2.353384319589831186e+00
2.331446150090029423e+00
2.331446150090029423e+00
2.331446150090029423e+00
2.306695394756919981e+00
2.306695394756919981e+00
2.306695394756919981e+00
2.292819971312600735e+00
2.292819971312600735e+00
2.292819971312600735e+00
2.292819971312600735e+00
2.269944273201696561e+00
2.269944273201696561e+00
2.269944273201696561e+00
2.267881710257271255e+00
2.267881710257271255e+00
2.267881710257271255e+00
2.267881710257271255e+00
2.267506698812830290e+00
2.267506698812830290e+00
2.267506698812830290e+00
2.238818323313089387e+00
2.238818323313089387e+00
2.238818323313089387e+00
2.254943815424054865e+00
2.254943815424054865e+00
2.254943815424054865e+00
2.254943815424054865e+00
2.303320291756950855e+00
2.303320291756950855e+00
2.303320291756950855e+00
2.353196813867610704e+00
2.353196813867610704e+00
2.353196813867610704e+00
2.353196813867610704e+00
2.396323129978331856e+00
2.396323129978331856e+00
2.396323129978331856e+00
2.423511459700308013e+00
2.423511459700308013e+00
2.423511459700308013e+00
2.394260567033906106e+00
2.394260567033906106e+00
2.394260567033906106e+00
2.394260567033906106e+00
2.347009125034333454e+00
2.347009125034333454e+00
2.347009125034333454e+00
2.300695211645863214e+00
2.300695211645863214e+00
2.300695211645863214e+00
2.300695211645863214e+00
2.300882717368083696e+00
2.300882717368083696e+00
2.300882717368083696e+00
2.282132145146031021e+00
2.282132145146031021e+00
2.282132145146031021e+00
2.282132145146031021e+00
2.243505966368602778e+00
2.243505966368602778e+00
2.243505966368602778e+00
2.226817957090975852e+00
2.226817957090975852e+00
2.226817957090975852e+00
2.220817773979919085e+00
2.220817773979919085e+00
2.220817773979919085e+00
2.220817773979919085e+00
2.212942533646656607e+00
2.212942533646656607e+00
2.245756035035248566e+00
2.245756035035248566e+00
2.245756035035248566e+00
2.290944914090395912e+00
2.290944914090395912e+00
2.290944914090395912e+00
2.326946012756737403e+00
2.326946012756737403e+00
2.326946012756737403e+00
2.326946012756737403e+00
2.342321481978820064e+00
2.342321481978820064e+00
2.342321481978820064e+00
2.355821893978697901e+00
2.355821893978697901e+00
2.355821893978697901e+00
2.355821893978697901e+00
2.331258644367808941e+00
2.331258644367808941e+00
2.331258644367808941e+00
2.328821069978942226e+00
2.328821069978942226e+00
2.328821069978942226e+00
2.328821069978942226e+00
2.343259010589922919e+00
2.343259010589922919e+00
2.343259010589922919e+00
2.337258827478866152e+00
2.337258827478866152e+00
2.337258827478866152e+00
2.312883083590197675e+00
2.312883083590197675e+00
2.312883083590197675e+00
2.312883083590197675e+00
2.287757316812646824e+00
2.287757316812646824e+00
2.287757316812646824e+00
2.271819330423901828e+00
2.271819330423901828e+00
2.271819330423901828e+00
2.271819330423901828e+00
2.231130588702047834e+00
2.231130588702047834e+00
2.231130588702047834e+00
2.221192785424360050e+00
2.221192785424360050e+00
2.221192785424360050e+00
2.263381572923978347e+00
2.263381572923978347e+00
2.263381572923978347e+00
2.263381572923978347e+00
2.289632374034852091e+00
2.289632374034852091e+00
2.289632374034852091e+00
2.321508346812341639e+00
2.321508346812341639e+00
2.321508346812341639e+00
2.321508346812341639e+00
2.369884823145237629e+00
2.369884823145237629e+00
2.369884823145237629e+00
2.368759788811914291e+00
2.368759788811914291e+00
2.368759788811914291e+00
2.370259834589678594e+00
2.370259834589678594e+00
2.370259834589678594e+00
2.370259834589678594e+00
2.405135898922696747e+00
2.405135898922696747e+00
2.405135898922696747e+00
2.418448805200354101e+00
2.418448805200354101e+00
2.418448805200354101e+00
2.418448805200354101e+00
2.418261299478133619e+00
2.418261299478133619e+00
2.418261299478133619e+00
2.363134617145298488e+00
2.363134617145298488e+00
2.363134617145298488e+00
2.363134617145298488e+00
2.300132694479201767e+00
2.300132694479201767e+00
2.300132694479201767e+00
2.221942808313242423e+00
2.221942808313242423e+00
2.221942808313242423e+00
2.119939695425275605e+00
2.119939695425275605e+00
2.119939695425275605e+00
2.119939695425275605e+00
2.084688619647816488e+00
2.084688619647816488e+00
2.084688619647816488e+00
2.130252510147404355e+00
2.130252510147404355e+00
2.130252510147404355e+00
2.130252510147404355e+00
2.221755302591021497e+00
2.221755302591021497e+00
2.221755302591021497e+00
2.319820795312356854e+00
2.319820795312356854e+00
2.319820795312356854e+00
2.381697683645130681e+00
2.381697683645130681e+00
2.381697683645130681e+00
2.381697683645130681e+00
2.377197546311838217e+00
2.377197546311838217e+00
2.377197546311838217e+00
2.359947019867549844e+00
2.359947019867549844e+00
2.359947019867549844e+00
2.359947019867549844e+00
2.352446790978728330e+00
2.352446790978728330e+00
2.352446790978728330e+00
2.331446150090029423e+00
2.331446150090029423e+00
2.331446150090029423e+00
2.331446150090029423e+00
2.318508255256813033e+00
2.318508255256813033e+00
2.318508255256813033e+00
2.283819696646015807e+00
2.283819696646015807e+00
2.283819696646015807e+00
2.277632007812738557e+00
2.277632007812738557e+00
2.277632007812738557e+00
2.277632007812738557e+00
2.260756492812891150e+00
2.260756492812891150e+00
2.260756492812891150e+00
2.238068300424207457e+00
2.238068300424207457e+00
2.238068300424207457e+00
2.273506881923887057e+00
2.273506881923887057e+00
2.273506881923887057e+00
2.273506881923887057e+00
2.321695852534562121e+00
2.321695852534562121e+00
2.321695852534562121e+00
2.347384136478774419e+00
2.347384136478774419e+00
2.347384136478774419e+00
2.369134800256355700e+00
2.369134800256355700e+00
2.369134800256355700e+00
2.369134800256355700e+00
2.378697592089602519e+00
2.378697592089602519e+00
2.378697592089602519e+00
2.341383953367717208e+00
2.341383953367717208e+00
2.341383953367717208e+00
2.341383953367717208e+00
2.320570818201239227e+00
2.320570818201239227e+00
2.320570818201239227e+00
2.299382671590319838e+00
2.299382671590319838e+00
2.299382671590319838e+00
2.299382671590319838e+00
2.295632557145908859e+00
2.295632557145908859e+00
2.295632557145908859e+00
2.303132786034730373e+00
2.303132786034730373e+00
2.303132786034730373e+00
2.282694662312692468e+00
2.282694662312692468e+00
2.282694662312692468e+00
2.282694662312692468e+00
2.285694753868221074e+00
2.285694753868221074e+00
2.285694753868221074e+00
2.279694570757164307e+00
2.279694570757164307e+00
2.279694570757164307e+00
2.279694570757164307e+00
2.272944364757225166e+00
2.272944364757225166e+00
2.272944364757225166e+00
2.304632831812494231e+00
2.304632831812494231e+00
2.304632831812494231e+00
2.316445692312387283e+00
2.316445692312387283e+00
2.316445692312387283e+00
2.316445692312387283e+00
2.336133793145542814e+00
2.336133793145542814e+00
2.336133793145542814e+00
2.389197912533951751e+00
2.389197912533951751e+00
2.389197912533951751e+00
2.389197912533951751e+00
2.365759697256386129e+00
2.365759697256386129e+00
2.365759697256386129e+00
2.323008392590105942e+00
2.323008392590105942e+00
2.323008392590105942e+00
2.323008392590105942e+00
2.304820337534714714e+00
2.304820337534714714e+00
2.304820337534714714e+00
2.305195348979155678e+00
2.305195348979155678e+00
2.305195348979155678e+00
2.301632740256966070e+00
2.301632740256966070e+00
2.301632740256966070e+00
2.301632740256966070e+00
2.257756401257362544e+00
2.257756401257362544e+00
2.257756401257362544e+00
2.257943906979583026e+00
2.257943906979583026e+00
2.257943906979583026e+00
2.257943906979583026e+00
2.269944273201696561e+00
2.269944273201696561e+00
2.269944273201696561e+00
2.238818323313089387e+00
2.238818323313089387e+00
2.238818323313089387e+00
2.238818323313089387e+00
2.245756035035248566e+00
2.245756035035248566e+00
2.245756035035248566e+00
2.286069765312662039e+00
2.286069765312662039e+00
2.286069765312662039e+00
2.292632465590380253e+00
2.292632465590380253e+00
2.292632465590380253e+00
2.292632465590380253e+00
2.330133610034486047e+00
2.330133610034486047e+00
2.330133610034486047e+00
2.356571916867580274e+00
2.356571916867580274e+00
2.356571916867580274e+00
2.356571916867580274e+00
2.337633838923307117e+00
2.337633838923307117e+00
2.337633838923307117e+00
2.338383861812189490e+00
2.338383861812189490e+00
2.338383861812189490e+00
2.335383770256660885e+00
2.335383770256660885e+00
2.335383770256660885e+00
2.335383770256660885e+00
2.304257820368053267e+00
2.304257820368053267e+00
2.304257820368053267e+00
2.283819696646015807e+00
2.283819696646015807e+00
2.283819696646015807e+00
2.283819696646015807e+00
2.246318552201910457e+00
2.246318552201910457e+00
2.246318552201910457e+00
2.252506241035188150e+00
2.252506241035188150e+00
2.252506241035188150e+00
2.252506241035188150e+00
2.277069490646077110e+00
2.277069490646077110e+00
2.277069490646077110e+00
2.259818964201788294e+00
2.259818964201788294e+00
2.259818964201788294e+00
2.292819971312600735e+00
2.292819971312600735e+00
2.331633655812249906e+00
2.331633655812249906e+00
2.331633655812249906e+00
2.331633655812249906e+00
2.350384228034303025e+00
2.350384228034303025e+00
2.350384228034303025e+00
2.351509262367625919e+00
2.351509262367625919e+00
2.351509262367625919e+00
2.342321481978820064e+00
2.342321481978820064e+00
2.342321481978820064e+00
2.342321481978820064e+00
2.319070772423474924e+00
2.319070772423474924e+00
2.319070772423474924e+00
2.317758232367931104e+00
2.317758232367931104e+00
2.317758232367931104e+00
2.317758232367931104e+00
2.299007660145878429e+00
2.299007660145878429e+00
2.299007660145878429e+00
2.293194982757042144e+00
2.293194982757042144e+00
2.293194982757042144e+00
2.303132786034730373e+00
2.303132786034730373e+00
2.303132786034730373e+00
2.303132786034730373e+00
2.273694387646107540e+00
2.273694387646107540e+00
2.273694387646107540e+00
2.257193884090700653e+00
2.257193884090700653e+00
2.257193884090700653e+00
2.257193884090700653e+00
2.240693380535294654e+00
2.240693380535294654e+00
2.240693380535294654e+00
2.232255623035371173e+00
2.232255623035371173e+00
2.232255623035371173e+00
2.280819605090487201e+00
2.280819605090487201e+00
2.280819605090487201e+00
2.280819605090487201e+00
2.318695760979033516e+00
2.318695760979033516e+00
2.318695760979033516e+00
2.340258919034394314e+00
2.340258919034394314e+00
2.340258919034394314e+00
2.340258919034394314e+00
2.363884640034180418e+00
2.363884640034180418e+00
2.363884640034180418e+00
2.383947752311777357e+00
2.383947752311777357e+00
2.383947752311777357e+00
2.354884365367595489e+00
2.354884365367595489e+00
2.354884365367595489e+00
2.354884365367595489e+00
2.343071504867702437e+00
2.343071504867702437e+00
2.343071504867702437e+00
2.325258461256752618e+00
2.325258461256752618e+00
2.325258461256752618e+00
2.325258461256752618e+00
2.314570635090182460e+00
2.314570635090182460e+00
2.314570635090182460e+00
2.305945371868038052e+00
2.305945371868038052e+00
2.305945371868038052e+00
2.305945371868038052e+00
2.305757866145817125e+00
2.305757866145817125e+00
2.305757866145817125e+00
2.295632557145908859e+00
2.295632557145908859e+00
2.295632557145908859e+00
2.287944822534867306e+00
2.287944822534867306e+00
2.287944822534867306e+00
2.287944822534867306e+00
2.279694570757164307e+00
2.279694570757164307e+00
2.279694570757164307e+00
2.311570543534653854e+00
2.311570543534653854e+00
2.311570543534653854e+00
2.311570543534653854e+00
2.310445509201330516e+00
2.310445509201330516e+00
2.310445509201330516e+00
2.313258095034638639e+00
2.313258095034638639e+00
2.313258095034638639e+00
2.313258095034638639e+00
2.322633381145664977e+00
2.322633381145664977e+00
2.322633381145664977e+00
2.274444410534989469e+00
2.274444410534989469e+00
2.274444410534989469e+00
2.262069032868434526e+00
2.262069032868434526e+00
2.262069032868434526e+00
2.262069032868434526e+00
2.290382396923734465e+00
2.290382396923734465e+00
2.290382396923734465e+00
2.293569994201483109e+00
2.293569994201483109e+00
2.293569994201483109e+00
2.293569994201483109e+00
2.304070314645832784e+00
2.304070314645832784e+00
2.304070314645832784e+00
2.306882900479140464e+00
2.306882900479140464e+00
2.306882900479140464e+00
2.306882900479140464e+00
2.309507980590228104e+00
2.309507980590228104e+00
2.309507980590228104e+00
2.299570177312540320e+00
2.299570177312540320e+00
2.299570177312540320e+00
2.265819147312845505e+00
2.265819147312845505e+00
2.265819147312845505e+00
2.265819147312845505e+00
2.290007385479293500e+00
2.290007385479293500e+00
2.290007385479293500e+00
2.324320932645649762e+00
2.324320932645649762e+00
2.324320932645649762e+00
2.322070863979003530e+00
2.322070863979003530e+00
2.322070863979003530e+00
2.333696218756676100e+00
2.333696218756676100e+00
2.333696218756676100e+00
2.333696218756676100e+00
2.343446516312143402e+00
2.343446516312143402e+00
2.343446516312143402e+00
2.332946195867793726e+00
2.332946195867793726e+00
2.332946195867793726e+00
2.332946195867793726e+00
2.308945463423566213e+00
2.308945463423566213e+00
2.308945463423566213e+00
2.308007934812463802e+00
2.308007934812463802e+00
2.308007934812463802e+00
2.278569536423841413e+00
2.278569536423841413e+00
2.278569536423841413e+00
2.278569536423841413e+00
2.263569078646198829e+00
2.263569078646198829e+00
2.263569078646198829e+00
2.265631641590625023e+00
2.265631641590625023e+00
2.265631641590625023e+00
2.265631641590625023e+00
2.262069032868434526e+00
2.262069032868434526e+00
2.262069032868434526e+00
2.233193151646474028e+00
2.233193151646474028e+00
2.233193151646474028e+00
2.233193151646474028e+00
2.249693655201880027e+00
2.249693655201880027e+00
2.249693655201880027e+00
2.293382488479262626e+00
2.293382488479262626e+00
2.293382488479262626e+00
2.340071413312173831e+00
2.340071413312173831e+00
2.340071413312173831e+00
2.340071413312173831e+00
2.360697042756431774e+00
2.360697042756431774e+00
2.360697042756431774e+00
2.364259651478621826e+00
2.364259651478621826e+00
2.364259651478621826e+00
2.364259651478621826e+00
2.360697042756431774e+00
2.360697042756431774e+00
2.360697042756431774e+00
2.363884640034180418e+00
2.363884640034180418e+00
2.363884640034180418e+00
2.397823175756096159e+00
2.397823175756096159e+00
2.397823175756096159e+00
2.397823175756096159e+00
2.366697225867488541e+00
2.366697225867488541e+00
2.366697225867488541e+00
2.322445875423444495e+00
2.322445875423444495e+00
2.322445875423444495e+00
2.322445875423444495e+00
2.288319833979308715e+00
2.288319833979308715e+00
2.288319833979308715e+00
2.252506241035188150e+00
2.252506241035188150e+00
2.252506241035188150e+00
2.225692922757652514e+00
2.225692922757652514e+00
2.225692922757652514e+00
2.225692922757652514e+00
2.150690633869442259e+00
2.150690633869442259e+00
2.150690633869442259e+00
2.136065187536240639e+00
2.136065187536240639e+00
2.136065187536240639e+00
2.136065187536240639e+00
2.219317728202154782e+00
2.219317728202154782e+00
2.219317728202154782e+00
2.317008209479048730e+00
2.317008209479048730e+00
2.317008209479048730e+00
2.317008209479048730e+00
2.386385326700643628e+00
2.386385326700643628e+00
2.386385326700643628e+00
2.407385967589342979e+00
2.407385967589342979e+00
2.407385967589342979e+00
2.407385967589342979e+00
2.402135807367168141e+00
2.402135807367168141e+00
2.402135807367168141e+00
2.369697317423017147e+00
2.369697317423017147e+00
2.369697317423017147e+00
2.346259102145451525e+00
2.346259102145451525e+00
2.346259102145451525e+00
2.346259102145451525e+00
2.286069765312662039e+00
2.286069765312662039e+00
2.286069765312662039e+00
2.258693929868464956e+00
2.258693929868464956e+00
2.258693929868464956e+00
2.258693929868464956e+00
2.243505966368602778e+00
2.243505966368602778e+00
2.243505966368602778e+00
2.252881252479629115e+00
2.252881252479629115e+00
2.252881252479629115e+00
2.252881252479629115e+00
2.274069399090548504e+00
2.274069399090548504e+00
2.274069399090548504e+00
2.260568987090670667e+00
2.260568987090670667e+00
2.260568987090670667e+00
2.265819147312845505e+00
2.265819147312845505e+00
2.265819147312845505e+00
2.314570635090182460e+00
2.314570635090182460e+00
2.350196722312082542e+00
2.350196722312082542e+00
2.350196722312082542e+00
2.350196722312082542e+00
2.390885464033936536e+00
2.390885464033936536e+00
2.390885464033936536e+00
2.417136265144810281e+00
2.417136265144810281e+00
2.417136265144810281e+00
2.417136265144810281e+00
2.391260475478377501e+00
2.391260475478377501e+00
2.391260475478377501e+00
2.349446699423200169e+00
2.349446699423200169e+00
2.349446699423200169e+00
2.349446699423200169e+00
2.321320841090121156e+00
2.321320841090121156e+00
2.321320841090121156e+00
2.299382671590319838e+00
2.299382671590319838e+00
2.299382671590319838e+00
2.287757316812646824e+00
2.287757316812646824e+00
2.287757316812646824e+00
2.287757316812646824e+00
2.240693380535294654e+00
2.240693380535294654e+00
2.240693380535294654e+00
2.224755394146549659e+00
2.224755394146549659e+00
2.224755394146549659e+00
2.224755394146549659e+00
2.223630359813226764e+00
2.223630359813226764e+00
2.223630359813226764e+00
2.215567613757744247e+00
2.215567613757744247e+00
2.215567613757744247e+00
2.220817773979919085e+00
2.220817773979919085e+00
2.220817773979919085e+00
2.220817773979919085e+00
2.260381481368449741e+00
2.260381481368449741e+00
2.260381481368449741e+00
2.305195348979155678e+00
2.305195348979155678e+00
2.305195348979155678e+00
2.305195348979155678e+00
2.361447065645314147e+00
2.361447065645314147e+00
2.361447065645314147e+00
2.390135441145054607e+00
2.390135441145054607e+00
2.390135441145054607e+00
2.378510086367381593e+00
2.378510086367381593e+00
2.378510086367381593e+00
2.378510086367381593e+00
2.353384319589831186e+00
2.353384319589831186e+00
2.353384319589831186e+00
2.329008575701162709e+00
2.329008575701162709e+00
2.329008575701162709e+00
2.329008575701162709e+00
2.318320749534592551e+00
2.318320749534592551e+00
2.318320749534592551e+00
2.293382488479262626e+00
2.293382488479262626e+00
2.293382488479262626e+00
2.293382488479262626e+00
2.270506790368358452e+00
2.270506790368358452e+00
2.270506790368358452e+00
2.269194250312814631e+00
2.269194250312814631e+00
2.269194250312814631e+00
2.271069307535019899e+00
2.271069307535019899e+00
2.271069307535019899e+00
2.271069307535019899e+00
2.310258003479110034e+00
2.310258003479110034e+00
2.310258003479110034e+00
2.344009033478804849e+00
2.344009033478804849e+00
2.344009033478804849e+00
2.344009033478804849e+00
2.367259743034150432e+00
2.367259743034150432e+00
2.367259743034150432e+00
2.381322672200689716e+00
2.381322672200689716e+00
2.381322672200689716e+00
2.381322672200689716e+00
2.385447798089541660e+00
2.385447798089541660e+00
2.385447798089541660e+00
2.344946562089907705e+00
2.344946562089907705e+00
2.344946562089907705e+00
2.271069307535019899e+00
2.271069307535019899e+00
2.271069307535019899e+00
2.271069307535019899e+00
2.254381298257393418e+00
2.254381298257393418e+00
2.254381298257393418e+00
2.229068025757622085e+00
2.229068025757622085e+00
2.229068025757622085e+00
2.229068025757622085e+00
2.246318552201910457e+00
2.246318552201910457e+00
2.246318552201910457e+00
2.254568803979613900e+00
2.254568803979613900e+00
2.254568803979613900e+00
2.254568803979613900e+00
2.251943723868526259e+00
2.251943723868526259e+00
2.251943723868526259e+00
2.257943906979583026e+00
2.257943906979583026e+00
2.257943906979583026e+00
2.222130314035462462e+00
2.222130314035462462e+00
2.222130314035462462e+00
2.222130314035462462e+00
2.226255439924313961e+00
2.226255439924313961e+00
2.226255439924313961e+00
2.289069856868190644e+00
2.289069856868190644e+00
2.289069856868190644e+00
2.320945829645680192e+00
2.320945829645680192e+00
2.320945829645680192e+00
2.360134525589770327e+00
2.360134525589770327e+00
2.360134525589770327e+00
2.360134525589770327e+00
2.403635853144932444e+00
2.403635853144932444e+00
2.403635853144932444e+00
2.387885372478407930e+00
2.387885372478407930e+00
2.387885372478407930e+00
2.387885372478407930e+00
2.355634388256477418e+00
2.355634388256477418e+00
2.355634388256477418e+00
2.341383953367717208e+00
2.341383953367717208e+00
2.341383953367717208e+00
2.341383953367717208e+00
2.317383220923490139e+00
2.317383220923490139e+00
2.317383220923490139e+00
2.313258095034638639e+00
2.313258095034638639e+00
2.313258095034638639e+00
2.282132145146031021e+00
2.282132145146031021e+00
2.282132145146031021e+00
2.282132145146031021e+00
2.260006469924008776e+00
2.260006469924008776e+00
2.260006469924008776e+00
2.255506332590716312e+00
2.255506332590716312e+00
2.255506332590716312e+00
2.255506332590716312e+00
2.226255439924313961e+00
2.226255439924313961e+00
2.226255439924313961e+00
2.242755943479720404e+00
2.242755943479720404e+00
2.242755943479720404e+00
2.277256996368297592e+00
2.277256996368297592e+00
2.277256996368297592e+00
2.277256996368297592e+00
2.298070131534776017e+00
2.298070131534776017e+00
2.298070131534776017e+00
2.360134525589770327e+00
2.360134525589770327e+00
2.360134525589770327e+00
2.360134525589770327e+00
2.405323404644917229e+00
2.405323404644917229e+00
2.405323404644917229e+00
2.385635303811762142e+00
2.385635303811762142e+00
2.385635303811762142e+00
2.349821710867641578e+00
2.349821710867641578e+00
2.349821710867641578e+00
2.349821710867641578e+00
2.325820978423414065e+00
2.325820978423414065e+00
2.325820978423414065e+00
2.322258369701224012e+00
2.322258369701224012e+00
2.322258369701224012e+00
2.322258369701224012e+00
2.313820612201300086e+00
2.313820612201300086e+00
2.313820612201300086e+00
2.294507522812585520e+00
2.294507522812585520e+00
2.294507522812585520e+00
2.294507522812585520e+00
2.280444593646046680e+00
2.280444593646046680e+00
2.280444593646046680e+00
2.255506332590716312e+00
2.255506332590716312e+00
2.255506332590716312e+00
2.236943266090884119e+00
2.236943266090884119e+00
2.236943266090884119e+00
2.236943266090884119e+00
2.241630909146397510e+00
2.241630909146397510e+00
2.241630909146397510e+00
2.270131778923917043e+00
2.270131778923917043e+00
2.270131778923917043e+00
2.270131778923917043e+00
2.280069582201605716e+00
2.280069582201605716e+00
2.280069582201605716e+00
2.317008209479048730e+00
2.317008209479048730e+00
2.317008209479048730e+00
2.317008209479048730e+00
2.349634205145421095e+00
2.349634205145421095e+00
2.349634205145421095e+00
2.357509445478682686e+00
2.357509445478682686e+00
2.357509445478682686e+00
2.344196539201025331e+00
2.344196539201025331e+00
2.344196539201025331e+00
2.344196539201025331e+00
2.319258278145695407e+00
2.319258278145695407e+00
2.319258278145695407e+00
2.299195165868098911e+00
2.299195165868098911e+00
2.299195165868098911e+00
2.299195165868098911e+00
2.281569627979369130e+00
2.281569627979369130e+00
2.281569627979369130e+00
2.271069307535019899e+00
2.271069307535019899e+00
2.271069307535019899e+00
2.271069307535019899e+00
2.289444868312631609e+00
2.289444868312631609e+00
2.289444868312631609e+00
2.262069032868434526e+00
2.262069032868434526e+00
2.262069032868434526e+00
2.269944273201696561e+00
2.269944273201696561e+00
2.269944273201696561e+00
2.269944273201696561e+00
2.334446241645558029e+00
2.338571367534409973e+00
2.338571367534409973e+00
2.361634571367534630e+00
2.361634571367534630e+00
2.361634571367534630e+00
2.374197454756310055e+00
2.374197454756310055e+00
2.374197454756310055e+00
2.374197454756310055e+00
2.364447157200842309e+00
2.364447157200842309e+00
2.364447157200842309e+00
2.320008301034577336e+00
2.320008301034577336e+00
2.320008301034577336e+00
2.320008301034577336e+00
2.299382671590319838e+00
2.299382671590319838e+00
2.299382671590319838e+00
2.279507065034943825e+00
2.279507065034943825e+00
2.279507065034943825e+00
2.279507065034943825e+00
2.253818781090731527e+00
2.253818781090731527e+00
2.253818781090731527e+00
2.242380932035279439e+00
2.242380932035279439e+00
2.242380932035279439e+00
2.270319284646137969e+00
2.270319284646137969e+00
2.270319284646137969e+00
2.270319284646137969e+00
2.277819513534959039e+00
2.277819513534959039e+00
2.277819513534959039e+00
2.247631092257453833e+00
2.247631092257453833e+00
2.247631092257453833e+00
2.247631092257453833e+00
2.254006286812952009e+00
2.254006286812952009e+00
2.254006286812952009e+00
2.307820429090243319e+00
2.307820429090243319e+00
2.307820429090243319e+00
2.341008941923276243e+00
2.341008941923276243e+00
2.341008941923276243e+00
2.341008941923276243e+00
2.371572374645222414e+00
2.371572374645222414e+00
2.371572374645222414e+00
2.386010315256203107e+00
2.386010315256203107e+00
2.386010315256203107e+00
2.386010315256203107e+00
2.378697592089602519e+00
2.378697592089602519e+00
2.378697592089602519e+00
2.373072420422986717e+00
2.373072420422986717e+00
2.373072420422986717e+00
2.373072420422986717e+00
2.331821161534470832e+00
2.331821161534470832e+00
2.331821161534470832e+00
2.272194341868343237e+00
2.272194341868343237e+00
2.272194341868343237e+00
2.248381115146336207e+00
2.248381115146336207e+00
2.248381115146336207e+00
2.248381115146336207e+00
2.237505783257545566e+00
2.237505783257545566e+00
2.237505783257545566e+00
2.214442579424420909e+00
2.214442579424420909e+00
2.214442579424420909e+00
2.214442579424420909e+00
2.195879512924588717e+00
2.195879512924588717e+00
2.195879512924588717e+00
2.209192419202246516e+00
2.209192419202246516e+00
2.209192419202246516e+00
2.209192419202246516e+00
2.268256721701712220e+00
2.268256721701712220e+00
2.268256721701712220e+00
2.325445966978973100e+00
2.325445966978973100e+00
2.325445966978973100e+00
2.338196356089969008e+00
2.338196356089969008e+00
2.338196356089969008e+00
2.338196356089969008e+00
2.368947294534135217e+00
2.368947294534135217e+00
2.368947294534135217e+00
2.389947935422834124e+00
2.389947935422834124e+00
2.389947935422834124e+00
2.389947935422834124e+00
2.371947386089663379e+00
2.371947386089663379e+00
2.371947386089663379e+00
2.349446699423200169e+00
2.349446699423200169e+00
2.349446699423200169e+00
2.327321024201178368e+00
2.327321024201178368e+00
2.327321024201178368e+00
2.327321024201178368e+00
2.301070223090304623e+00
2.301070223090304623e+00
2.295070039979247412e+00
2.295070039979247412e+00
2.295070039979247412e+00
2.259631458479567812e+00
2.259631458479567812e+00
2.259631458479567812e+00
2.259631458479567812e+00
2.267131687368389326e+00
2.267131687368389326e+00
2.267131687368389326e+00
2.256068849757378203e+00
2.256068849757378203e+00
2.256068849757378203e+00
2.256068849757378203e+00
2.231693105868709726e+00
2.231693105868709726e+00
2.231693105868709726e+00
2.285132236701559627e+00
2.285132236701559627e+00
2.285132236701559627e+00
2.324883449812311209e+00
2.324883449812311209e+00
2.324883449812311209e+00
2.329196081423383191e+00
2.329196081423383191e+00
2.329196081423383191e+00
2.329196081423383191e+00
2.342133976256599581e+00
2.342133976256599581e+00
2.342133976256599581e+00
2.355446882534256936e+00
2.355446882534256936e+00
2.355446882534256936e+00
2.338758873256630455e+00
2.338758873256630455e+00
2.338758873256630455e+00
2.338758873256630455e+00
2.327321024201178368e+00
2.327321024201178368e+00
2.327321024201178368e+00
2.318508255256813033e+00
2.318508255256813033e+00
2.318508255256813033e+00
2.318508255256813033e+00
2.311195532090212890e+00
2.311195532090212890e+00
2.311195532090212890e+00
2.291507431257057803e+00
2.291507431257057803e+00
2.291507431257057803e+00
2.272756859035004684e+00
2.272756859035004684e+00
2.272756859035004684e+00
2.272756859035004684e+00
2.270131778923917043e+00
2.270131778923917043e+00
2.270131778923917043e+00
2.253818781090731527e+00
2.253818781090731527e+00
2.253818781090731527e+00
2.245193517868587563e+00
2.245193517868587563e+00
2.245193517868587563e+00
2.245193517868587563e+00
2.278007019257179522e+00
2.278007019257179522e+00
2.278007019257179522e+00
2.313070589312418157e+00
2.313070589312418157e+00
2.313070589312418157e+00
2.313070589312418157e+00
2.342321481978820064e+00
2.342321481978820064e+00
2.342321481978820064e+00
2.370259834589678594e+00
2.370259834589678594e+00
2.370259834589678594e+00
2.365947202978606612e+00
2.365947202978606612e+00
2.365947202978606612e+00
2.365947202978606612e+00
2.337633838923307117e+00
2.337633838923307117e+00
2.337633838923307117e+00
2.325070955534531691e+00
2.325070955534531691e+00
2.325070955534531691e+00
2.325070955534531691e+00
2.308382946256904766e+00
2.308382946256904766e+00
2.308382946256904766e+00
2.294320017090365038e+00
2.294320017090365038e+00
2.294320017090365038e+00
2.294320017090365038e+00
2.245381023590808045e+00
2.245381023590808045e+00
2.245381023590808045e+00
2.220630268257698603e+00
2.220630268257698603e+00
2.220630268257698603e+00
2.275756950590533290e+00
2.275756950590533290e+00
2.275756950590533290e+00
2.275756950590533290e+00
2.248568620868556689e+00
2.248568620868556689e+00
2.248568620868556689e+00
2.317383220923490139e+00
2.317383220923490139e+00
2.317383220923490139e+00
2.317383220923490139e+00
2.349259193700979687e+00
2.349259193700979687e+00
2.349259193700979687e+00
2.356759422589800756e+00
2.356759422589800756e+00
2.356759422589800756e+00
2.356759422589800756e+00
2.387135349589526001e+00
2.387135349589526001e+00
2.387135349589526001e+00
2.374197454756310055e+00
2.374197454756310055e+00
2.374197454756310055e+00
2.346071596423230599e+00
2.346071596423230599e+00
2.346071596423230599e+00
2.346071596423230599e+00
2.270319284646137969e+00
2.270319284646137969e+00
2.270319284646137969e+00
2.250818689535202921e+00
2.250818689535202921e+00
2.250818689535202921e+00
2.250818689535202921e+00
2.247256080813012868e+00
2.247256080813012868e+00
2.247256080813012868e+00
2.259818964201788294e+00
2.259818964201788294e+00
2.259818964201788294e+00
2.258506424146244473e+00
2.258506424146244473e+00
2.258506424146244473e+00
2.258506424146244473e+00
2.291694936979278285e+00
2.291694936979278285e+00
2.291694936979278285e+00
2.280069582201605716e+00
2.280069582201605716e+00
2.280069582201605716e+00
2.280069582201605716e+00
2.255693838312936794e+00
2.255693838312936794e+00
2.255693838312936794e+00
2.290382396923734465e+00
2.290382396923734465e+00
2.290382396923734465e+00
2.318508255256813033e+00
2.318508255256813033e+00
2.343821527756584366e+00
2.343821527756584366e+00
2.343821527756584366e+00
2.369509811700796664e+00
2.369509811700796664e+00
2.369509811700796664e+00
2.384322763756218322e+00
2.384322763756218322e+00
2.384322763756218322e+00
2.384322763756218322e+00
2.355071871089815971e+00
2.355071871089815971e+00
2.355071871089815971e+00
2.313258095034638639e+00
2.313258095034638639e+00
2.313258095034638639e+00
2.313258095034638639e+00
2.295257545701467894e+00
2.295257545701467894e+00
2.295257545701467894e+00
2.287569811090426342e+00
2.287569811090426342e+00
2.287569811090426342e+00
2.287569811090426342e+00
2.281757133701590057e+00
2.281757133701590057e+00
2.281757133701590057e+00
2.265819147312845505e+00
2.265819147312845505e+00
2.265819147312845505e+00
2.270506790368358452e+00
2.270506790368358452e+00
2.270506790368358452e+00
2.270506790368358452e+00
2.249881160924100509e+00
2.249881160924100509e+00
2.249881160924100509e+00
2.235068208868678852e+00
2.235068208868678852e+00
2.235068208868678852e+00
2.235068208868678852e+00
2.271069307535019899e+00
2.271069307535019899e+00
2.271069307535019899e+00
2.299195165868098911e+00
2.299195165868098911e+00
2.299195165868098911e+00
2.299195165868098911e+00
2.333883724478896582e+00
2.333883724478896582e+00
2.333883724478896582e+00
2.348321665089877275e+00
2.348321665089877275e+00
2.348321665089877275e+00
2.370822351756340485e+00
2.370822351756340485e+00
2.370822351756340485e+00
2.370822351756340485e+00
2.359384502700888397e+00
2.359384502700888397e+00
2.359384502700888397e+00
2.346071596423230599e+00
2.346071596423230599e+00
2.346071596423230599e+00
2.346071596423230599e+00
2.319070772423474924e+00
2.319070772423474924e+00
2.319070772423474924e+00
2.301820245979186552e+00
2.301820245979186552e+00
2.301820245979186552e+00
2.278944547868282378e+00
2.278944547868282378e+00
2.278944547868282378e+00
2.278944547868282378e+00
2.252693746757408633e+00
2.252693746757408633e+00
2.252693746757408633e+00
2.244255989257484707e+00
2.244255989257484707e+00
2.244255989257484707e+00
2.244255989257484707e+00
2.229068025757622085e+00
2.229068025757622085e+00
2.229068025757622085e+00
2.276506973479415219e+00
2.276506973479415219e+00
2.276506973479415219e+00
2.276506973479415219e+00
2.347009125034333454e+00
2.347009125034333454e+00
2.347009125034333454e+00
2.367447248756370914e+00
2.367447248756370914e+00
2.367447248756370914e+00
2.399510727256080500e+00
2.399510727256080500e+00
2.399510727256080500e+00
2.399510727256080500e+00
2.406635944700461049e+00
2.406635944700461049e+00
2.406635944700461049e+00
2.411136082033753514e+00
2.411136082033753514e+00
2.411136082033753514e+00
2.411136082033753514e+00
2.318883266701254442e+00
2.318883266701254442e+00
2.318883266701254442e+00
2.274819421979430434e+00
2.274819421979430434e+00
2.274819421979430434e+00
2.256443861201819168e+00
2.256443861201819168e+00
2.256443861201819168e+00
2.256443861201819168e+00
2.272569353312784202e+00
2.272569353312784202e+00
2.272569353312784202e+00
2.255506332590716312e+00
2.255506332590716312e+00
2.255506332590716312e+00
2.255506332590716312e+00
2.212380016479995160e+00
2.212380016479995160e+00
2.212380016479995160e+00
2.206942350535599839e+00
2.206942350535599839e+00
2.206942350535599839e+00
2.206942350535599839e+00
2.226255439924313961e+00
2.226255439924313961e+00
2.226255439924313961e+00
2.263756584368419311e+00
2.263756584368419311e+00
2.263756584368419311e+00
2.298070131534776017e+00
2.298070131534776017e+00
2.298070131534776017e+00
2.341008941923276243e+00
2.341008941923276243e+00
2.341008941923276243e+00
2.341008941923276243e+00
2.399885738700521909e+00
2.399885738700521909e+00
2.399885738700521909e+00
2.434761803033539618e+00
2.434761803033539618e+00
2.434761803033539618e+00
2.408323496200445835e+00
2.408323496200445835e+00
2.408323496200445835e+00
2.408323496200445835e+00
2.358259468367565059e+00
2.358259468367565059e+00
2.358259468367565059e+00
2.292257454145939732e+00
2.292257454145939732e+00
2.292257454145939732e+00
2.292257454145939732e+00
2.240693380535294654e+00
2.240693380535294654e+00
2.240693380535294654e+00
2.223442854091006282e+00
2.223442854091006282e+00
2.223442854091006282e+00
2.217442670979949515e+00
2.217442670979949515e+00
2.217442670979949515e+00
2.217442670979949515e+00
2.241630909146397510e+00
2.241630909146397510e+00
2.241630909146397510e+00
2.255131321146275347e+00
2.255131321146275347e+00
2.255131321146275347e+00
2.255131321146275347e+00
2.263194067201757864e+00
2.263194067201757864e+00
2.263194067201757864e+00
2.290382396923734465e+00
2.290382396923734465e+00
2.290382396923734465e+00
2.290382396923734465e+00
2.309507980590228104e+00
2.309507980590228104e+00
2.309507980590228104e+00
2.336696310312204705e+00
2.336696310312204705e+00
2.336696310312204705e+00
2.373259926145207199e+00
2.373259926145207199e+00
2.373259926145207199e+00
2.373259926145207199e+00
2.384135258033997840e+00
2.384135258033997840e+00
2.384135258033997840e+00
2.347946653645436310e+00
2.347946653645436310e+00
2.347946653645436310e+00
2.347946653645436310e+00
2.333321207312235135e+00
2.333321207312235135e+00
2.333321207312235135e+00
2.307445417645802355e+00
2.307445417645802355e+00
2.307445417645802355e+00
2.307445417645802355e+00
2.269756767479476078e+00
2.269756767479476078e+00
2.269756767479476078e+00
2.254568803979613900e+00
2.254568803979613900e+00
2.254568803979613900e+00
2.297695120090334608e+00
2.297695120090334608e+00
2.297695120090334608e+00
2.297695120090334608e+00
2.328821069978942226e+00
2.328821069978942226e+00
2.328821069978942226e+00
2.305195348979155678e+00
2.305195348979155678e+00
2.305195348979155678e+00
2.305195348979155678e+00
2.273694387646107540e+00
2.273694387646107540e+00
2.273694387646107540e+00
2.293569994201483109e+00
2.293569994201483109e+00
2.293569994201483109e+00
2.293569994201483109e+00
2.305570360423596643e+00
2.305570360423596643e+00
2.305570360423596643e+00
2.307445417645802355e+00
2.307445417645802355e+00
2.307445417645802355e+00
2.316445692312387283e+00
2.316445692312387283e+00
2.316445692312387283e+00
2.316445692312387283e+00
2.332946195867793726e+00
2.332946195867793726e+00
2.332946195867793726e+00
2.314383129367961978e+00
2.314383129367961978e+00
2.314383129367961978e+00
2.314383129367961978e+00
2.313820612201300086e+00
2.313820612201300086e+00
2.313820612201300086e+00
2.327133518478957885e+00
2.327133518478957885e+00
2.327133518478957885e+00
2.327133518478957885e+00
2.340633930478835278e+00
2.340633930478835278e+00
2.340633930478835278e+00
2.330321115756706529e+00
2.330321115756706529e+00
2.330321115756706529e+00
2.288132328257088233e+00
2.288132328257088233e+00
2.288132328257088233e+00
2.288132328257088233e+00
2.267881710257271255e+00
2.267881710257271255e+00
2.267881710257271255e+00
2.218755211035493335e+00
2.218755211035493335e+00
2.218755211035493335e+00
2.218755211035493335e+00
2.208254890591143660e+00
2.208254890591143660e+00
2.208254890591143660e+00
2.218380199591051927e+00
2.218380199591051927e+00
2.245193517868587563e+00
2.245193517868587563e+00
2.245193517868587563e+00
2.331821161534470832e+00
2.331821161534470832e+00
2.331821161534470832e+00
2.331821161534470832e+00
2.378885097811823002e+00
2.378885097811823002e+00
2.378885097811823002e+00
2.364822168645283273e+00
2.364822168645283273e+00
2.364822168645283273e+00
2.367447248756370914e+00
2.367447248756370914e+00
2.367447248756370914e+00
2.367447248756370914e+00
2.363134617145298488e+00
2.363134617145298488e+00
2.363134617145298488e+00
2.304070314645832784e+00
2.304070314645832784e+00
2.304070314645832784e+00
2.304070314645832784e+00
2.285507248146000592e+00
2.285507248146000592e+00
2.285507248146000592e+00
2.267881710257271255e+00
2.267881710257271255e+00
2.267881710257271255e+00
2.252693746757408633e+00
2.252693746757408633e+00
2.252693746757408633e+00
2.252693746757408633e+00
2.270881801812799416e+00
2.270881801812799416e+00
2.270881801812799416e+00
2.314945646534623425e+00
2.314945646534623425e+00
2.314945646534623425e+00
2.314945646534623425e+00
2.341383953367717208e+00
2.341383953367717208e+00
2.341383953367717208e+00
2.358071962645344577e+00
2.358071962645344577e+00
2.358071962645344577e+00
2.342321481978820064e+00
2.342321481978820064e+00
2.342321481978820064e+00
2.342321481978820064e+00
2.349446699423200169e+00
2.349446699423200169e+00
2.349446699423200169e+00
2.338946378978850937e+00
2.338946378978850937e+00
2.338946378978850937e+00
2.338946378978850937e+00
2.284382213812677254e+00
2.284382213812677254e+00
2.284382213812677254e+00
2.235818231757560781e+00
2.235818231757560781e+00
2.235818231757560781e+00
2.235818231757560781e+00
2.232630634479812137e+00
2.232630634479812137e+00
2.232630634479812137e+00
2.252881252479629115e+00
2.252881252479629115e+00
2.252881252479629115e+00
2.337071321756645670e+00
2.337071321756645670e+00
2.337071321756645670e+00
2.337071321756645670e+00
2.349259193700979687e+00
2.349259193700979687e+00
2.349259193700979687e+00
2.369322305978576182e+00
2.369322305978576182e+00
2.369322305978576182e+00
2.369322305978576182e+00
2.332758690145573244e+00
2.332758690145573244e+00
2.332758690145573244e+00
2.271069307535019899e+00
2.271069307535019899e+00
2.271069307535019899e+00
2.285507248146000592e+00
2.285507248146000592e+00
2.285507248146000592e+00
2.285507248146000592e+00
2.284007202368236289e+00
2.284007202368236289e+00
2.284007202368236289e+00
2.278569536423841413e+00
2.278569536423841413e+00
2.278569536423841413e+00
2.278569536423841413e+00
2.267881710257271255e+00
2.267881710257271255e+00
2.267881710257271255e+00
2.264506607257301685e+00
2.264506607257301685e+00
2.264506607257301685e+00
2.264506607257301685e+00
2.273694387646107540e+00
2.273694387646107540e+00
2.273694387646107540e+00
2.308945463423566213e+00
2.308945463423566213e+00
2.308945463423566213e+00
2.323195898312326424e+00
2.323195898312326424e+00
2.323195898312326424e+00
2.323195898312326424e+00
2.321320841090121156e+00
2.321320841090121156e+00
2.321320841090121156e+00
2.287194799645985377e+00
2.287194799645985377e+00
2.287194799645985377e+00
2.287194799645985377e+00
2.275569444868312807e+00
2.275569444868312807e+00
2.275569444868312807e+00
2.282319650868251504e+00
2.282319650868251504e+00
2.282319650868251504e+00
2.282319650868251504e+00
2.257943906979583026e+00
2.257943906979583026e+00
2.257943906979583026e+00
2.252693746757408633e+00
2.252693746757408633e+00
2.252693746757408633e+00
2.309132969145787140e+00
2.309132969145787140e+00
2.309132969145787140e+00
2.306507889034699499e+00
2.306507889034699499e+00
2.306507889034699499e+00
2.306507889034699499e+00
2.339883907589953349e+00
2.339883907589953349e+00
2.339883907589953349e+00
2.371947386089663379e+00
2.371947386089663379e+00
2.371947386089663379e+00
2.371947386089663379e+00
2.367072237311929506e+00
2.367072237311929506e+00
2.367072237311929506e+00
2.346821619312112972e+00
2.346821619312112972e+00
2.346821619312112972e+00
2.350946745200964472e+00
2.350946745200964472e+00
2.350946745200964472e+00
2.350946745200964472e+00
2.337821344645527599e+00
2.337821344645527599e+00
2.337821344645527599e+00
2.331633655812249906e+00
2.331633655812249906e+00
2.331633655812249906e+00
2.331633655812249906e+00
2.335946287423322332e+00
2.335946287423322332e+00
2.335946287423322332e+00
2.307445417645802355e+00
2.307445417645802355e+00
2.307445417645802355e+00
2.319070772423474924e+00
2.319070772423474924e+00
2.319070772423474924e+00
2.319070772423474924e+00
2.338758873256630455e+00
2.338758873256630455e+00
2.338758873256630455e+00
2.317945738090151586e+00
2.317945738090151586e+00
2.317945738090151586e+00
2.317945738090151586e+00
2.337071321756645670e+00
2.337071321756645670e+00
2.337071321756645670e+00
2.315320657979064389e+00
2.315320657979064389e+00
2.315320657979064389e+00
2.315320657979064389e+00
2.296570085757011714e+00
2.296570085757011714e+00
2.296570085757011714e+00
2.274444410534989469e+00
2.274444410534989469e+00
2.274444410534989469e+00
2.219317728202154782e+00
2.219317728202154782e+00
2.219317728202154782e+00
2.219317728202154782e+00
2.186879238258003344e+00
2.186879238258003344e+00
2.186879238258003344e+00
2.208254890591143660e+00
2.208254890591143660e+00
2.208254890591143660e+00
2.208254890591143660e+00
2.238818323313089387e+00
2.238818323313089387e+00
2.238818323313089387e+00
2.289069856868190644e+00
2.289069856868190644e+00
2.289069856868190644e+00
2.289069856868190644e+00
2.297320108645893644e+00
2.297320108645893644e+00
2.297320108645893644e+00
2.299570177312540320e+00
2.299570177312540320e+00
2.299570177312540320e+00
2.290757408368175430e+00
2.290757408368175430e+00
2.290757408368175430e+00
2.290757408368175430e+00
2.282132145146031021e+00
2.282132145146031021e+00
2.282132145146031021e+00
2.317008209479048730e+00
2.317008209479048730e+00
2.317008209479048730e+00
2.317008209479048730e+00
2.326758507034516477e+00
2.326758507034516477e+00
2.326758507034516477e+00
2.313070589312418157e+00
2.313070589312418157e+00
2.313070589312418157e+00
2.334258735923337547e+00
2.334258735923337547e+00
2.334258735923337547e+00
2.334258735923337547e+00
2.360322031311990809e+00
2.360322031311990809e+00
2.360322031311990809e+00
2.356759422589800756e+00
2.356759422589800756e+00
2.356759422589800756e+00
2.356759422589800756e+00
2.361259559923093665e+00
2.361259559923093665e+00
2.361259559923093665e+00
2.324320932645649762e+00
2.324320932645649762e+00
2.324320932645649762e+00
2.324320932645649762e+00
2.302007751701407035e+00
2.302007751701407035e+00
2.302007751701407035e+00
2.266006653035065987e+00
2.266006653035065987e+00
2.266006653035065987e+00
2.264506607257301685e+00
2.264506607257301685e+00
2.264506607257301685e+00
2.264506607257301685e+00
2.254568803979613900e+00
2.254568803979613900e+00
2.254568803979613900e+00
2.235255714590899334e+00
2.235255714590899334e+00
2.235255714590899334e+00
2.235255714590899334e+00
2.239943357646412725e+00
2.239943357646412725e+00
2.239943357646412725e+00
2.266569170201727434e+00
2.266569170201727434e+00
2.266569170201727434e+00
2.266569170201727434e+00
2.309320474868007622e+00
2.378510086367381593e+00
2.378510086367381593e+00
2.429699148533585706e+00
2.429699148533585706e+00
2.429699148533585706e+00
2.469450361644337288e+00
2.469450361644337288e+00
2.469450361644337288e+00
2.430261665700247153e+00
2.430261665700247153e+00
2.430261665700247153e+00
2.430261665700247153e+00
2.393698049867244659e+00
2.393698049867244659e+00
2.393698049867244659e+00
2.349446699423200169e+00
2.349446699423200169e+00
2.349446699423200169e+00
2.349446699423200169e+00
2.264694112979522167e+00
2.264694112979522167e+00
2.264694112979522167e+00
2.220255256813257638e+00
2.220255256813257638e+00
2.220255256813257638e+00
2.220255256813257638e+00
2.185191686758019003e+00
2.185191686758019003e+00
2.185191686758019003e+00
2.199629627368999252e+00
2.199629627368999252e+00
2.199629627368999252e+00
2.206942350535599839e+00
2.206942350535599839e+00
2.206942350535599839e+00
2.206942350535599839e+00
2.271256813257240381e+00
2.271256813257240381e+00
2.271256813257240381e+00
2.333508713034455617e+00
2.333508713034455617e+00
2.333508713034455617e+00
2.333508713034455617e+00
2.333321207312235135e+00
2.333321207312235135e+00
2.333321207312235135e+00
2.332758690145573244e+00
2.332758690145573244e+00
2.332758690145573244e+00
2.341758964812158617e+00
2.341758964812158617e+00
2.341758964812158617e+00
2.341758964812158617e+00
2.335946287423322332e+00
2.335946287423322332e+00
2.335946287423322332e+00
2.278194524979400004e+00
2.278194524979400004e+00
2.278194524979400004e+00
2.278194524979400004e+00
2.233943174535355514e+00
2.233943174535355514e+00
2.233943174535355514e+00
2.241068391979735619e+00
2.241068391979735619e+00
2.241068391979735619e+00
2.241068391979735619e+00
2.275756950590533290e+00
2.275756950590533290e+00
2.275756950590533290e+00
2.278757042146061895e+00
2.278757042146061895e+00
2.278757042146061895e+00
2.272381847590563719e+00
2.272381847590563719e+00
2.272381847590563719e+00
2.272381847590563719e+00
2.289444868312631609e+00
2.289444868312631609e+00
2.289444868312631609e+00
2.276506973479415219e+00
2.276506973479415219e+00
2.276506973479415219e+00
2.276506973479415219e+00
2.314195623645741495e+00
2.314195623645741495e+00
2.314195623645741495e+00
2.364822168645283273e+00
2.364822168645283273e+00
2.364822168645283273e+00
2.361822077089755112e+00
2.361822077089755112e+00
2.361822077089755112e+00
2.361822077089755112e+00
2.411886104922635443e+00
2.411886104922635443e+00
2.411886104922635443e+00
2.413948667867061193e+00
2.413948667867061193e+00
2.413948667867061193e+00
2.413948667867061193e+00
2.340633930478835278e+00
2.340633930478835278e+00
2.340633930478835278e+00
2.318320749534592551e+00
2.318320749534592551e+00
2.318320749534592551e+00
2.318320749534592551e+00
2.244068483535264225e+00
2.244068483535264225e+00
2.244068483535264225e+00
2.246506057924130939e+00
2.246506057924130939e+00
2.246506057924130939e+00
2.239193334757530351e+00
2.239193334757530351e+00
2.239193334757530351e+00
2.182379100924710880e+00
2.182379100924710880e+00
2.182379100924710880e+00
2.197192052980132537e+00
2.197192052980132537e+00
2.197192052980132537e+00
2.246318552201910457e+00
2.246318552201910457e+00
2.246318552201910457e+00
2.246318552201910457e+00
2.289444868312631609e+00
2.289444868312631609e+00
2.289444868312631609e+00
2.351884273812066883e+00
2.351884273812066883e+00
2.351884273812066883e+00
2.351884273812066883e+00
2.393323038422803695e+00
2.393323038422803695e+00
2.433074251533554833e+00
2.433074251533554833e+00
2.433074251533554833e+00
2.433074251533554833e+00
2.445824640644550740e+00
2.445824640644550740e+00
2.445824640644550740e+00
2.412823633533738299e+00
2.412823633533738299e+00
2.412823633533738299e+00
2.412823633533738299e+00
2.356946928312021239e+00
2.356946928312021239e+00
2.356946928312021239e+00
2.305195348979155678e+00
2.305195348979155678e+00
2.305195348979155678e+00
2.257006378368480615e+00
2.257006378368480615e+00
2.257006378368480615e+00
2.257006378368480615e+00
2.222692831202123909e+00
2.222692831202123909e+00
2.222692831202123909e+00
2.248943632312997654e+00
2.248943632312997654e+00
2.248943632312997654e+00
2.248943632312997654e+00
2.292819971312600735e+00
2.292819971312600735e+00
2.292819971312600735e+00
2.328633564256721744e+00
2.328633564256721744e+00
2.328633564256721744e+00
2.281944639423810539e+00
2.281944639423810539e+00
2.281944639423810539e+00
2.281944639423810539e+00
2.286819788201544412e+00
2.286819788201544412e+00
2.286819788201544412e+00
2.277444502090518075e+00
2.277444502090518075e+00
2.277444502090518075e+00
2.277444502090518075e+00
2.258693929868464956e+00
2.258693929868464956e+00
2.258693929868464956e+00
2.277819513534959039e+00
2.277819513534959039e+00
2.277819513534959039e+00
2.277819513534959039e+00
2.263756584368419311e+00
2.263756584368419311e+00
2.263756584368419311e+00
2.274444410534989469e+00
2.274444410534989469e+00
2.274444410534989469e+00
2.280819605090487201e+00
2.280819605090487201e+00
2.280819605090487201e+00
2.280819605090487201e+00
2.312695577867977192e+00
2.312695577867977192e+00
2.312695577867977192e+00
2.307632923368022837e+00
2.307632923368022837e+00
2.307632923368022837e+00
2.307632923368022837e+00
2.300882717368083696e+00
2.300882717368083696e+00
2.300882717368083696e+00
2.312133060701315301e+00
2.312133060701315301e+00
2.312133060701315301e+00
2.318133243812372069e+00
2.318133243812372069e+00
2.318133243812372069e+00
2.318133243812372069e+00
2.303507797479171337e+00
2.303507797479171337e+00
2.303507797479171337e+00
2.274631916257209951e+00
2.274631916257209951e+00
2.274631916257209951e+00
2.274631916257209951e+00
2.292257454145939732e+00
2.292257454145939732e+00
2.292257454145939732e+00
2.390322946867275089e+00
2.390322946867275089e+00
2.390322946867275089e+00
2.390322946867275089e+00
2.424448988311410869e+00
2.424448988311410869e+00
2.424448988311410869e+00
2.434949308755760100e+00
2.434949308755760100e+00
2.434949308755760100e+00
2.437011871700186294e+00
2.437011871700186294e+00
2.437011871700186294e+00
2.437011871700186294e+00
2.373634937589648164e+00
2.373634937589648164e+00
2.373634937589648164e+00
2.303507797479171337e+00
2.303507797479171337e+00
2.303507797479171337e+00
2.303507797479171337e+00
2.234130680257575996e+00
2.234130680257575996e+00
2.234130680257575996e+00
2.157253334147160473e+00
2.157253334147160473e+00
2.157253334147160473e+00
2.212755027924436124e+00
2.207129856257820322e+00
2.207129856257820322e+00
2.196817041535691573e+00
2.196817041535691573e+00
2.189879329813531950e+00
2.230755577257606870e+00
2.230755577257606870e+00
2.316258186590166801e+00
2.316258186590166801e+00
2.346821619312112972e+00
2.401385784478286212e+00
2.401385784478286212e+00
2.390510452589495571e+00
2.390510452589495571e+00
2.344009033478804849e+00
2.340071413312173831e+00
2.340071413312173831e+00
2.352446790978728330e+00
2.326946012756737403e+00
2.326946012756737403e+00
2.337258827478866152e+00
2.337258827478866152e+00
2.348884182256538722e+00
2.318508255256813033e+00
2.318508255256813033e+00
2.244068483535264225e+00
2.244068483535264225e+00
2.219130222479934300e+00
2.242380932035279439e+00
2.242380932035279439e+00
2.215380108035523765e+00
2.215380108035523765e+00
2.218942716757713818e+00
2.219692739646595747e+00
2.219692739646595747e+00
2.289444868312631609e+00
2.334821253089998994e+00
2.334821253089998994e+00
2.350009216589862060e+00
2.350009216589862060e+00
2.392573015533921321e+00
2.377760063478499664e+00
2.377760063478499664e+00
2.341946470534379099e+00
2.341946470534379099e+00
2.298632648701437464e+00
2.232068117313150690e+00
2.232068117313150690e+00
2.248193609424115724e+00
2.248193609424115724e+00
2.237693288979766049e+00
2.259256447035126847e+00
2.259256447035126847e+00
2.321133335367900674e+00
2.321133335367900674e+00
2.416011230811487387e+00
2.416198736533707869e+00
2.416198736533707869e+00
2.355071871089815971e+00
2.309132969145787140e+00
2.309132969145787140e+00
2.276881984923856628e+00
2.276881984923856628e+00
2.233568163090914993e+00
2.212567522202215642e+00
2.212567522202215642e+00
2.256443861201819168e+00
2.256443861201819168e+00
2.269944273201696561e+00
2.297882625812555535e+00
2.297882625812555535e+00
2.229255531479842567e+00
2.229255531479842567e+00
2.285694753868221074e+00
2.358634479812006024e+00
2.358634479812006024e+00
2.387510361033966966e+00
2.401948301644947659e+00
2.401948301644947659e+00
2.353759331034272151e+00
2.321133335367900674e+00
2.321133335367900674e+00
2.313633106479079604e+00
2.313633106479079604e+00
2.268631733146153184e+00
2.240880886257515137e+00
2.240880886257515137e+00
2.250818689535202921e+00
2.250818689535202921e+00
2.263194067201757864e+00
2.274069399090548504e+00
2.274069399090548504e+00
2.288882351145970162e+00
2.288882351145970162e+00
2.241630909146397510e+00
2.301070223090304623e+00
2.301070223090304623e+00
2.348321665089877275e+00
2.330508621478927012e+00
2.330508621478927012e+00
2.379822626422925413e+00
2.379822626422925413e+00
2.453699880977813219e+00
2.459512558366649504e+00
2.459512558366649504e+00
2.426699056978057101e+00
2.426699056978057101e+00
2.371009857478560967e+00
2.351321756645405436e+00
2.351321756645405436e+00
2.236005737479781263e+00
2.236005737479781263e+00
2.176191412091433186e+00
2.146190496536149350e+00
2.146190496536149350e+00
2.230755577257606870e+00
2.230755577257606870e+00
2.341383953367717208e+00
2.385447798089541660e+00
2.385447798089541660e+00
2.366322214423047576e+00
2.383947752311777357e+00
2.383947752311777357e+00
2.390135441145054607e+00
2.390135441145054607e+00
2.319070772423474924e+00
2.286632282479323930e+00
2.286632282479323930e+00
2.245756035035248566e+00
2.245756035035248566e+00
2.188941801202429094e+00
2.158940885647145258e+00
2.158940885647145258e+00
2.131002533036286284e+00
2.131002533036286284e+00
2.197567064424573946e+00
2.237318277535325084e+00
2.237318277535325084e+00
2.240318369090853690e+00
2.240318369090853690e+00
2.307257911923581428e+00
2.337071321756645670e+00
2.337071321756645670e+00
2.372697408978545752e+00
2.357134434034241721e+00
2.287944822534867306e+00
2.330321115756706529e+00
2.330321115756706529e+00
2.329008575701162709e+00
2.329008575701162709e+00
2.303507797479171337e+00
2.350009216589862060e+00
2.350009216589862060e+00
2.348134159367656792e+00
2.348134159367656792e+00
2.328258552812280335e+00
2.320008301034577336e+00
2.320008301034577336e+00
2.285507248146000592e+00
2.321695852534562121e+00
2.321695852534562121e+00
2.392010498367259874e+00
2.392010498367259874e+00
2.441699514755699685e+00
2.420698873867000778e+00
2.420698873867000778e+00
2.445449629200109776e+00
2.445449629200109776e+00
2.438136906033509188e+00
2.346634113589892490e+00
2.231318094424268317e+00
2.231318094424268317e+00
2.122377269814142320e+00
2.137565233314004942e+00
2.137565233314004942e+00
2.158565874202703849e+00
2.185191686758019003e+00
2.185191686758019003e+00
2.188941801202429094e+00
2.188941801202429094e+00
2.169441206091494490e+00
2.220255256813257638e+00
2.220255256813257638e+00
2.318883266701254442e+00
2.318883266701254442e+00
2.356946928312021239e+00
2.434199285866878171e+00
2.434199285866878171e+00
2.487825922421948999e+00
2.487825922421948999e+00
2.453137363811151772e+00
2.398198187200537124e+00
2.398198187200537124e+00
2.383010223700674501e+00
2.383010223700674501e+00
2.298257637256996500e+00
2.261694021423993561e+00
2.261694021423993561e+00
2.239380840479750834e+00
2.239380840479750834e+00
2.209567430646687480e+00
2.242005920590838475e+00
2.242005920590838475e+00
2.165316080202642990e+00
2.244631000701926116e+00
2.244631000701926116e+00
2.408135990478225352e+00
2.408135990478225352e+00
2.387322855311746483e+00
2.445074617755668811e+00
2.445074617755668811e+00
2.449574755088961275e+00
2.430636677144688562e+00
2.430636677144688562e+00
2.330508621478927012e+00
2.164753563035981099e+00
2.164753563035981099e+00
2.198129581591235393e+00
2.198129581591235393e+00
2.178816492202520827e+00
2.162315988647114828e+00
2.162315988647114828e+00
2.211442487868892304e+00
2.211442487868892304e+00
2.191941892757957699e+00
2.169441206091494490e+00
2.169441206091494490e+00
2.310820520645771925e+00
2.310820520645771925e+00
2.484450819421979428e+00
2.454262398144474666e+00
2.454262398144474666e+00
2.476575579088717394e+00
2.476575579088717394e+00
2.446387157811212187e+00
2.392385509811700839e+00
2.392385509811700839e+00
2.337821344645527599e+00
2.189879329813531950e+00
2.189879329813531950e+00
2.164378551591540134e+00
2.164378551591540134e+00
2.216130130924405695e+00
2.169066194647053525e+00
2.169066194647053525e+00
2.145440473647266977e+00
2.145440473647266977e+00
2.120689718314157535e+00
2.172253791924802613e+00
2.172253791924802613e+00
2.331258644367808941e+00
2.331258644367808941e+00
2.449387249366740793e+00
2.464012695699941968e+00
2.464012695699941968e+00
2.456137455366679934e+00
2.456137455366679934e+00
2.380760155034028269e+00
2.354321848200934042e+00
2.354321848200934042e+00
2.350571733756523507e+00
2.322820886867885459e+00
2.322820886867885459e+00
2.348134159367656792e+00
2.348134159367656792e+00
2.359384502700888397e+00
2.314945646534623425e+00
2.314945646534623425e+00
2.230568071535386387e+00
2.230568071535386387e+00
2.226255439924313961e+00
2.259631458479567812e+00
2.259631458479567812e+00
2.414136173589282119e+00
2.414136173589282119e+00
2.373634937589648164e+00
2.327696035645618888e+00
2.240505874813074172e+00
2.131377544480727693e+00
2.131377544480727693e+00
2.090501297036652772e+00
2.048875026703695923e+00
2.048875026703695923e+00
2.141127842036194995e+00
2.141127842036194995e+00
2.272756859035004684e+00
2.379822626422925413e+00
2.379822626422925413e+00
2.402135807367168141e+00
2.402135807367168141e+00
2.329758598590044638e+00
2.246131046479689974e+00
2.246131046479689974e+00
2.306507889034699499e+00
2.306507889034699499e+00
2.449574755088961275e+00
2.443574571977904952e+00
2.443574571977904952e+00
2.475638050477614982e+00
2.475638050477614982e+00
2.479388164922025517e+00
2.442262031922361132e+00
2.442262031922361132e+00
2.411886104922635443e+00
2.274819421979430434e+00
2.274819421979430434e+00
2.184066652424695665e+00
2.184066652424695665e+00
2.178816492202520827e+00
2.140565324869533104e+00
2.140565324869533104e+00
2.090501297036652772e+00
2.090501297036652772e+00
2.058250312814721816e+00
2.136815210425123013e+00
2.136815210425123013e+00
2.225505417035432032e+00
2.225505417035432032e+00
2.363884640034180418e+00
2.396510635700552783e+00
2.396510635700552783e+00
2.386572832422864110e+00
2.386572832422864110e+00
2.345696584978789634e+00
2.342508987701040546e+00
2.342508987701040546e+00
2.352071779534287366e+00
2.352071779534287366e+00
2.348509170812097757e+00
2.409636036255989211e+00
2.409636036255989211e+00
2.380760155034028269e+00
2.326946012756737403e+00
2.326946012756737403e+00
2.322820886867885459e+00
2.322820886867885459e+00
2.253256263924070080e+00
2.234130680257575996e+00
2.234130680257575996e+00
2.265256630146183614e+00
2.265256630146183614e+00
2.313258095034638639e+00
2.308570451979125249e+00
2.308570451979125249e+00
2.291694936979278285e+00
2.291694936979278285e+00
2.273131870479445649e+00
2.276131962034974254e+00
2.276131962034974254e+00
2.314758140812402942e+00
2.319258278145695407e+00
2.319258278145695407e+00
2.289069856868190644e+00
2.289069856868190644e+00
2.269194250312814631e+00
2.250256172368541474e+00
2.250256172368541474e+00
2.170191228980376863e+00
2.170191228980376863e+00
2.203004730368968822e+00
2.332196172978911797e+00
2.332196172978911797e+00
2.324320932645649762e+00
2.324320932645649762e+00
2.316633198034607766e+00
2.280819605090487201e+00
2.280819605090487201e+00
2.314945646534623425e+00
2.314945646534623425e+00
2.264694112979522167e+00
2.321508346812341639e+00
2.321508346812341639e+00
2.312320566423536228e+00
2.325820978423414065e+00
2.325820978423414065e+00
2.325633472701193583e+00
2.325633472701193583e+00
2.327321024201178368e+00
2.311008026367992407e+00
2.311008026367992407e+00
2.263194067201757864e+00
2.263194067201757864e+00
2.243880977813043742e+00
2.310445509201330516e+00
2.310445509201330516e+00
2.332196172978911797e+00
2.332196172978911797e+00
2.286069765312662039e+00
2.327133518478957885e+00
2.327133518478957885e+00
2.412448622089296890e+00
2.412448622089296890e+00
2.420698873867000778e+00
2.439824457533493973e+00
2.439824457533493973e+00
2.430074159978026671e+00
2.383760246589556875e+00
2.383760246589556875e+00
2.266756675923947917e+00
2.266756675923947917e+00
2.140190313425092139e+00
2.218942716757713818e+00
2.218942716757713818e+00
2.154065736869411385e+00
2.154065736869411385e+00
2.273694387646107540e+00
2.540890041810357936e+00
2.540890041810357936e+00
2.591891598254341122e+00
2.510889126255073656e+00
2.510889126255073656e+00
2.408698507644886799e+00
2.408698507644886799e+00
2.118627155369731785e+00
1.879557359538560180e+00
1.879557359538560180e+00
1.951372051149021791e+00
1.951372051149021791e+00
2.142627887813959298e+00
2.239943357646412725e+00
2.239943357646412725e+00
2.317008209479048730e+00
2.248381115146336207e+00
2.248381115146336207e+00
2.229818048646504014e+00
2.229818048646504014e+00
2.192316904202398664e+00
2.244068483535264225e+00
2.244068483535264225e+00
2.349259193700979687e+00
2.349259193700979687e+00
2.307445417645802355e+00
2.240880886257515137e+00
2.240880886257515137e+00
2.228130497146519229e+00
2.228130497146519229e+00
2.351321756645405436e+00
2.417886288033692654e+00
2.417886288033692654e+00
2.442074526200140649e+00
2.433074251533554833e+00
2.433074251533554833e+00
2.307820429090243319e+00
2.307820429090243319e+00
2.293007477034821662e+00
2.257193884090700653e+00
2.257193884090700653e+00
2.339321390423291458e+00
2.339321390423291458e+00
2.437574388866847741e+00
2.396885647144993747e+00
2.396885647144993747e+00
2.358071962645344577e+00
2.358071962645344577e+00
2.348696676534318240e+00
2.256631366924039650e+00
2.256631366924039650e+00
2.283444685201574842e+00
2.283444685201574842e+00
2.391260475478377501e+00
2.382635212256233537e+00
2.382635212256233537e+00
2.194191961424603932e+00
2.150128116702780368e+00
2.150128116702780368e+00
2.311758049256874337e+00
2.311758049256874337e+00
2.386947843867305519e+00
2.417698782311472172e+00
2.417698782311472172e+00
2.327133518478957885e+00
2.327133518478957885e+00
2.161565965758232455e+00
2.184441663869136629e+00
2.184441663869136629e+00
2.318508255256813033e+00
2.372322397534104788e+00
2.372322397534104788e+00
2.327133518478957885e+00
2.406635944700461049e+00
2.406635944700461049e+00
2.454637409588916075e+00
2.454637409588916075e+00
2.235818231757560781e+00
2.208442396313364142e+00
2.208442396313364142e+00
2.221567796868801015e+00
2.235818231757560781e+00
2.235818231757560781e+00
2.261694021423993561e+00
2.261694021423993561e+00
2.191004364146854844e+00
2.219505233924375265e+00
2.219505233924375265e+00
2.281382122257148648e+00
2.281382122257148648e+00
2.300132694479201767e+00
2.506764000366222156e+00
2.506764000366222156e+00
2.635955442976165131e+00
2.635955442976165131e+00
2.525702078310495757e+00
2.406073427533799602e+00
2.406073427533799602e+00
2.339321390423291458e+00
2.339321390423291458e+00
2.288507339701529197e+00
2.239193334757530351e+00
2.239193334757530351e+00
2.261131504257332114e+00
2.261131504257332114e+00
2.267881710257271255e+00
2.265631641590625023e+00
2.265631641590625023e+00
2.279132053590502860e+00
2.221005279702139568e+00
2.221005279702139568e+00
2.201317178868984037e+00
2.201317178868984037e+00
2.242193426313058957e+00
2.365572191534165203e+00
2.365572191534165203e+00
2.416573747978148834e+00
2.416573747978148834e+00
2.414323679311502602e+00
2.386010315256203107e+00
2.386010315256203107e+00
2.500388805810724424e+00
2.500388805810724424e+00
2.527952146977141545e+00
2.307632923368022837e+00
2.307632923368022837e+00
2.239380840479750834e+00
2.180129032258064647e+00
2.180129032258064647e+00
2.068563127536851454e+00
2.068563127536851454e+00
2.095188940092165719e+00
2.195129490035706787e+00
2.195129490035706787e+00
2.350759239478743989e+00
2.350759239478743989e+00
2.443574571977904952e+00
2.430636677144688562e+00
2.430636677144688562e+00
2.242943449201941331e+00
2.242943449201941331e+00
2.422948942533646566e+00
2.422948942533646566e+00
2.479575670644245999e+00
2.426699056978057101e+00
2.426699056978057101e+00
2.322820886867885459e+00
2.322820886867885459e+00
2.256256355479598685e+00
2.309507980590228104e+00
2.309507980590228104e+00
2.289819879757073018e+00
2.289819879757073018e+00
2.333696218756676100e+00
2.428011597033600921e+00
2.428011597033600921e+00
2.186879238258003344e+00
2.190254341257972914e+00
2.190254341257972914e+00
2.223255348368785356e+00
2.223255348368785356e+00
2.384135258033997840e+00
2.298070131534776017e+00
2.298070131534776017e+00
2.255506332590716312e+00
2.255506332590716312e+00
2.239380840479750834e+00
2.273881893368328022e+00
2.273881893368328022e+00
2.386197820978423145e+00
2.386197820978423145e+00
2.391072969756157018e+00
2.301632740256966070e+00
2.301632740256966070e+00
2.290757408368175430e+00
2.290757408368175430e+00
2.328633564256721744e+00
2.366697225867488541e+00
2.366697225867488541e+00
2.305007843256935196e+00
2.305007843256935196e+00
2.337633838923307117e+00
2.422011413922543710e+00
2.422011413922543710e+00
2.329946104312265120e+00
2.329008575701162709e+00
2.329008575701162709e+00
2.211254982146671821e+00
2.211254982146671821e+00
2.374384960478530537e+00
2.395385601367229444e+00
2.395385601367229444e+00
2.139815301980651618e+00
2.139815301980651618e+00
2.172628803369243577e+00
2.221380291146580532e+00
2.221380291146580532e+00
2.299945188756981285e+00
2.299945188756981285e+00
2.267506698812830290e+00
2.293757499923703591e+00
2.293757499923703591e+00
2.304445326090273749e+00
2.340633930478835278e+00
2.340633930478835278e+00
2.413011139255958781e+00
2.449949766533402684e+00
2.449949766533402684e+00
2.369134800256355700e+00
2.286444776757103448e+00
2.286444776757103448e+00
2.234130680257575996e+00
2.234130680257575996e+00
2.287944822534867306e+00
2.369134800256355700e+00
2.369134800256355700e+00
2.340821436201055761e+00
2.340821436201055761e+00
2.228880520035401602e+00
2.135877681814020157e+00
2.135877681814020157e+00
2.246506057924130939e+00
2.246506057924130939e+00
2.427261574144718992e+00
2.478638142033143144e+00
2.478638142033143144e+00
2.382447706534013054e+00
2.382447706534013054e+00
2.400448255867183356e+00
2.282132145146031021e+00
2.282132145146031021e+00
2.486325876644184696e+00
2.674394116031373336e+00
2.674394116031373336e+00
2.552515396588030505e+00
2.552515396588030505e+00
2.413761162144840711e+00
2.019249122592852608e+00
2.019249122592852608e+00
1.875807245094149645e+00
1.875807245094149645e+00
1.847868892483291114e+00
1.927558824427014983e+00
1.927558824427014983e+00
2.276881984923856628e+00
2.276881984923856628e+00
2.376447523422955843e+00
2.516326792199468976e+00
2.516326792199468976e+00
2.494201116977446731e+00
2.494201116977446731e+00
2.445262123477889293e+00
2.268819238868374111e+00
2.268819238868374111e+00
2.261506515701773079e+00
2.298070131534776017e+00
2.298070131534776017e+00
2.397448164311655194e+00
2.397448164311655194e+00
2.360884548478652700e+00
2.340258919034394314e+00
2.340258919034394314e+00
2.238068300424207457e+00
2.238068300424207457e+00
2.120127201147496088e+00
2.242380932035279439e+00
2.242380932035279439e+00
2.274631916257209951e+00
2.274631916257209951e+00
2.287194799645985377e+00
2.392948026978362286e+00
2.392948026978362286e+00
2.469637867366557771e+00
2.233193151646474028e+00
2.167753654591509704e+00
2.167753654591509704e+00
2.266194158757286470e+00
2.266194158757286470e+00
2.357321939756462204e+00
2.438511917477950597e+00
2.438511917477950597e+00
2.410386059144871140e+00
2.410386059144871140e+00
2.342883999145481511e+00
2.299007660145878429e+00
2.299007660145878429e+00
2.141127842036194995e+00
2.141127842036194995e+00
2.364447157200842309e+00
2.473387981810968306e+00
2.473387981810968306e+00
2.348884182256538722e+00
2.453887386700033701e+00
2.453887386700033701e+00
2.423698965422528495e+00
2.423698965422528495e+00
2.332196172978911797e+00
2.246506057924130939e+00
2.246506057924130939e+00
2.318883266701254442e+00
2.318883266701254442e+00
2.358071962645344577e+00
2.308382946256904766e+00
2.308382946256904766e+00
2.415636219367045978e+00
2.415636219367045978e+00
2.191754387035737217e+00
1.975372783593249304e+00
1.975372783593249304e+00
2.114502029480880285e+00
2.175253883480330774e+00
2.175253883480330774e+00
2.336508804589983779e+00
2.336508804589983779e+00
2.504888943144016888e+00
2.489513473921933784e+00
2.489513473921933784e+00
2.373634937589648164e+00
2.373634937589648164e+00
2.411323587755973996e+00
2.530014709921567295e+00
2.530014709921567295e+00
2.522139469588305261e+00
2.522139469588305261e+00
2.442074526200140649e+00
2.296007568590349823e+00
2.296007568590349823e+00
2.176003906369212704e+00
2.176003906369212704e+00
1.951747062593462978e+00
1.912745872371593547e+00
2.100064088869899592e+00
2.100064088869899592e+00
2.098001525925473842e+00
2.300132694479201767e+00
2.300132694479201767e+00
2.446199652088991705e+00
2.446199652088991705e+00
2.575391094698934680e+00
2.587391460921048658e+00
2.587391460921048658e+00
2.471700430310983521e+00
2.471700430310983521e+00
2.247068575090792386e+00
2.259818964201788294e+00
2.259818964201788294e+00
2.366697225867488541e+00
2.366697225867488541e+00
2.381322672200689716e+00
2.220255256813257638e+00
2.220255256813257638e+00
2.083751091036713632e+00
2.177503952146977007e+00
2.177503952146977007e+00
2.245006012146367080e+00
2.245006012146367080e+00
2.306695394756919981e+00
2.338946378978850937e+00
2.338946378978850937e+00
2.526827112643818651e+00
2.526827112643818651e+00
2.531514755699331598e+00
2.391072969756157018e+00
2.391072969756157018e+00
2.468137821588793912e+00
2.468137821588793912e+00
2.499076265755180604e+00
2.148253059480575100e+00
2.148253059480575100e+00
2.069313150425733383e+00
2.069313150425733383e+00
2.205817316202276945e+00
2.355634388256477418e+00
2.355634388256477418e+00
2.358446974089785542e+00
2.267131687368389326e+00
2.267131687368389326e+00
2.287569811090426342e+00
2.287569811090426342e+00
2.232818140202032620e+00
2.218005188146610962e+00
2.218005188146610962e+00
2.390697958311716054e+00
2.390697958311716054e+00
2.380760155034028269e+00
2.251568712424085295e+00
2.251568712424085295e+00
2.233568163090914993e+00
2.233568163090914993e+00
2.323383404034546906e+00
2.036499649037140980e+00
2.036499649037140980e+00
2.281569627979369130e+00
2.608017090365306601e+00
2.608017090365306601e+00
2.681706839197973480e+00
2.681706839197973480e+00
2.431199194311350009e+00
2.201317178868984037e+00
2.201317178868984037e+00
1.988873195593127363e+00
1.988873195593127363e+00
2.091251319925535146e+00
2.171316263313699757e+00
2.171316263313699757e+00
2.530952238532670151e+00
2.386572832422864110e+00
2.386572832422864110e+00
2.141690359202856442e+00
2.035374614703817642e+00
2.035374614703817642e+00
2.278382030701620931e+00
2.278382030701620931e+00
2.446574663533433114e+00
2.447512192144535526e+00
2.447512192144535526e+00
2.402885830256050514e+00
2.402885830256050514e+00
2.269194250312814631e+00
2.210317453535568966e+00
2.210317453535568966e+00
2.309132969145787140e+00
2.309132969145787140e+00
2.337258827478866152e+00
2.361072054200873183e+00
2.361072054200873183e+00
2.282132145146031021e+00
2.282132145146031021e+00
2.396510635700552783e+00
2.485200842310861358e+00
2.485200842310861358e+00
2.381885189367351607e+00
2.288694845423749680e+00
2.288694845423749680e+00
2.156690816980498582e+00
2.156690816980498582e+00
2.258693929868464956e+00
2.250443678090761956e+00
2.250443678090761956e+00
2.123314798425245176e+00
2.123314798425245176e+00
2.395760612811670409e+00
2.505076448866237371e+00
2.505076448866237371e+00
2.380760155034028269e+00
2.380760155034028269e+00
2.275194433423871843e+00
2.439074434644612044e+00
2.439074434644612044e+00
2.402698324533829588e+00
2.402698324533829588e+00
2.371572374645222414e+00
2.296007568590349823e+00
2.296007568590349823e+00
2.276881984923856628e+00
2.228318002868740155e+00
2.228318002868740155e+00
2.213880062257759462e+00
2.213880062257759462e+00
2.210879970702230857e+00
2.087126194036683202e+00
2.087126194036683202e+00
2.179379009369182274e+00
2.179379009369182274e+00
2.179003997924741309e+00
2.286632282479323930e+00
2.286632282479323930e+00
2.321508346812341639e+00
2.321508346812341639e+00
2.441699514755699685e+00
2.459137546922208095e+00
2.484263313699758946e+00
2.484263313699758946e+00
2.391072969756157018e+00
2.391072969756157018e+00
2.327321024201178368e+00
2.288319833979308715e+00
2.288319833979308715e+00
2.195316995757927270e+00
2.195316995757927270e+00
2.139065279091769245e+00
2.221005279702139568e+00
2.221005279702139568e+00
2.306882900479140464e+00
2.269944273201696561e+00
2.269944273201696561e+00
2.291132419812616394e+00
2.291132419812616394e+00
2.278757042146061895e+00
2.360134525589770327e+00
2.360134525589770327e+00
2.588141483809930588e+00
2.588141483809930588e+00
2.576516129032258018e+00
2.274444410534989469e+00
2.274444410534989469e+00
2.269381756035035114e+00
2.269381756035035114e+00
2.224942899868770141e+00
2.262256538590655452e+00
2.262256538590655452e+00
2.408323496200445835e+00
2.408323496200445835e+00
2.477325601977599767e+00
2.380572649311807787e+00
2.380572649311807787e+00
2.240880886257515137e+00
2.268069215979491737e+00
2.268069215979491737e+00
2.185566698202459968e+00
2.185566698202459968e+00
2.338946378978850937e+00
2.249506149479659545e+00
2.249506149479659545e+00
2.358446974089785542e+00
2.358446974089785542e+00
2.161753471480452937e+00
2.173753837702566916e+00
2.173753837702566916e+00
2.317570726645710621e+00
2.317570726645710621e+00
2.418636310922574584e+00
2.313820612201300086e+00
2.313820612201300086e+00
2.186691732535783306e+00
2.186691732535783306e+00
2.183129123813593253e+00
2.276319467757194737e+00
2.276319467757194737e+00
2.259631458479567812e+00
2.338196356089969008e+00
2.338196356089969008e+00
2.301257728812525105e+00
2.301257728812525105e+00
2.396135624256111374e+00
2.440386974700155864e+00
2.440386974700155864e+00
2.477700613422040732e+00
2.288319833979308715e+00
2.214817590868861874e+00
2.264881618701742649e+00
2.264881618701742649e+00
2.283444685201574842e+00
2.283444685201574842e+00
2.301820245979186552e+00
2.368947294534135217e+00
2.368947294534135217e+00
2.420323862422559369e+00
2.420323862422559369e+00
2.502826380199591139e+00
2.321883358256782603e+00
2.321883358256782603e+00
2.229443037202063049e+00
2.229443037202063049e+00
2.151815668202764709e+00
2.196442030091250608e+00
2.196442030091250608e+00
2.374384960478530537e+00
2.374384960478530537e+00
2.400073244422742391e+00
2.354509353923154524e+00
2.354509353923154524e+00
2.410011047700430176e+00
2.329196081423383191e+00
2.329196081423383191e+00
2.304257820368053267e+00
2.304257820368053267e+00
2.318508255256813033e+00
2.318133243812372069e+00
2.318133243812372069e+00
2.269944273201696561e+00
2.269944273201696561e+00
2.176941434980315559e+00
2.165128574480422063e+00
2.165128574480422063e+00
2.324695944090090727e+00
2.324695944090090727e+00
2.273694387646107540e+00
2.329758598590044638e+00
2.329758598590044638e+00
2.398760704367198571e+00
2.314570635090182460e+00
2.314570635090182460e+00
2.145440473647266977e+00
2.145440473647266977e+00
2.239568346201971760e+00
2.409261024811548246e+00
2.409261024811548246e+00
2.463262672811060039e+00
2.463262672811060039e+00
2.383760246589556875e+00
2.343821527756584366e+00
2.343821527756584366e+00
2.306695394756919981e+00
2.306695394756919981e+00
2.176191412091433186e+00
2.131002533036286284e+00
2.131002533036286284e+00
2.155565782647175688e+00
2.155565782647175688e+00
2.268444227423932702e+00
2.398385692922757606e+00
2.398385692922757606e+00
2.446387157811212187e+00
2.415448713644825496e+00
2.415448713644825496e+00
2.408698507644886799e+00
2.397448164311655194e+00
2.397448164311655194e+00
2.441512009033478758e+00
2.441512009033478758e+00
2.357321939756462204e+00
2.225692922757652514e+00
2.225692922757652514e+00
2.247443586535233351e+00
2.247443586535233351e+00
2.295820062868129341e+00
2.283632190923795324e+00
2.283632190923795324e+00
2.280444593646046680e+00
2.402885830256050514e+00
2.402885830256050514e+00
2.467575304422132465e+00
2.467575304422132465e+00
2.435699331644642474e+00
2.352821802423169739e+00
2.352821802423169739e+00
2.289257362590411127e+00
2.289257362590411127e+00
2.254943815424054865e+00
2.120127201147496088e+00
2.120127201147496088e+00
2.117689626758628929e+00
2.117689626758628929e+00
2.247631092257453833e+00
2.302570268868068482e+00
2.302570268868068482e+00
2.351134250923184954e+00
2.351134250923184954e+00
2.324320932645649762e+00
2.229443037202063049e+00
2.229443037202063049e+00
2.168878688924833043e+00
2.168878688924833043e+00
2.231130588702047834e+00
2.368572283089693808e+00
2.368572283089693808e+00
2.468137821588793912e+00
2.468137821588793912e+00
2.451824823755607952e+00
2.385072786645100695e+00
2.385072786645100695e+00
2.308007934812463802e+00
2.280819605090487201e+00
2.280819605090487201e+00
2.267319193090609808e+00
2.267319193090609808e+00
2.361634571367534630e+00
2.372697408978545752e+00
2.372697408978545752e+00
2.367822260200811879e+00
2.367822260200811879e+00
2.349071687978759204e+00
2.377010040589617734e+00
2.377010040589617734e+00
2.385260292367321178e+00
2.385260292367321178e+00
2.256443861201819168e+00
2.206942350535599839e+00
2.206942350535599839e+00
2.209192419202246516e+00
2.277444502090518075e+00
2.277444502090518075e+00
2.385260292367321178e+00
2.262631550035096417e+00
2.262631550035096417e+00
2.215755119479964730e+00
2.289069856868190644e+00
2.289069856868190644e+00
2.321508346812341639e+00
2.363322122867518971e+00
2.363322122867518971e+00
2.363322122867518971e+00
2.363322122867518971e+00
2.352071779534287366e+00
2.406448438978240567e+00
2.406448438978240567e+00
2.384135258033997840e+00
2.384135258033997840e+00
2.361072054200873183e+00
2.351696768089846401e+00
2.351696768089846401e+00
2.250068666646320992e+00
2.250068666646320992e+00
2.177128940702536042e+00
2.269944273201696561e+00
2.269944273201696561e+00
2.403260841700491479e+00
2.403260841700491479e+00
2.374009949034089573e+00
2.351884273812066883e+00
2.351884273812066883e+00
2.256068849757378203e+00
2.256068849757378203e+00
2.212005005035553751e+00
2.199067110202337361e+00
2.199067110202337361e+00
2.260943998535111632e+00
2.254756309701834383e+00
2.254756309701834383e+00
2.371197363200781449e+00
2.371197363200781449e+00
2.401010773033844803e+00
2.374759971922971058e+00
2.374759971922971058e+00
2.404198370311593891e+00
2.404198370311593891e+00
2.391447981200597983e+00
2.297695120090334608e+00
2.297695120090334608e+00
2.281382122257148648e+00
2.281382122257148648e+00
2.286257271034882521e+00
2.239380840479750834e+00
2.239380840479750834e+00
2.236005737479781263e+00
2.236005737479781263e+00
2.206004821924497428e+00
2.212192510757774677e+00
2.212192510757774677e+00
2.373634937589648164e+00
2.392385509811700839e+00
2.392385509811700839e+00
2.346821619312112972e+00
2.365572191534165203e+00
2.365572191534165203e+00
2.370634846034120002e+00
2.364634662923062791e+00
2.364634662923062791e+00
2.314945646534623425e+00
2.454074892422254184e+00
2.454074892422254184e+00
2.511451643421735547e+00
2.511451643421735547e+00
2.453512375255592737e+00
2.383947752311777357e+00
2.383947752311777357e+00
2.190816858424634361e+00
2.007811273537400520e+00
2.007811273537400520e+00
2.036312143314920498e+00
2.036312143314920498e+00
2.205817316202276945e+00
2.278569536423841413e+00
2.278569536423841413e+00
2.313445600756859122e+00
2.313445600756859122e+00
2.420886379589221260e+00
2.410011047700430176e+00
2.410011047700430176e+00
2.349071687978759204e+00
2.349071687978759204e+00
2.353759331034272151e+00
2.351134250923184954e+00
2.351134250923184954e+00
2.285132236701559627e+00
2.285132236701559627e+00
2.256818872646260132e+00
2.291882442701498768e+00
2.291882442701498768e+00
2.265819147312845505e+00
2.271256813257240381e+00
2.271256813257240381e+00
2.260943998535111632e+00
2.260943998535111632e+00
2.296945097201452679e+00
2.386572832422864110e+00
2.386572832422864110e+00
2.366322214423047576e+00
2.366322214423047576e+00
2.380385143589587305e+00
2.361259559923093665e+00
2.361259559923093665e+00
2.372134891811884305e+00
2.372134891811884305e+00
2.368384777367473326e+00
2.280444593646046680e+00
2.280444593646046680e+00
2.268256721701712220e+00
2.268256721701712220e+00
2.270881801812799416e+00
2.281944639423810539e+00
2.281944639423810539e+00
2.315133152256843907e+00
2.301257728812525105e+00
2.301257728812525105e+00
2.343446516312143402e+00
2.343446516312143402e+00
2.359384502700888397e+00
2.320570818201239227e+00
2.320570818201239227e+00
2.350946745200964472e+00
2.350946745200964472e+00
2.367447248756370914e+00
2.336133793145542814e+00
2.281569627979369130e+00
2.281757133701590057e+00
2.305195348979155678e+00
2.305195348979155678e+00
2.306695394756919981e+00
2.306695394756919981e+00
2.330508621478927012e+00
2.403073335978270997e+00
2.403073335978270997e+00
2.328071047090059853e+00
2.290757408368175430e+00
2.290757408368175430e+00
2.269006744590594149e+00
2.269006744590594149e+00
2.227942991424298746e+00
2.260006469924008776e+00
2.260006469924008776e+00
2.334821253089998994e+00
2.334821253089998994e+00
2.320195806756797818e+00
2.337446333201086635e+00
2.337446333201086635e+00
2.278194524979400004e+00
2.278194524979400004e+00
2.240505874813074172e+00
2.231318094424268317e+00
2.231318094424268317e+00
2.258131412701803509e+00
2.297882625812555535e+00
2.297882625812555535e+00
2.316445692312387283e+00
2.316445692312387283e+00
2.395010589922788480e+00
2.414136173589282119e+00
2.414136173589282119e+00
2.409636036255989211e+00
2.409636036255989211e+00
2.417511276589251690e+00
2.390510452589495571e+00
2.390510452589495571e+00
2.300132694479201767e+00
2.300132694479201767e+00
2.251006195257423848e+00
2.259443952757347329e+00
2.259443952757347329e+00
2.273506881923887057e+00
2.247631092257453833e+00
2.247631092257453833e+00
2.244631000701926116e+00
2.244631000701926116e+00
2.263944090090640238e+00
2.332008667256691314e+00
2.332008667256691314e+00
2.296945097201452679e+00
2.296945097201452679e+00
2.275944456312753772e+00
2.323945921201208797e+00
2.323945921201208797e+00
2.368197271645252844e+00
2.368197271645252844e+00
2.279132053590502860e+00
2.264131595812860720e+00
2.264131595812860720e+00
2.280819605090487201e+00
2.280819605090487201e+00
2.254568803979613900e+00
2.270131778923917043e+00
2.284944730979339145e+00
2.284944730979339145e+00
2.343259010589922919e+00
2.343259010589922919e+00
2.368947294534135217e+00
2.338383861812189490e+00
2.338383861812189490e+00
2.298632648701437464e+00
2.298632648701437464e+00
2.275944456312753772e+00
2.292444959868159771e+00
2.292444959868159771e+00
2.333321207312235135e+00
2.333321207312235135e+00
2.327133518478957885e+00
2.360322031311990809e+00
2.360322031311990809e+00
2.389760429700613198e+00
2.328633564256721744e+00
2.328633564256721744e+00
2.284757225257118218e+00
2.284757225257118218e+00
2.287569811090426342e+00
2.264694112979522167e+00
2.264694112979522167e+00
2.242005920590838475e+00
2.242005920590838475e+00
2.257943906979583026e+00
2.267319193090609808e+00
2.267319193090609808e+00
2.264694112979522167e+00
2.264694112979522167e+00
2.324695944090090727e+00
2.371384868923001932e+00
2.371384868923001932e+00
2.445824640644550740e+00
2.409448530533769173e+00
2.409448530533769173e+00
2.333508713034455617e+00
2.333508713034455617e+00
2.326758507034516477e+00
2.233380657368694511e+00
2.233380657368694511e+00
2.241630909146397510e+00
2.241630909146397510e+00
2.288319833979308715e+00
2.321508346812341639e+00
2.321508346812341639e+00
2.345509079256569152e+00
2.345509079256569152e+00
2.287569811090426342e+00
2.267694204535050773e+00
2.267694204535050773e+00
2.261506515701773079e+00
2.282132145146031021e+00
2.282132145146031021e+00
2.330696127201147494e+00
2.330696127201147494e+00
2.377197546311838217e+00
2.409636036255989211e+00
2.409636036255989211e+00
2.455012421033357040e+00
2.455012421033357040e+00
2.422761436811426083e+00
2.315508163701284872e+00
2.315508163701284872e+00
2.300320200201422249e+00
2.289257362590411127e+00
2.221567796868801015e+00
2.221567796868801015e+00
2.227942991424298746e+00
2.206942350535599839e+00
2.206942350535599839e+00
2.207317361980041248e+00
2.207317361980041248e+00
2.207692373424482213e+00
2.336133793145542814e+00
2.336133793145542814e+00
2.369884823145237629e+00
2.369884823145237629e+00
2.315133152256843907e+00
2.316445692312387283e+00
2.316445692312387283e+00
2.355259376812036454e+00
2.349071687978759204e+00
2.349071687978759204e+00
2.307445417645802355e+00
2.307445417645802355e+00
2.315695669423505798e+00
2.340446424756614796e+00
2.340446424756614796e+00
2.342133976256599581e+00
2.342133976256599581e+00
2.330883632923367976e+00
2.267881710257271255e+00
2.267881710257271255e+00
2.258131412701803509e+00
2.258131412701803509e+00
2.242380932035279439e+00
2.256256355479598685e+00
2.256256355479598685e+00
2.311758049256874337e+00
2.311758049256874337e+00
2.349446699423200169e+00
2.400260750144962874e+00
2.400260750144962874e+00
2.419386333811456957e+00
2.398198187200537124e+00
2.398198187200537124e+00
2.391635486922818910e+00
2.391635486922818910e+00
2.344571550645466296e+00
2.296570085757011714e+00
2.296570085757011714e+00
2.317195715201269657e+00
2.317195715201269657e+00
2.232068117313150690e+00
2.167378643147068740e+00
2.167378643147068740e+00
2.229630542924283532e+00
2.229630542924283532e+00
2.216130130924405695e+00
2.233380657368694511e+00
2.233380657368694511e+00
2.274069399090548504e+00
2.300695211645863214e+00
2.300695211645863214e+00
2.393698049867244659e+00
2.393698049867244659e+00
2.414511185033723084e+00
2.339508896145511940e+00
2.339508896145511940e+00
2.366697225867488541e+00
2.308945463423566213e+00
2.308945463423566213e+00
2.257006378368480615e+00
2.257006378368480615e+00
2.328633564256721744e+00
2.334071230201117064e+00
2.334071230201117064e+00
2.337071321756645670e+00
2.330696127201147494e+00
2.330696127201147494e+00
2.283819696646015807e+00
2.283819696646015807e+00
2.288319833979308715e+00
2.278194524979400004e+00
2.278194524979400004e+00
2.295820062868129341e+00
2.295820062868129341e+00
2.362947111423078006e+00
2.353384319589831186e+00
2.353384319589831186e+00
2.335758781701101849e+00
2.335758781701101849e+00
2.338196356089969008e+00
2.292257454145939732e+00
2.292257454145939732e+00
2.243505966368602778e+00
2.243505966368602778e+00
2.231318094424268317e+00
2.173003814813684542e+00
2.173003814813684542e+00
2.222505325479903426e+00
2.273694387646107540e+00
2.273694387646107540e+00
2.370072328867458111e+00
2.370072328867458111e+00
2.454074892422254184e+00
2.483888302255317981e+00
2.483888302255317981e+00
2.487825922421948999e+00
2.487825922421948999e+00
2.433449262977995797e+00
2.269756767479476078e+00
2.269756767479476078e+00
2.188191778313547164e+00
2.188191778313547164e+00
2.191754387035737217e+00
2.234880703146458369e+00
2.234880703146458369e+00
2.309320474868007622e+00
2.309320474868007622e+00
2.339508896145511940e+00
2.336696310312204705e+00
2.336696310312204705e+00
2.327883541367839371e+00
2.270319284646137969e+00
2.270319284646137969e+00
2.208442396313364142e+00
2.208442396313364142e+00
2.241630909146397510e+00
2.300507705923642732e+00
2.300507705923642732e+00
2.319258278145695407e+00
2.319258278145695407e+00
2.332758690145573244e+00
2.324695944090090727e+00
2.324695944090090727e+00
2.298632648701437464e+00
2.298632648701437464e+00
2.311195532090212890e+00
2.330321115756706529e+00
2.330321115756706529e+00
2.360697042756431774e+00
2.360697042756431774e+00
2.353946836756492633e+00
2.354696859645375007e+00
2.354696859645375007e+00
2.327321024201178368e+00
2.327321024201178368e+00
2.271069307535019899e+00
2.236380748924222672e+00
2.236380748924222672e+00
2.245381023590808045e+00
2.245381023590808045e+00
2.262819055757316900e+00
2.284757225257118218e+00
2.284757225257118218e+00
2.297882625812555535e+00
2.343071504867702437e+00
2.327133518478957885e+00
2.332008667256691314e+00
2.332008667256691314e+00
2.325820978423414065e+00
2.325820978423414065e+00
2.290944914090395912e+00
2.304632831812494231e+00
2.304632831812494231e+00
2.296570085757011714e+00
2.296570085757011714e+00
2.285319742423780109e+00
2.306132877590258534e+00
2.306132877590258534e+00
2.316258186590166801e+00
2.316258186590166801e+00
2.302945280312509890e+00
2.312320566423536228e+00
2.312320566423536228e+00
2.319820795312356854e+00
2.319820795312356854e+00
2.322633381145664977e+00
2.336321298867763296e+00
2.336321298867763296e+00
2.284194708090456771e+00
2.285694753868221074e+00
2.285694753868221074e+00
2.286444776757103448e+00
2.286444776757103448e+00
2.291319925534837321e+00
2.312133060701315301e+00
2.312133060701315301e+00
2.281194616534928166e+00
2.281194616534928166e+00
2.284569719534897736e+00
2.314195623645741495e+00
2.314195623645741495e+00
2.346634113589892490e+00
2.346634113589892490e+00
2.317758232367931104e+00
2.330508621478927012e+00
2.330508621478927012e+00
2.323570909756767389e+00
2.323570909756767389e+00
2.327133518478957885e+00
2.318695760979033516e+00
2.318695760979033516e+00
2.330508621478927012e+00
2.326383495590075512e+00
2.326383495590075512e+00
2.329008575701162709e+00
2.329008575701162709e+00
2.315508163701284872e+00
2.283444685201574842e+00
2.283444685201574842e+00
2.196067018646809643e+00
2.193254432813501520e+00
2.193254432813501520e+00
2.266194158757286470e+00
2.266194158757286470e+00
2.305382854701376161e+00
2.339508896145511940e+00
2.339508896145511940e+00
2.371572374645222414e+00
2.371572374645222414e+00
2.348509170812097757e+00
2.343071504867702437e+00
2.343071504867702437e+00
2.301632740256966070e+00
2.301632740256966070e+00
2.272756859035004684e+00
2.309320474868007622e+00
2.309320474868007622e+00
2.311008026367992407e+00
2.311008026367992407e+00
2.309695486312448587e+00
2.291132419812616394e+00
2.291132419812616394e+00
2.272194341868343237e+00
2.272194341868343237e+00
2.298445142979216982e+00
2.338571367534409973e+00
2.338571367534409973e+00
2.308007934812463802e+00
2.355821893978697901e+00
2.355821893978697901e+00
2.368759788811914291e+00
2.368759788811914291e+00
2.346259102145451525e+00
2.335008758812219920e+00
2.335008758812219920e+00
2.299195165868098911e+00
2.299195165868098911e+00
2.284007202368236289e+00
2.281944639423810539e+00
2.281944639423810539e+00
2.265256630146183614e+00
2.265256630146183614e+00
2.245381023590808045e+00
2.204317270424512643e+00
2.204317270424512643e+00
2.171503769035920239e+00
2.171503769035920239e+00
2.268069215979491737e+00
2.369134800256355700e+00
2.369134800256355700e+00
2.395198095645008962e+00
2.394635578478347071e+00
2.394635578478347071e+00
2.364259651478621826e+00
2.364259651478621826e+00
2.363134617145298488e+00
2.353196813867610704e+00
2.353196813867610704e+00
2.249693655201880027e+00
2.249693655201880027e+00
2.223255348368785356e+00
2.223255348368785356e+00
2.196067018646809643e+00
2.207879879146702695e+00
2.207879879146702695e+00
2.206004821924497428e+00
2.226442945646534444e+00
2.226442945646534444e+00
2.318320749534592551e+00
2.318320749534592551e+00
2.361259559923093665e+00
2.380572649311807787e+00
2.380572649311807787e+00
2.404198370311593891e+00
2.404198370311593891e+00
2.358446974089785542e+00
2.355634388256477418e+00
2.355634388256477418e+00
2.320945829645680192e+00
2.320945829645680192e+00
2.284382213812677254e+00
2.304445326090273749e+00
2.304445326090273749e+00
2.282882168034912951e+00
2.282882168034912951e+00
2.275944456312753772e+00
2.272569353312784202e+00
2.272569353312784202e+00
2.262256538590655452e+00
2.287569811090426342e+00
2.287569811090426342e+00
2.327321024201178368e+00
2.327321024201178368e+00
2.324883449812311209e+00
2.357509445478682686e+00
2.357509445478682686e+00
2.352821802423169739e+00
2.352821802423169739e+00
2.320758323923459709e+00
2.332758690145573244e+00
2.332758690145573244e+00
2.312695577867977192e+00
2.312695577867977192e+00
2.288882351145970162e+00
2.303507797479171337e+00
2.303507797479171337e+00
2.273131870479445649e+00
2.273131870479445649e+00
2.250631183812982439e+00
2.234505691702016961e+00
2.234505691702016961e+00
2.245193517868587563e+00
2.305945371868038052e+00
2.305945371868038052e+00
2.350384228034303025e+00
2.350384228034303025e+00
2.368009765923032361e+00
2.384697775200659287e+00
2.384697775200659287e+00
2.340258919034394314e+00
2.340258919034394314e+00
2.323383404034546906e+00
2.335196264534440402e+00
2.335196264534440402e+00
2.310070497756889552e+00
2.310070497756889552e+00
2.258506424146244473e+00
2.246506057924130939e+00
2.246506057924130939e+00
2.257193884090700653e+00
2.252506241035188150e+00
2.252506241035188150e+00
2.233568163090914993e+00
2.233568163090914993e+00
2.221755302591021497e+00
2.304632831812494231e+00
2.304632831812494231e+00
2.355071871089815971e+00
2.355071871089815971e+00
2.363509628589739453e+00
2.401385784478286212e+00
2.401385784478286212e+00
2.383572740867336393e+00
2.383572740867336393e+00
2.364259651478621826e+00
2.358821985534226506e+00
2.358821985534226506e+00
2.315508163701284872e+00
2.315508163701284872e+00
2.287382305368205859e+00
2.266569170201727434e+00
2.266569170201727434e+00
2.261694021423993561e+00
2.248943632312997654e+00
2.248943632312997654e+00
2.228505508590960638e+00
2.228505508590960638e+00
2.269944273201696561e+00
2.328258552812280335e+00
2.328258552812280335e+00
2.337633838923307117e+00
2.337633838923307117e+00
2.360509537034211291e+00
2.413948667867061193e+00
2.413948667867061193e+00
2.398385692922757606e+00
2.398385692922757606e+00
2.372509903256325270e+00
2.311383037812433372e+00
2.311383037812433372e+00
2.271631824701681346e+00
2.271631824701681346e+00
2.255693838312936794e+00
2.184816675313578038e+00
2.184816675313578038e+00
2.158190862758262885e+00
2.170191228980376863e+00
2.170191228980376863e+00
2.176191412091433186e+00
2.176191412091433186e+00
2.236005737479781263e+00
2.277256996368297592e+00
2.277256996368297592e+00
2.297695120090334608e+00
2.297695120090334608e+00
2.369322305978576182e+00
2.373822443311869090e+00
2.373822443311869090e+00
2.368572283089693808e+00
2.368572283089693808e+00
2.371947386089663379e+00
2.343821527756584366e+00
2.331258644367808941e+00
2.309132969145787140e+00
2.270319284646137969e+00
2.270319284646137969e+00
2.272569353312784202e+00
2.272569353312784202e+00
2.228693014313181120e+00
2.210692464980010374e+00
2.210692464980010374e+00
2.268256721701712220e+00
2.268256721701712220e+00
2.298820154423657947e+00
2.349259193700979687e+00
2.349259193700979687e+00
2.393510544145024177e+00
2.393510544145024177e+00
2.376447523422955843e+00
2.350571733756523507e+00
2.350571733756523507e+00
2.339883907589953349e+00
2.313445600756859122e+00
2.313445600756859122e+00
2.303320291756950855e+00
2.303320291756950855e+00
2.296195074312570750e+00
2.289819879757073018e+00
2.289819879757073018e+00
2.288132328257088233e+00
2.288132328257088233e+00
2.247256080813012868e+00
2.267131687368389326e+00
2.267131687368389326e+00
2.329383587145603673e+00
2.329383587145603673e+00
2.349259193700979687e+00
2.376260017700735361e+00
2.376260017700735361e+00
2.395573107089449927e+00
2.395573107089449927e+00
2.341383953367717208e+00
2.287007293923764895e+00
2.287007293923764895e+00
2.270881801812799416e+00
2.270881801812799416e+00
2.269194250312814631e+00
2.277256996368297592e+00
2.277256996368297592e+00
2.270131778923917043e+00
2.291319925534837321e+00
2.291319925534837321e+00
2.305757866145817125e+00
2.305757866145817125e+00
2.261881527146214044e+00
2.257006378368480615e+00
2.257006378368480615e+00
2.330508621478927012e+00
2.330508621478927012e+00
2.360509537034211291e+00
2.369509811700796664e+00
2.369509811700796664e+00
2.363509628589739453e+00
2.363509628589739453e+00
2.352259285256507848e+00
2.341571459089938134e+00
2.341571459089938134e+00
2.323945921201208797e+00
2.288882351145970162e+00
2.288882351145970162e+00
2.262444044312875935e+00
2.262444044312875935e+00
2.255693838312936794e+00
2.258131412701803509e+00
2.258131412701803509e+00
2.249693655201880027e+00
2.249693655201880027e+00
2.260756492812891150e+00
2.314570635090182460e+00
2.314570635090182460e+00
2.341008941923276243e+00
2.341008941923276243e+00
2.344571550645466296e+00
2.379635120700704931e+00
2.379635120700704931e+00
2.389760429700613198e+00
2.389760429700613198e+00
2.372697408978545752e+00
2.366509720145268059e+00
2.366509720145268059e+00
2.324695944090090727e+00
2.293757499923703591e+00
2.293757499923703591e+00
2.256818872646260132e+00
2.256818872646260132e+00
2.255318826868495830e+00
2.265631641590625023e+00
2.265631641590625023e+00
2.241630909146397510e+00
2.241630909146397510e+00
2.245381023590808045e+00
2.281382122257148648e+00
2.281382122257148648e+00
2.308007934812463802e+00
2.308007934812463802e+00
2.335946287423322332e+00
2.350196722312082542e+00
2.350196722312082542e+00
2.316070680867946319e+00
2.316070680867946319e+00
2.323383404034546906e+00
2.335196264534440402e+00
2.335196264534440402e+00
2.311383037812433372e+00
2.304070314645832784e+00
2.304070314645832784e+00
2.278382030701620931e+00
2.278382030701620931e+00
2.264131595812860720e+00
2.263756584368419311e+00
2.263756584368419311e+00
2.263194067201757864e+00
2.263194067201757864e+00
2.310445509201330516e+00
2.351321756645405436e+00
2.351321756645405436e+00
2.360134525589770327e+00
2.360134525589770327e+00
2.392385509811700839e+00
2.404760887478255782e+00
2.404760887478255782e+00
2.348134159367656792e+00
2.348134159367656792e+00
2.341571459089938134e+00
2.333321207312235135e+00
2.333321207312235135e+00
2.299195165868098911e+00
2.278007019257179522e+00
2.278194524979400004e+00
2.278194524979400004e+00
2.257943906979583026e+00
2.219130222479934300e+00
2.219130222479934300e+00
2.250818689535202921e+00
2.250818689535202921e+00
2.303695303201391820e+00
2.334446241645558029e+00
2.334446241645558029e+00
2.346446607867672007e+00
2.346446607867672007e+00
2.348884182256538722e+00
2.303507797479171337e+00
2.303507797479171337e+00
2.322633381145664977e+00
2.317008209479048730e+00
2.317008209479048730e+00
2.291507431257057803e+00
2.291507431257057803e+00
2.288132328257088233e+00
2.275756950590533290e+00
2.275756950590533290e+00
2.272944364757225166e+00
2.272944364757225166e+00
2.260756492812891150e+00
2.258693929868464956e+00
2.258693929868464956e+00
2.310633014923550999e+00
2.310633014923550999e+00
2.335008758812219920e+00
2.361259559923093665e+00
2.361259559923093665e+00
2.390322946867275089e+00
2.390322946867275089e+00
2.378135074922940628e+00
2.328071047090059853e+00
2.328071047090059853e+00
2.299570177312540320e+00
2.301257728812525105e+00
2.301257728812525105e+00
2.314945646534623425e+00
2.314945646534623425e+00
2.305570360423596643e+00
2.284194708090456771e+00
2.284194708090456771e+00
2.260756492812891150e+00
2.260756492812891150e+00
2.226255439924313961e+00
2.248756126590777171e+00
2.248756126590777171e+00
2.320195806756797818e+00
2.320195806756797818e+00
2.346071596423230599e+00
2.373447431867427682e+00
2.373447431867427682e+00
2.390135441145054607e+00
2.365197180089724238e+00
2.365197180089724238e+00
2.338196356089969008e+00
2.331633655812249906e+00
2.331633655812249906e+00
2.299195165868098911e+00
2.275381939146092325e+00
2.275381939146092325e+00
2.272006836146122755e+00
2.258318918424023991e+00
2.258318918424023991e+00
2.250443678090761956e+00
2.250443678090761956e+00
2.229630542924283532e+00
2.249131138035218136e+00
2.249131138035218136e+00
2.297882625812555535e+00
2.297882625812555535e+00
2.327883541367839371e+00
2.375509994811853431e+00
2.375509994811853431e+00
2.398010681478316641e+00
2.359009491256446989e+00
2.359009491256446989e+00
2.356946928312021239e+00
2.356946928312021239e+00
2.332571184423352761e+00
2.313633106479079604e+00
2.313633106479079604e+00
2.314008117923521013e+00
2.314008117923521013e+00
2.298445142979216982e+00
2.285507248146000592e+00
2.285507248146000592e+00
2.235068208868678852e+00
2.235068208868678852e+00
2.220067751091036712e+00
2.271256813257240381e+00
2.271256813257240381e+00
2.293569994201483109e+00
2.293569994201483109e+00
2.314945646534623425e+00
2.373822443311869090e+00
2.373822443311869090e+00
2.353571825312051669e+00
2.314570635090182460e+00
2.314570635090182460e+00
2.313820612201300086e+00
2.313820612201300086e+00
2.306132877590258534e+00
2.287194799645985377e+00
2.287194799645985377e+00
2.258881435590685438e+00
2.258881435590685438e+00
2.240505874813074172e+00
2.253818781090731527e+00
2.253818781090731527e+00
2.252881252479629115e+00
2.252881252479629115e+00
2.265444135868404540e+00
2.319633289590136371e+00
2.319633289590136371e+00
2.344759056367687222e+00
2.374009949034089573e+00
2.374009949034089573e+00
2.401573290200506694e+00
2.401573290200506694e+00
2.372134891811884305e+00
2.355071871089815971e+00
2.355071871089815971e+00
2.378697592089602519e+00
2.378697592089602519e+00
2.347384136478774419e+00
2.303132786034730373e+00
2.274819421979430434e+00
2.258131412701803509e+00
2.258131412701803509e+00
2.232068117313150690e+00
2.232068117313150690e+00
2.192316904202398664e+00
2.205442304757835537e+00
2.205442304757835537e+00
2.269194250312814631e+00
2.269194250312814631e+00
2.327696035645618888e+00
2.366697225867488541e+00
2.366697225867488541e+00
2.394448072756126589e+00
2.394448072756126589e+00
2.351321756645405436e+00
2.335008758812219920e+00
2.335008758812219920e+00
2.320570818201239227e+00
2.286069765312662039e+00
2.286069765312662039e+00
2.263569078646198829e+00
2.263569078646198829e+00
2.244255989257484707e+00
2.259256447035126847e+00
2.259256447035126847e+00
2.261319009979552597e+00
2.261319009979552597e+00
2.249318643757439062e+00
2.290944914090395912e+00
2.290944914090395912e+00
2.331071138645588459e+00
2.331071138645588459e+00
2.353009308145390222e+00
2.389572923978392716e+00
2.389572923978392716e+00
2.374384960478530537e+00
2.374384960478530537e+00
2.325633472701193583e+00
2.331071138645588459e+00
2.331071138645588459e+00
2.325258461256752618e+00
2.325258461256752618e+00
2.293007477034821662e+00
2.289444868312631609e+00
2.289444868312631609e+00
2.276694479201635701e+00
2.273319376201666131e+00
2.273319376201666131e+00
2.242005920590838475e+00
2.242005920590838475e+00
2.235818231757560781e+00
2.294507522812585520e+00
2.294507522812585520e+00
2.331633655812249906e+00
2.331633655812249906e+00
2.345134067812128187e+00
2.380572649311807787e+00
2.380572649311807787e+00
2.359947019867549844e+00
2.359947019867549844e+00
2.308757957701345731e+00
2.327133518478957885e+00
2.327133518478957885e+00
2.314758140812402942e+00
2.314758140812402942e+00
2.287569811090426342e+00
2.286819788201544412e+00
2.286819788201544412e+00
2.271819330423901828e+00
2.271444318979460864e+00
2.271444318979460864e+00
2.238443311868648422e+00
2.238443311868648422e+00
2.242943449201941331e+00
2.291319925534837321e+00
2.291319925534837321e+00
2.324695944090090727e+00
2.324695944090090727e+00
2.363322122867518971e+00
2.387510361033966966e+00
2.387510361033966966e+00
2.363322122867518971e+00
2.363322122867518971e+00
2.344946562089907705e+00
2.335571275978881367e+00
2.335571275978881367e+00
2.307070406201360946e+00
2.307070406201360946e+00
2.287757316812646824e+00
2.274631916257209951e+00
2.274631916257209951e+00
2.259443952757347329e+00
2.257756401257362544e+00
2.257756401257362544e+00
2.233193151646474028e+00
2.233193151646474028e+00
2.263194067201757864e+00
2.319633289590136371e+00
2.319633289590136371e+00
2.334821253089998994e+00
2.334821253089998994e+00
2.377760063478499664e+00
2.387510361033966966e+00
2.387510361033966966e+00
2.344759056367687222e+00
2.344759056367687222e+00
2.324883449812311209e+00
2.315695669423505798e+00
2.315695669423505798e+00
2.297320108645893644e+00
2.297320108645893644e+00
2.286444776757103448e+00
2.260381481368449741e+00
2.260381481368449741e+00
2.250818689535202921e+00
2.250818689535202921e+00
2.228505508590960638e+00
2.216317636646626177e+00
2.216317636646626177e+00
2.254193792535172935e+00
2.306320383312479017e+00
2.306320383312479017e+00
2.337633838923307117e+00
2.337633838923307117e+00
2.383947752311777357e+00
2.384697775200659287e+00
2.384697775200659287e+00
2.337633838923307117e+00
2.337633838923307117e+00
2.339696401867732423e+00
2.317570726645710621e+00
2.317570726645710621e+00
2.291507431257057803e+00
2.260756492812891150e+00
2.260756492812891150e+00
2.269569261757255596e+00
2.250818689535202921e+00
2.250818689535202921e+00
2.255131321146275347e+00
2.255131321146275347e+00
2.299570177312540320e+00
2.328821069978942226e+00
2.328821069978942226e+00
2.364259651478621826e+00
2.364259651478621826e+00
2.388260383922848895e+00
2.369697317423017147e+00
2.369697317423017147e+00
2.336883816034425188e+00
2.336883816034425188e+00
2.325820978423414065e+00
2.305382854701376161e+00
2.305382854701376161e+00
2.285132236701559627e+00
2.278757042146061895e+00
2.278757042146061895e+00
2.269006744590594149e+00
2.269006744590594149e+00
2.261881527146214044e+00
2.224942899868770141e+00
2.224942899868770141e+00
