2.332946195867793726e+00
2.361259559923093665e+00
2.361259559923093665e+00
2.361259559923093665e+00
2.366322214423047576e+00
2.366322214423047576e+00
2.366322214423047576e+00
2.366322214423047576e+00
2.342883999145481511e+00
2.342883999145481511e+00
2.342883999145481511e+00
2.328446058534500818e+00
2.328446058534500818e+00
2.328446058534500818e+00
2.328446058534500818e+00
2.305945371868038052e+00
2.305945371868038052e+00
2.305945371868038052e+00
2.293757499923703591e+00
2.293757499923703591e+00
2.293757499923703591e+00
2.283257179479354360e+00
2.283257179479354360e+00
2.283257179479354360e+00
2.283257179479354360e+00
2.264319101535081202e+00
2.264319101535081202e+00
2.264319101535081202e+00
2.264694112979522167e+00
2.264694112979522167e+00
2.264694112979522167e+00
2.264694112979522167e+00
2.248756126590777171e+00
2.248756126590777171e+00
2.248756126590777171e+00
2.232443128757591655e+00
2.232443128757591655e+00
2.232443128757591655e+00
2.232443128757591655e+00
2.281569627979369130e+00
2.281569627979369130e+00
2.281569627979369130e+00
2.318320749534592551e+00
2.318320749534592551e+00
2.318320749534592551e+00
2.347384136478774419e+00
2.347384136478774419e+00
2.347384136478774419e+00
2.347384136478774419e+00
2.371947386089663379e+00
2.371947386089663379e+00
2.371947386089663379e+00
2.359009491256446989e+00
2.359009491256446989e+00
2.359009491256446989e+00
2.359009491256446989e+00
2.334633747367778511e+00
2.334633747367778511e+00
2.334633747367778511e+00
2.323195898312326424e+00
2.323195898312326424e+00
2.323195898312326424e+00
2.295820062868129341e+00
2.295820062868129341e+00
2.295820062868129341e+00
2.295820062868129341e+00
2.292069948423719250e+00
2.292069948423719250e+00
2.292069948423719250e+00
2.281194616534928166e+00
2.281194616534928166e+00
2.281194616534928166e+00
2.281194616534928166e+00
2.267319193090609808e+00
2.267319193090609808e+00
2.267319193090609808e+00
2.264694112979522167e+00
2.264694112979522167e+00
2.264694112979522167e+00
2.264694112979522167e+00
2.247631092257453833e+00
2.247631092257453833e+00
2.247631092257453833e+00
2.248568620868556689e+00
2.248568620868556689e+00
2.248568620868556689e+00
2.301070223090304623e+00
2.301070223090304623e+00
2.301070223090304623e+00
2.301070223090304623e+00
2.321133335367900674e+00
2.321133335367900674e+00
2.321133335367900674e+00
2.350571733756523507e+00
2.350571733756523507e+00
2.350571733756523507e+00
2.375885006256294396e+00
2.375885006256294396e+00
2.375885006256294396e+00
2.357134434034241721e+00
2.357134434034241721e+00
2.357134434034241721e+00
2.326383495590075512e+00
2.326383495590075512e+00
2.326383495590075512e+00
2.326383495590075512e+00
2.315320657979064389e+00
2.315320657979064389e+00
2.315320657979064389e+00
2.298445142979216982e+00
2.298445142979216982e+00
2.298445142979216982e+00
2.298445142979216982e+00
2.287007293923764895e+00
2.287007293923764895e+00
2.287007293923764895e+00
2.269381756035035114e+00
2.269381756035035114e+00
2.269381756035035114e+00
2.263381572923978347e+00
2.263381572923978347e+00
2.263381572923978347e+00
2.263381572923978347e+00
2.263006561479537382e+00
2.263006561479537382e+00
2.263006561479537382e+00
2.245006012146367080e+00
2.245006012146367080e+00
2.245006012146367080e+00
2.245006012146367080e+00
2.245006012146367080e+00
2.245006012146367080e+00
2.245006012146367080e+00
2.297320108645893644e+00
2.297320108645893644e+00
2.297320108645893644e+00
2.322820886867885459e+00
2.322820886867885459e+00
2.322820886867885459e+00
2.367822260200811879e+00
2.367822260200811879e+00
2.376260017700735361e+00
2.376260017700735361e+00
2.376260017700735361e+00
2.352446790978728330e+00
2.352446790978728330e+00
2.352446790978728330e+00
2.352446790978728330e+00
2.333133701590014208e+00
2.333133701590014208e+00
2.333133701590014208e+00
2.305007843256935196e+00
2.305007843256935196e+00
2.305007843256935196e+00
2.305007843256935196e+00
2.283444685201574842e+00
2.283444685201574842e+00
2.283444685201574842e+00
2.280632099368266719e+00
2.280632099368266719e+00
2.280632099368266719e+00
2.271069307535019899e+00
2.271069307535019899e+00
2.271069307535019899e+00
2.271069307535019899e+00
2.266756675923947917e+00
2.266756675923947917e+00
2.266756675923947917e+00
2.249693655201880027e+00
2.249693655201880027e+00
2.249693655201880027e+00
2.249693655201880027e+00
2.226442945646534444e+00
2.226442945646534444e+00
2.226442945646534444e+00
2.272006836146122755e+00
2.272006836146122755e+00
2.272006836146122755e+00
2.321883358256782603e+00
2.321883358256782603e+00
2.321883358256782603e+00
2.321883358256782603e+00
2.336696310312204705e+00
2.336696310312204705e+00
2.336696310312204705e+00
2.363322122867518971e+00
2.363322122867518971e+00
2.363322122867518971e+00
2.363322122867518971e+00
2.367447248756370914e+00
2.367447248756370914e+00
2.367447248756370914e+00
2.335196264534440402e+00
2.335196264534440402e+00
2.335196264534440402e+00
2.324133426923429280e+00
2.324133426923429280e+00
2.324133426923429280e+00
2.324133426923429280e+00
2.304257820368053267e+00
2.304257820368053267e+00
2.304257820368053267e+00
2.296945097201452679e+00
2.296945097201452679e+00
2.296945097201452679e+00
2.296945097201452679e+00
2.280819605090487201e+00
2.280819605090487201e+00
2.280819605090487201e+00
2.262444044312875935e+00
2.262444044312875935e+00
2.262444044312875935e+00
2.254756309701834383e+00
2.254756309701834383e+00
2.254756309701834383e+00
2.254756309701834383e+00
2.228880520035401602e+00
2.228880520035401602e+00
2.228880520035401602e+00
2.225692922757652514e+00
2.225692922757652514e+00
2.225692922757652514e+00
2.225692922757652514e+00
2.286444776757103448e+00
2.286444776757103448e+00
2.286444776757103448e+00
2.313820612201300086e+00
2.313820612201300086e+00
2.313820612201300086e+00
2.313820612201300086e+00
2.339321390423291458e+00
2.339321390423291458e+00
2.339321390423291458e+00
2.366322214423047576e+00
2.366322214423047576e+00
2.366322214423047576e+00
2.356946928312021239e+00
2.356946928312021239e+00
2.356946928312021239e+00
2.356946928312021239e+00
2.325633472701193583e+00
2.325633472701193583e+00
2.325633472701193583e+00
2.323383404034546906e+00
2.323383404034546906e+00
2.323383404034546906e+00
2.323383404034546906e+00
2.302382763145847999e+00
2.302382763145847999e+00
2.302382763145847999e+00
2.296195074312570750e+00
2.296195074312570750e+00
2.296195074312570750e+00
2.282882168034912951e+00
2.282882168034912951e+00
2.264319101535081202e+00
2.264319101535081202e+00
2.264319101535081202e+00
2.264319101535081202e+00
2.259631458479567812e+00
2.259631458479567812e+00
2.259631458479567812e+00
2.238818323313089387e+00
2.238818323313089387e+00
2.238818323313089387e+00
2.238818323313089387e+00
2.236755760368663637e+00
2.236755760368663637e+00
2.236755760368663637e+00
2.292069948423719250e+00
2.292069948423719250e+00
2.292069948423719250e+00
2.315320657979064389e+00
2.315320657979064389e+00
2.315320657979064389e+00
2.315320657979064389e+00
2.345884090701010116e+00
2.345884090701010116e+00
2.345884090701010116e+00
2.370072328867458111e+00
2.370072328867458111e+00
2.370072328867458111e+00
2.346821619312112972e+00
2.346821619312112972e+00
2.346821619312112972e+00
2.346821619312112972e+00
2.322633381145664977e+00
2.322633381145664977e+00
2.322633381145664977e+00
2.307445417645802355e+00
2.307445417645802355e+00
2.307445417645802355e+00
2.307445417645802355e+00
2.293945005645924073e+00
2.293945005645924073e+00
2.293945005645924073e+00
2.288319833979308715e+00
2.288319833979308715e+00
2.288319833979308715e+00
2.276694479201635701e+00
2.276694479201635701e+00
2.276694479201635701e+00
2.276694479201635701e+00
2.269756767479476078e+00
2.269756767479476078e+00
2.269756767479476078e+00
2.259631458479567812e+00
2.259631458479567812e+00
2.259631458479567812e+00
2.238443311868648422e+00
2.238443311868648422e+00
2.238443311868648422e+00
2.238443311868648422e+00
2.264694112979522167e+00
2.264694112979522167e+00
2.264694112979522167e+00
2.295070039979247412e+00
2.295070039979247412e+00
2.295070039979247412e+00
2.352259285256507848e+00
2.352259285256507848e+00
2.352259285256507848e+00
2.352259285256507848e+00
2.332946195867793726e+00
2.332946195867793726e+00
2.332946195867793726e+00
2.389947935422834124e+00
2.389947935422834124e+00
2.389947935422834124e+00
2.389947935422834124e+00
2.328821069978942226e+00
2.328821069978942226e+00
2.328821069978942226e+00
2.338946378978850937e+00
2.338946378978850937e+00
2.338946378978850937e+00
2.338946378978850937e+00
2.308382946256904766e+00
2.308382946256904766e+00
2.308382946256904766e+00
2.297320108645893644e+00
2.297320108645893644e+00
2.297320108645893644e+00
2.293194982757042144e+00
2.293194982757042144e+00
2.293194982757042144e+00
2.293194982757042144e+00
2.272569353312784202e+00
2.272569353312784202e+00
2.272569353312784202e+00
2.267131687368389326e+00
2.267131687368389326e+00
2.267131687368389326e+00
2.267131687368389326e+00
2.248006103701895242e+00
2.248006103701895242e+00
2.248006103701895242e+00
2.226255439924313961e+00
2.226255439924313961e+00
2.226255439924313961e+00
2.279507065034943825e+00
2.279507065034943825e+00
2.279507065034943825e+00
2.279507065034943825e+00
2.321508346812341639e+00
2.321508346812341639e+00
2.321508346812341639e+00
2.341946470534379099e+00
2.341946470534379099e+00
2.341946470534379099e+00
2.341946470534379099e+00
2.363134617145298488e+00
2.363134617145298488e+00
2.363134617145298488e+00
2.364634662923062791e+00
2.364634662923062791e+00
2.364634662923062791e+00
2.364634662923062791e+00
2.332758690145573244e+00
2.332758690145573244e+00
2.332758690145573244e+00
2.322633381145664977e+00
2.322633381145664977e+00
2.322633381145664977e+00
2.307070406201360946e+00
2.307070406201360946e+00
2.307070406201360946e+00
2.307070406201360946e+00
2.297507614368114126e+00
2.297507614368114126e+00
2.297507614368114126e+00
2.280444593646046680e+00
2.280444593646046680e+00
2.280444593646046680e+00
2.280444593646046680e+00
2.268444227423932702e+00
2.268444227423932702e+00
2.268444227423932702e+00
2.265444135868404540e+00
2.265444135868404540e+00
2.265444135868404540e+00
2.243318460646382295e+00
2.243318460646382295e+00
2.243318460646382295e+00
2.243318460646382295e+00
2.242755943479720404e+00
2.242755943479720404e+00
2.242755943479720404e+00
2.298632648701437464e+00
2.298632648701437464e+00
2.298632648701437464e+00
2.298632648701437464e+00
2.319070772423474924e+00
2.319070772423474924e+00
2.319070772423474924e+00
2.338383861812189490e+00
2.338383861812189490e+00
2.338383861812189490e+00
2.362947111423078006e+00
2.362947111423078006e+00
2.362947111423078006e+00
2.362947111423078006e+00
2.346259102145451525e+00
2.346259102145451525e+00
2.346259102145451525e+00
2.327696035645618888e+00
2.327696035645618888e+00
2.327696035645618888e+00
2.315320657979064389e+00
2.315320657979064389e+00
2.315320657979064389e+00
2.315320657979064389e+00
2.292069948423719250e+00
2.292069948423719250e+00
2.292069948423719250e+00
2.287569811090426342e+00
2.287569811090426342e+00
2.287569811090426342e+00
2.287569811090426342e+00
2.285319742423780109e+00
2.285319742423780109e+00
2.285319742423780109e+00
2.272944364757225166e+00
2.272944364757225166e+00
2.272944364757225166e+00
2.272944364757225166e+00
2.259818964201788294e+00
2.259818964201788294e+00
2.259818964201788294e+00
2.233755668813135031e+00
2.233755668813135031e+00
2.233755668813135031e+00
2.241443403424177028e+00
2.241443403424177028e+00
2.241443403424177028e+00
2.241443403424177028e+00
2.299007660145878429e+00
2.299007660145878429e+00
2.299007660145878429e+00
2.323758415478988315e+00
2.323758415478988315e+00
2.323758415478988315e+00
2.323758415478988315e+00
2.360134525589770327e+00
2.360134525589770327e+00
2.360134525589770327e+00
2.374197454756310055e+00
2.374197454756310055e+00
2.374197454756310055e+00
2.343259010589922919e+00
2.343259010589922919e+00
2.343259010589922919e+00
2.343259010589922919e+00
2.324320932645649762e+00
2.324320932645649762e+00
2.324320932645649762e+00
2.303882808923612302e+00
2.303882808923612302e+00
2.303882808923612302e+00
2.303882808923612302e+00
2.290382396923734465e+00
2.290382396923734465e+00
2.290382396923734465e+00
2.285882259590441556e+00
2.285882259590441556e+00
2.285882259590441556e+00
2.274631916257209951e+00
2.274631916257209951e+00
2.274631916257209951e+00
2.274631916257209951e+00
2.271819330423901828e+00
2.271819330423901828e+00
2.271819330423901828e+00
2.263756584368419311e+00
2.263756584368419311e+00
2.263756584368419311e+00
2.263756584368419311e+00
2.249318643757439062e+00
2.249318643757439062e+00
2.249318643757439062e+00
2.281007110812707683e+00
2.281007110812707683e+00
2.281007110812707683e+00
2.281007110812707683e+00
2.317383220923490139e+00
2.317383220923490139e+00
2.317383220923490139e+00
2.332946195867793726e+00
2.332946195867793726e+00
2.332946195867793726e+00
2.361259559923093665e+00
2.361259559923093665e+00
2.361259559923093665e+00
2.361259559923093665e+00
2.366322214423047576e+00
2.366322214423047576e+00
2.366322214423047576e+00
2.338758873256630455e+00
2.338758873256630455e+00
2.338758873256630455e+00
2.338758873256630455e+00
2.313820612201300086e+00
2.313820612201300086e+00
2.313820612201300086e+00
2.279507065034943825e+00
2.279507065034943825e+00
2.279507065034943825e+00
2.279882076479384789e+00
2.279882076479384789e+00
2.279882076479384789e+00
2.279882076479384789e+00
2.280632099368266719e+00
2.280632099368266719e+00
2.280632099368266719e+00
2.269381756035035114e+00
2.269381756035035114e+00
2.269381756035035114e+00
2.269381756035035114e+00
2.273319376201666131e+00
2.273319376201666131e+00
2.273319376201666131e+00
2.253256263924070080e+00
2.253256263924070080e+00
2.253256263924070080e+00
2.253256263924070080e+00
2.242005920590838475e+00
2.242005920590838475e+00
2.242005920590838475e+00
2.296382580034791232e+00
2.296382580034791232e+00
2.296382580034791232e+00
2.326571001312295994e+00
2.326571001312295994e+00
2.326571001312295994e+00
2.326571001312295994e+00
2.347384136478774419e+00
2.347384136478774419e+00
2.347384136478774419e+00
2.371009857478560967e+00
2.371009857478560967e+00
2.371009857478560967e+00
2.371009857478560967e+00
2.364259651478621826e+00
2.364259651478621826e+00
2.364259651478621826e+00
2.337258827478866152e+00
2.337258827478866152e+00
2.337258827478866152e+00
2.320570818201239227e+00
2.320570818201239227e+00
2.320570818201239227e+00
2.320570818201239227e+00
2.294882534257026929e+00
2.294882534257026929e+00
2.294882534257026929e+00
2.278757042146061895e+00
2.278757042146061895e+00
2.278757042146061895e+00
2.278757042146061895e+00
2.268256721701712220e+00
2.268256721701712220e+00
2.268256721701712220e+00
2.257006378368480615e+00
2.257006378368480615e+00
2.257006378368480615e+00
2.257006378368480615e+00
2.256818872646260132e+00
2.256818872646260132e+00
2.256818872646260132e+00
2.239568346201971760e+00
2.239568346201971760e+00
2.239568346201971760e+00
2.247631092257453833e+00
2.247631092257453833e+00
2.247631092257453833e+00
2.247631092257453833e+00
2.300882717368083696e+00
2.300882717368083696e+00
2.300882717368083696e+00
2.317758232367931104e+00
2.317758232367931104e+00
2.317758232367931104e+00
2.317758232367931104e+00
2.344196539201025331e+00
2.344196539201025331e+00
2.344196539201025331e+00
2.371384868923001932e+00
2.371384868923001932e+00
2.371384868923001932e+00
2.347196630756553937e+00
2.347196630756553937e+00
2.347196630756553937e+00
2.347196630756553937e+00
2.323758415478988315e+00
2.323758415478988315e+00
2.323758415478988315e+00
2.306320383312479017e+00
2.306320383312479017e+00
2.306320383312479017e+00
2.306320383312479017e+00
2.291694936979278285e+00
2.291694936979278285e+00
2.291694936979278285e+00
2.284382213812677254e+00
2.284382213812677254e+00
2.284382213812677254e+00
2.274069399090548504e+00
2.274069399090548504e+00
2.274069399090548504e+00
2.274069399090548504e+00
2.268444227423932702e+00
2.268444227423932702e+00
2.268444227423932702e+00
2.266194158757286470e+00
2.266194158757286470e+00
2.266194158757286470e+00
2.266194158757286470e+00
2.253068758201849597e+00
2.253068758201849597e+00
2.253068758201849597e+00
2.270506790368358452e+00
2.270506790368358452e+00
2.270506790368358452e+00
2.270506790368358452e+00
2.325820978423414065e+00
2.325820978423414065e+00
2.325820978423414065e+00
2.342883999145481511e+00
2.342883999145481511e+00
2.342883999145481511e+00
2.367634754478591397e+00
2.367634754478591397e+00
2.367634754478591397e+00
2.367634754478591397e+00
2.364259651478621826e+00
2.364259651478621826e+00
2.364259651478621826e+00
2.337446333201086635e+00
2.337446333201086635e+00
2.337446333201086635e+00
2.337446333201086635e+00
2.323008392590105942e+00
2.323008392590105942e+00
2.323008392590105942e+00
2.306695394756919981e+00
2.306695394756919981e+00
2.306695394756919981e+00
2.278382030701620931e+00
2.278382030701620931e+00
2.278382030701620931e+00
2.278382030701620931e+00
2.271069307535019899e+00
2.271069307535019899e+00
2.271069307535019899e+00
2.262819055757316900e+00
2.262819055757316900e+00
2.262819055757316900e+00
2.262819055757316900e+00
2.271819330423901828e+00
2.271819330423901828e+00
2.271819330423901828e+00
2.261506515701773079e+00
2.261506515701773079e+00
2.261506515701773079e+00
2.245943540757469048e+00
2.245943540757469048e+00
2.245943540757469048e+00
2.245943540757469048e+00
2.287007293923764895e+00
2.287007293923764895e+00
2.287007293923764895e+00
2.328071047090059853e+00
2.328071047090059853e+00
2.328071047090059853e+00
2.328071047090059853e+00
2.341758964812158617e+00
2.341758964812158617e+00
2.341758964812158617e+00
2.366509720145268059e+00
2.366509720145268059e+00
2.366509720145268059e+00
2.369884823145237629e+00
2.369884823145237629e+00
2.369884823145237629e+00
2.369884823145237629e+00
2.338946378978850937e+00
2.338946378978850937e+00
2.338946378978850937e+00
2.315133152256843907e+00
2.315133152256843907e+00
2.315133152256843907e+00
2.274444410534989469e+00
2.274444410534989469e+00
2.274444410534989469e+00
2.274444410534989469e+00
2.263944090090640238e+00
2.263944090090640238e+00
2.263944090090640238e+00
2.263569078646198829e+00
2.263569078646198829e+00
2.263569078646198829e+00
2.263569078646198829e+00
2.247443586535233351e+00
2.247443586535233351e+00
2.247443586535233351e+00
2.258318918424023991e+00
2.258318918424023991e+00
2.258318918424023991e+00
2.258318918424023991e+00
2.251756218146305777e+00
2.251756218146305777e+00
2.251756218146305777e+00
2.254193792535172935e+00
2.254193792535172935e+00
2.254193792535172935e+00
2.303320291756950855e+00
2.303320291756950855e+00
2.303320291756950855e+00
2.303320291756950855e+00
2.331821161534470832e+00
2.331821161534470832e+00
2.331821161534470832e+00
2.352821802423169739e+00
2.352821802423169739e+00
2.352821802423169739e+00
2.352821802423169739e+00
2.375134983367412023e+00
2.375134983367412023e+00
2.375134983367412023e+00
2.363322122867518971e+00
2.363322122867518971e+00
2.363322122867518971e+00
2.321320841090121156e+00
2.321320841090121156e+00
2.321320841090121156e+00
2.321320841090121156e+00
2.305195348979155678e+00
2.305195348979155678e+00
2.305195348979155678e+00
2.293007477034821662e+00
2.293007477034821662e+00
2.293007477034821662e+00
2.293007477034821662e+00
2.284007202368236289e+00
2.284007202368236289e+00
2.284007202368236289e+00
2.273319376201666131e+00
2.273319376201666131e+00
2.273319376201666131e+00
2.258318918424023991e+00
2.258318918424023991e+00
2.258318918424023991e+00
2.258318918424023991e+00
2.255318826868495830e+00
2.255318826868495830e+00
2.255318826868495830e+00
2.231505600146489243e+00
2.231505600146489243e+00
2.231505600146489243e+00
2.231505600146489243e+00
2.248943632312997654e+00
2.248943632312997654e+00
2.248943632312997654e+00
2.312508072145756710e+00
2.312508072145756710e+00
2.312508072145756710e+00
2.337633838923307117e+00
2.337633838923307117e+00
2.337633838923307117e+00
2.337633838923307117e+00
2.360322031311990809e+00
2.360322031311990809e+00
2.360322031311990809e+00
2.373072420422986717e+00
2.373072420422986717e+00
2.373072420422986717e+00
2.373072420422986717e+00
2.350759239478743989e+00
2.350759239478743989e+00
2.350759239478743989e+00
2.326383495590075512e+00
2.326383495590075512e+00
2.326383495590075512e+00
2.326383495590075512e+00
2.309507980590228104e+00
2.309507980590228104e+00
2.309507980590228104e+00
2.292819971312600735e+00
2.292819971312600735e+00
2.292819971312600735e+00
2.290007385479293500e+00
2.290007385479293500e+00
2.290007385479293500e+00
2.290007385479293500e+00
2.275944456312753772e+00
2.275944456312753772e+00
2.275944456312753772e+00
2.272194341868343237e+00
2.272194341868343237e+00
2.272194341868343237e+00
2.272194341868343237e+00
2.269381756035035114e+00
2.269381756035035114e+00
2.269381756035035114e+00
2.245193517868587563e+00
2.245193517868587563e+00
2.245193517868587563e+00
2.245193517868587563e+00
2.265631641590625023e+00
2.265631641590625023e+00
2.265631641590625023e+00
2.315133152256843907e+00
2.315133152256843907e+00
2.315133152256843907e+00
2.328258552812280335e+00
2.328258552812280335e+00
2.328258552812280335e+00
2.328258552812280335e+00
2.358821985534226506e+00
2.358821985534226506e+00
2.358821985534226506e+00
2.360509537034211291e+00
2.360509537034211291e+00
2.360509537034211291e+00
2.333133701590014208e+00
2.333133701590014208e+00
2.333133701590014208e+00
2.333133701590014208e+00
2.318883266701254442e+00
2.318883266701254442e+00
2.318883266701254442e+00
2.297695120090334608e+00
2.297695120090334608e+00
2.297695120090334608e+00
2.297695120090334608e+00
2.279132053590502860e+00
2.279132053590502860e+00
2.279132053590502860e+00
2.269756767479476078e+00
2.269756767479476078e+00
2.269756767479476078e+00
2.256443861201819168e+00
2.256443861201819168e+00
2.256443861201819168e+00
2.256443861201819168e+00
2.258506424146244473e+00
2.258506424146244473e+00
2.258506424146244473e+00
2.254193792535172935e+00
2.254193792535172935e+00
2.254193792535172935e+00
2.254193792535172935e+00
2.247818597979674760e+00
2.247818597979674760e+00
2.247818597979674760e+00
2.291694936979278285e+00
2.291694936979278285e+00
2.291694936979278285e+00
2.291694936979278285e+00
2.326383495590075512e+00
2.326383495590075512e+00
2.326383495590075512e+00
2.340446424756614796e+00
2.340446424756614796e+00
2.340446424756614796e+00
2.369134800256355700e+00
2.369134800256355700e+00
2.369134800256355700e+00
2.369134800256355700e+00
2.364634662923062791e+00
2.364634662923062791e+00
2.364634662923062791e+00
2.332196172978911797e+00
2.332196172978911797e+00
2.332196172978911797e+00
2.332196172978911797e+00
2.314945646534623425e+00
2.314945646534623425e+00
2.314945646534623425e+00
2.289819879757073018e+00
2.289819879757073018e+00
2.289819879757073018e+00
2.292819971312600735e+00
2.292819971312600735e+00
2.292819971312600735e+00
2.292819971312600735e+00
2.284382213812677254e+00
2.284382213812677254e+00
2.284382213812677254e+00
2.271631824701681346e+00
2.271631824701681346e+00
2.271631824701681346e+00
2.271631824701681346e+00
2.271069307535019899e+00
2.271069307535019899e+00
2.271069307535019899e+00
2.255318826868495830e+00
2.255318826868495830e+00
2.255318826868495830e+00
2.255318826868495830e+00
2.262444044312875935e+00
2.262444044312875935e+00
2.262444044312875935e+00
2.311383037812433372e+00
2.311383037812433372e+00
2.311383037812433372e+00
2.338946378978850937e+00
2.338946378978850937e+00
2.338946378978850937e+00
2.338946378978850937e+00
2.359384502700888397e+00
2.359384502700888397e+00
2.359384502700888397e+00
2.375509994811853431e+00
2.375509994811853431e+00
2.375509994811853431e+00
2.375509994811853431e+00
2.356196905423139309e+00
2.356196905423139309e+00
2.356196905423139309e+00
2.325258461256752618e+00
2.325258461256752618e+00
2.325258461256752618e+00
2.302195257423627517e+00
2.302195257423627517e+00
2.302195257423627517e+00
2.302195257423627517e+00
2.285319742423780109e+00
2.285319742423780109e+00
2.285319742423780109e+00
2.282507156590471986e+00
2.282507156590471986e+00
2.282507156590471986e+00
2.282507156590471986e+00
2.265819147312845505e+00
2.265819147312845505e+00
2.265819147312845505e+00
2.262444044312875935e+00
2.262444044312875935e+00
2.262444044312875935e+00
2.262444044312875935e+00
2.260006469924008776e+00
2.260006469924008776e+00
2.260006469924008776e+00
2.242005920590838475e+00
2.242005920590838475e+00
2.242005920590838475e+00
2.245756035035248566e+00
2.245756035035248566e+00
2.245756035035248566e+00
2.245756035035248566e+00
2.299570177312540320e+00
2.299570177312540320e+00
2.299570177312540320e+00
2.325445966978973100e+00
2.325445966978973100e+00
2.325445966978973100e+00
2.325445966978973100e+00
2.354134342478713116e+00
2.354134342478713116e+00
2.354134342478713116e+00
2.364447157200842309e+00
2.364447157200842309e+00
2.364447157200842309e+00
2.338758873256630455e+00
2.338758873256630455e+00
2.338758873256630455e+00
2.338758873256630455e+00
2.331071138645588459e+00
2.331071138645588459e+00
2.331071138645588459e+00
2.313070589312418157e+00
2.313070589312418157e+00
2.313070589312418157e+00
2.294695028534806447e+00
2.294695028534806447e+00
2.294695028534806447e+00
2.294695028534806447e+00
2.288319833979308715e+00
2.288319833979308715e+00
2.288319833979308715e+00
2.275006927701650916e+00
2.275006927701650916e+00
2.275006927701650916e+00
2.275006927701650916e+00
2.269944273201696561e+00
2.269944273201696561e+00
2.269944273201696561e+00
2.254193792535172935e+00
2.254193792535172935e+00
2.254193792535172935e+00
2.254193792535172935e+00
2.238068300424207457e+00
2.238068300424207457e+00
2.238068300424207457e+00
2.277069490646077110e+00
2.277069490646077110e+00
2.277069490646077110e+00
2.320945829645680192e+00
2.320945829645680192e+00
2.320945829645680192e+00
2.320945829645680192e+00
2.330883632923367976e+00
2.330883632923367976e+00
2.330883632923367976e+00
2.362009582811975594e+00
2.362009582811975594e+00
2.362009582811975594e+00
2.362009582811975594e+00
2.369509811700796664e+00
2.369509811700796664e+00
2.369509811700796664e+00
2.340633930478835278e+00
2.340633930478835278e+00
2.340633930478835278e+00
2.320383312479018745e+00
2.320383312479018745e+00
2.320383312479018745e+00
2.320383312479018745e+00
2.288132328257088233e+00
2.288132328257088233e+00
2.288132328257088233e+00
2.290007385479293500e+00
2.290007385479293500e+00
2.290007385479293500e+00
2.290007385479293500e+00
2.282132145146031021e+00
2.282132145146031021e+00
2.282132145146031021e+00
2.260568987090670667e+00
2.260568987090670667e+00
2.260568987090670667e+00
2.260568987090670667e+00
2.260943998535111632e+00
2.260943998535111632e+00
2.260943998535111632e+00
2.241255897701956545e+00
2.241255897701956545e+00
2.241255897701956545e+00
2.236193243202001746e+00
2.236193243202001746e+00
2.236193243202001746e+00
2.236193243202001746e+00
2.295445051423688376e+00
2.295445051423688376e+00
2.295445051423688376e+00
2.326571001312295994e+00
2.326571001312295994e+00
2.326571001312295994e+00
2.326571001312295994e+00
2.348884182256538722e+00
2.348884182256538722e+00
2.348884182256538722e+00
2.368384777367473326e+00
2.368384777367473326e+00
2.368384777367473326e+00
2.356384411145359792e+00
2.356384411145359792e+00
2.356384411145359792e+00
2.356384411145359792e+00
2.324133426923429280e+00
2.324133426923429280e+00
2.324133426923429280e+00
2.314758140812402942e+00
2.314758140812402942e+00
2.314758140812402942e+00
2.314758140812402942e+00
2.289069856868190644e+00
2.289069856868190644e+00
2.289069856868190644e+00
2.273506881923887057e+00
2.273506881923887057e+00
2.273506881923887057e+00
2.273506881923887057e+00
2.269194250312814631e+00
2.269194250312814631e+00
2.269194250312814631e+00
2.263194067201757864e+00
2.263194067201757864e+00
2.263194067201757864e+00
2.265444135868404540e+00
2.265444135868404540e+00
2.265444135868404540e+00
2.265444135868404540e+00
2.251193700979644330e+00
2.251193700979644330e+00
2.251193700979644330e+00
2.255881344035157721e+00
2.255881344035157721e+00
2.255881344035157721e+00
2.255881344035157721e+00
2.313445600756859122e+00
2.313445600756859122e+00
2.313445600756859122e+00
2.333321207312235135e+00
2.333321207312235135e+00
2.333321207312235135e+00
2.359384502700888397e+00
2.359384502700888397e+00
2.359384502700888397e+00
2.359384502700888397e+00
2.375885006256294396e+00
2.375885006256294396e+00
2.375885006256294396e+00
2.354509353923154524e+00
2.354509353923154524e+00
2.354509353923154524e+00
2.354509353923154524e+00
2.327883541367839371e+00
2.327883541367839371e+00
2.327883541367839371e+00
2.308570451979125249e+00
2.308570451979125249e+00
2.308570451979125249e+00
2.295820062868129341e+00
2.295820062868129341e+00
2.295820062868129341e+00
2.295820062868129341e+00
2.291319925534837321e+00
2.291319925534837321e+00
2.291319925534837321e+00
2.277632007812738557e+00
2.277632007812738557e+00
2.277632007812738557e+00
2.277632007812738557e+00
2.264694112979522167e+00
2.264694112979522167e+00
2.264694112979522167e+00
2.253068758201849597e+00
2.253068758201849597e+00
2.253068758201849597e+00
2.238068300424207457e+00
2.238068300424207457e+00
2.238068300424207457e+00
2.238068300424207457e+00
2.259068941312906365e+00
2.259068941312906365e+00
2.259068941312906365e+00
2.316820703756828248e+00
2.316820703756828248e+00
2.316820703756828248e+00
2.316820703756828248e+00
2.336883816034425188e+00
2.336883816034425188e+00
2.336883816034425188e+00
2.361259559923093665e+00
2.361259559923093665e+00
2.361259559923093665e+00
2.361259559923093665e+00
2.368384777367473326e+00
2.368384777367473326e+00
2.368384777367473326e+00
2.341383953367717208e+00
2.341383953367717208e+00
2.341383953367717208e+00
2.325258461256752618e+00
2.325258461256752618e+00
2.325258461256752618e+00
2.325258461256752618e+00
2.281944639423810539e+00
2.281944639423810539e+00
2.281944639423810539e+00
2.279319559312723342e+00
2.279319559312723342e+00
2.279319559312723342e+00
2.279319559312723342e+00
2.278569536423841413e+00
2.278569536423841413e+00
2.278569536423841413e+00
2.267506698812830290e+00
2.267506698812830290e+00
2.267506698812830290e+00
2.267506698812830290e+00
2.269569261757255596e+00
2.269569261757255596e+00
2.269569261757255596e+00
2.256631366924039650e+00
2.256631366924039650e+00
2.256631366924039650e+00
2.249693655201880027e+00
2.249693655201880027e+00
2.249693655201880027e+00
2.249693655201880027e+00
2.281194616534928166e+00
2.281194616534928166e+00
2.281194616534928166e+00
2.313070589312418157e+00
2.313070589312418157e+00
2.313070589312418157e+00
2.313070589312418157e+00
2.338196356089969008e+00
2.338196356089969008e+00
2.338196356089969008e+00
2.371572374645222414e+00
2.371572374645222414e+00
2.371572374645222414e+00
2.370634846034120002e+00
2.370634846034120002e+00
2.370634846034120002e+00
2.370634846034120002e+00
2.344009033478804849e+00
2.344009033478804849e+00
2.344009033478804849e+00
2.329383587145603673e+00
2.329383587145603673e+00
2.329383587145603673e+00
2.329383587145603673e+00
2.303320291756950855e+00
2.303320291756950855e+00
2.303320291756950855e+00
2.290569902645954947e+00
2.290569902645954947e+00
2.290569902645954947e+00
2.264694112979522167e+00
2.264694112979522167e+00
2.264694112979522167e+00
2.264694112979522167e+00
2.248006103701895242e+00
2.248006103701895242e+00
2.248006103701895242e+00
2.249506149479659545e+00
2.249506149479659545e+00
2.249506149479659545e+00
2.249506149479659545e+00
2.233755668813135031e+00
2.233755668813135031e+00
2.233755668813135031e+00
2.239380840479750834e+00
2.239380840479750834e+00
2.239380840479750834e+00
2.239380840479750834e+00
2.293007477034821662e+00
2.293007477034821662e+00
2.293007477034821662e+00
2.321695852534562121e+00
2.321695852534562121e+00
2.321695852534562121e+00
2.361259559923093665e+00
2.361259559923093665e+00
2.361259559923093665e+00
2.361259559923093665e+00
2.381510177922910199e+00
2.381510177922910199e+00
2.381510177922910199e+00
2.365572191534165203e+00
2.365572191534165203e+00
2.365572191534165203e+00
2.329008575701162709e+00
2.329008575701162709e+00
2.329008575701162709e+00
2.329008575701162709e+00
2.314570635090182460e+00
2.314570635090182460e+00
2.314570635090182460e+00
2.289819879757073018e+00
2.289819879757073018e+00
2.289819879757073018e+00
2.289819879757073018e+00
2.285507248146000592e+00
2.285507248146000592e+00
2.285507248146000592e+00
2.278944547868282378e+00
2.278944547868282378e+00
2.278944547868282378e+00
2.258506424146244473e+00
2.258506424146244473e+00
2.258506424146244473e+00
2.258506424146244473e+00
2.248568620868556689e+00
2.248568620868556689e+00
2.248568620868556689e+00
2.234318185979796478e+00
2.234318185979796478e+00
2.234318185979796478e+00
2.234318185979796478e+00
2.251381206701864812e+00
2.251381206701864812e+00
2.251381206701864812e+00
2.293945005645924073e+00
2.293945005645924073e+00
2.293945005645924073e+00
2.322258369701224012e+00
2.322258369701224012e+00
2.322258369701224012e+00
2.322258369701224012e+00
2.353946836756492633e+00
2.353946836756492633e+00
2.353946836756492633e+00
2.372509903256325270e+00
2.372509903256325270e+00
2.372509903256325270e+00
2.372509903256325270e+00
2.353196813867610704e+00
2.353196813867610704e+00
2.353196813867610704e+00
2.328446058534500818e+00
2.328446058534500818e+00
2.328446058534500818e+00
2.328446058534500818e+00
2.309695486312448587e+00
2.309695486312448587e+00
2.309695486312448587e+00
2.293194982757042144e+00
2.293194982757042144e+00
2.293194982757042144e+00
2.286444776757103448e+00
2.286444776757103448e+00
2.286444776757103448e+00
2.286444776757103448e+00
2.272006836146122755e+00
2.272006836146122755e+00
2.272006836146122755e+00
2.260381481368449741e+00
2.260381481368449741e+00
2.260381481368449741e+00
2.260381481368449741e+00
2.253068758201849597e+00
2.253068758201849597e+00
2.253068758201849597e+00
2.239568346201971760e+00
2.239568346201971760e+00
2.239568346201971760e+00
2.265069124423963132e+00
2.265069124423963132e+00
2.265069124423963132e+00
2.265069124423963132e+00
2.320570818201239227e+00
2.320570818201239227e+00
2.320570818201239227e+00
2.338383861812189490e+00
2.338383861812189490e+00
2.338383861812189490e+00
2.338383861812189490e+00
2.368572283089693808e+00
2.368572283089693808e+00
2.368572283089693808e+00
2.368009765923032361e+00
2.368009765923032361e+00
2.368009765923032361e+00
2.368009765923032361e+00
2.337446333201086635e+00
2.337446333201086635e+00
2.337446333201086635e+00
2.315133152256843907e+00
2.315133152256843907e+00
2.315133152256843907e+00
2.297132602923673161e+00
2.297132602923673161e+00
2.297132602923673161e+00
2.297132602923673161e+00
2.289819879757073018e+00
2.289819879757073018e+00
2.289819879757073018e+00
2.285319742423780109e+00
2.285319742423780109e+00
2.285319742423780109e+00
2.285319742423780109e+00
2.277069490646077110e+00
2.277069490646077110e+00
2.277069490646077110e+00
2.272569353312784202e+00
2.272569353312784202e+00
2.272569353312784202e+00
2.250631183812982439e+00
2.250631183812982439e+00
2.250631183812982439e+00
2.250631183812982439e+00
2.240505874813074172e+00
2.240505874813074172e+00
2.240505874813074172e+00
2.286632282479323930e+00
2.286632282479323930e+00
2.286632282479323930e+00
2.286632282479323930e+00
2.322070863979003530e+00
2.322070863979003530e+00
2.322070863979003530e+00
2.343634022034363884e+00
2.343634022034363884e+00
2.343634022034363884e+00
2.343634022034363884e+00
2.366697225867488541e+00
2.366697225867488541e+00
2.366697225867488541e+00
2.367822260200811879e+00
2.367822260200811879e+00
2.367822260200811879e+00
2.337446333201086635e+00
2.337446333201086635e+00
2.337446333201086635e+00
2.337446333201086635e+00
2.319070772423474924e+00
2.319070772423474924e+00
2.319070772423474924e+00
2.289632374034852091e+00
2.289632374034852091e+00
2.289632374034852091e+00
2.289632374034852091e+00
2.279132053590502860e+00
2.279132053590502860e+00
2.279132053590502860e+00
2.275756950590533290e+00
2.275756950590533290e+00
2.275756950590533290e+00
2.263756584368419311e+00
2.263756584368419311e+00
2.263756584368419311e+00
2.263756584368419311e+00
2.265631641590625023e+00
2.265631641590625023e+00
2.265631641590625023e+00
2.249318643757439062e+00
2.249318643757439062e+00
2.249318643757439062e+00
2.249318643757439062e+00
2.249131138035218136e+00
2.249131138035218136e+00
2.249131138035218136e+00
2.297882625812555535e+00
2.297882625812555535e+00
2.297882625812555535e+00
2.323383404034546906e+00
2.323383404034546906e+00
2.323383404034546906e+00
2.323383404034546906e+00
2.353384319589831186e+00
2.353384319589831186e+00
2.353384319589831186e+00
2.372134891811884305e+00
2.372134891811884305e+00
2.372134891811884305e+00
2.372134891811884305e+00
2.354884365367595489e+00
2.354884365367595489e+00
2.354884365367595489e+00
2.327321024201178368e+00
2.327321024201178368e+00
2.327321024201178368e+00
2.309695486312448587e+00
2.309695486312448587e+00
2.309695486312448587e+00
2.309695486312448587e+00
2.278194524979400004e+00
2.278194524979400004e+00
2.278194524979400004e+00
2.271631824701681346e+00
2.271631824701681346e+00
2.271631824701681346e+00
2.271631824701681346e+00
2.267131687368389326e+00
2.267131687368389326e+00
2.267131687368389326e+00
2.257381389812921579e+00
2.257381389812921579e+00
2.257381389812921579e+00
2.260193975646229259e+00
2.260193975646229259e+00
2.260193975646229259e+00
2.260193975646229259e+00
2.246506057924130939e+00
2.246506057924130939e+00
2.246506057924130939e+00
2.266756675923947917e+00
2.266756675923947917e+00
2.266756675923947917e+00
2.266756675923947917e+00
2.320945829645680192e+00
2.320945829645680192e+00
2.320945829645680192e+00
2.339508896145511940e+00
2.339508896145511940e+00
2.339508896145511940e+00
2.339508896145511940e+00
2.370822351756340485e+00
2.370822351756340485e+00
2.370822351756340485e+00
2.375322489089632505e+00
2.375322489089632505e+00
2.375322489089632505e+00
2.344946562089907705e+00
2.344946562089907705e+00
2.344946562089907705e+00
2.344946562089907705e+00
2.326195989867855030e+00
2.326195989867855030e+00
2.326195989867855030e+00
2.299382671590319838e+00
2.299382671590319838e+00
2.299382671590319838e+00
2.299382671590319838e+00
2.279507065034943825e+00
2.279507065034943825e+00
2.279507065034943825e+00
2.276694479201635701e+00
2.276694479201635701e+00
2.276694479201635701e+00
2.272194341868343237e+00
2.272194341868343237e+00
2.272194341868343237e+00
2.272194341868343237e+00
2.266756675923947917e+00
2.266756675923947917e+00
2.266756675923947917e+00
2.253443769646290562e+00
2.253443769646290562e+00
2.253443769646290562e+00
2.253443769646290562e+00
2.246506057924130939e+00
2.246506057924130939e+00
2.246506057924130939e+00
2.281757133701590057e+00
2.281757133701590057e+00
2.281757133701590057e+00
2.281757133701590057e+00
2.328071047090059853e+00
2.328071047090059853e+00
2.328071047090059853e+00
2.346071596423230599e+00
2.346071596423230599e+00
2.346071596423230599e+00
2.366884731589709023e+00
2.366884731589709023e+00
2.366884731589709023e+00
2.358071962645344577e+00
2.358071962645344577e+00
2.358071962645344577e+00
2.358071962645344577e+00
2.330883632923367976e+00
2.330883632923367976e+00
2.330883632923367976e+00
2.326195989867855030e+00
2.326195989867855030e+00
2.326195989867855030e+00
2.326195989867855030e+00
2.302757774590289408e+00
2.302757774590289408e+00
2.302757774590289408e+00
2.284007202368236289e+00
2.284007202368236289e+00
2.284007202368236289e+00
2.272756859035004684e+00
2.272756859035004684e+00
2.272756859035004684e+00
2.272756859035004684e+00
2.256631366924039650e+00
2.256631366924039650e+00
2.256631366924039650e+00
2.249318643757439062e+00
2.249318643757439062e+00
2.249318643757439062e+00
2.249318643757439062e+00
2.235255714590899334e+00
2.235255714590899334e+00
2.235255714590899334e+00
2.225692922757652514e+00
2.225692922757652514e+00
2.225692922757652514e+00
2.225692922757652514e+00
2.283069673757133433e+00
2.283069673757133433e+00
2.283069673757133433e+00
2.317945738090151586e+00
2.317945738090151586e+00
2.317945738090151586e+00
2.347759147923215384e+00
2.347759147923215384e+00
2.347759147923215384e+00
2.347759147923215384e+00
2.368947294534135217e+00
2.368947294534135217e+00
2.368947294534135217e+00
2.356571916867580274e+00
2.356571916867580274e+00
2.356571916867580274e+00
2.356571916867580274e+00
2.327883541367839371e+00
2.327883541367839371e+00
2.327883541367839371e+00
2.320383312479018745e+00
2.320383312479018745e+00
2.320383312479018745e+00
2.296570085757011714e+00
2.296570085757011714e+00
2.296570085757011714e+00
2.296570085757011714e+00
2.287757316812646824e+00
2.287757316812646824e+00
2.287757316812646824e+00
2.281194616534928166e+00
2.281194616534928166e+00
2.281194616534928166e+00
2.281194616534928166e+00
2.267506698812830290e+00
2.267506698812830290e+00
2.267506698812830290e+00
2.260006469924008776e+00
2.260006469924008776e+00
2.260006469924008776e+00
2.241255897701956545e+00
2.241255897701956545e+00
2.241255897701956545e+00
2.241255897701956545e+00
2.250443678090761956e+00
2.250443678090761956e+00
2.250443678090761956e+00
2.301257728812525105e+00
2.301257728812525105e+00
2.301257728812525105e+00
2.301257728812525105e+00
2.324883449812311209e+00
2.324883449812311209e+00
2.324883449812311209e+00
2.355446882534256936e+00
2.355446882534256936e+00
2.355446882534256936e+00
2.355446882534256936e+00
2.374197454756310055e+00
2.374197454756310055e+00
2.374197454756310055e+00
2.352259285256507848e+00
2.352259285256507848e+00
2.352259285256507848e+00
2.329008575701162709e+00
2.329008575701162709e+00
2.329008575701162709e+00
2.329008575701162709e+00
2.315320657979064389e+00
2.315320657979064389e+00
2.315320657979064389e+00
2.297507614368114126e+00
2.297507614368114126e+00
2.297507614368114126e+00
2.297507614368114126e+00
2.290194891201513983e+00
2.290194891201513983e+00
2.290194891201513983e+00
2.280069582201605716e+00
2.280069582201605716e+00
2.280069582201605716e+00
2.276694479201635701e+00
2.276694479201635701e+00
2.276694479201635701e+00
2.276694479201635701e+00
2.263944090090640238e+00
2.263944090090640238e+00
2.263944090090640238e+00
2.243505966368602778e+00
2.243505966368602778e+00
2.243505966368602778e+00
2.243505966368602778e+00
2.257193884090700653e+00
2.257193884090700653e+00
2.257193884090700653e+00
2.310070497756889552e+00
2.310070497756889552e+00
2.310070497756889552e+00
2.310070497756889552e+00
2.333696218756676100e+00
2.333696218756676100e+00
2.333696218756676100e+00
2.368009765923032361e+00
2.368009765923032361e+00
2.368009765923032361e+00
2.369697317423017147e+00
2.369697317423017147e+00
2.369697317423017147e+00
2.369697317423017147e+00
2.336321298867763296e+00
2.336321298867763296e+00
2.336321298867763296e+00
2.308570451979125249e+00
2.308570451979125249e+00
2.308570451979125249e+00
2.308570451979125249e+00
2.286632282479323930e+00
2.286632282479323930e+00
2.286632282479323930e+00
2.278194524979400004e+00
2.278194524979400004e+00
2.278194524979400004e+00
2.278382030701620931e+00
2.278382030701620931e+00
2.278382030701620931e+00
2.278382030701620931e+00
2.271444318979460864e+00
2.271444318979460864e+00
2.271444318979460864e+00
2.267319193090609808e+00
2.267319193090609808e+00
2.267319193090609808e+00
2.267319193090609808e+00
2.252131229590746742e+00
2.252131229590746742e+00
2.252131229590746742e+00
2.243693472090823260e+00
2.243693472090823260e+00
2.243693472090823260e+00
2.289632374034852091e+00
2.289632374034852091e+00
2.289632374034852091e+00
2.289632374034852091e+00
2.321695852534562121e+00
2.321695852534562121e+00
2.321695852534562121e+00
2.335946287423322332e+00
2.335946287423322332e+00
2.335946287423322332e+00
2.335946287423322332e+00
2.364259651478621826e+00
2.364259651478621826e+00
2.364259651478621826e+00
2.359572008423108880e+00
2.359572008423108880e+00
2.359572008423108880e+00
2.359572008423108880e+00
2.326946012756737403e+00
2.326946012756737403e+00
2.326946012756737403e+00
2.318695760979033516e+00
2.318695760979033516e+00
2.318695760979033516e+00
2.297695120090334608e+00
2.297695120090334608e+00
2.297695120090334608e+00
2.297695120090334608e+00
2.292257454145939732e+00
2.292257454145939732e+00
2.292257454145939732e+00
2.279694570757164307e+00
2.279694570757164307e+00
2.279694570757164307e+00
2.279694570757164307e+00
2.270506790368358452e+00
2.270506790368358452e+00
2.270506790368358452e+00
2.273131870479445649e+00
2.273131870479445649e+00
2.273131870479445649e+00
2.253068758201849597e+00
2.253068758201849597e+00
2.253068758201849597e+00
2.253068758201849597e+00
2.250631183812982439e+00
2.250631183812982439e+00
2.250631183812982439e+00
2.291507431257057803e+00
2.291507431257057803e+00
2.291507431257057803e+00
2.291507431257057803e+00
2.320570818201239227e+00
2.320570818201239227e+00
2.320570818201239227e+00
2.343071504867702437e+00
2.343071504867702437e+00
2.343071504867702437e+00
2.343071504867702437e+00
2.372884914700766235e+00
2.372884914700766235e+00
2.372884914700766235e+00
2.362759605700857524e+00
2.362759605700857524e+00
2.362759605700857524e+00
2.337821344645527599e+00
2.337821344645527599e+00
2.337821344645527599e+00
2.337821344645527599e+00
2.327696035645618888e+00
2.327696035645618888e+00
2.327696035645618888e+00
2.302757774590289408e+00
2.302757774590289408e+00
2.302757774590289408e+00
2.302757774590289408e+00
2.287944822534867306e+00
2.287944822534867306e+00
2.287944822534867306e+00
2.272381847590563719e+00
2.272381847590563719e+00
2.272381847590563719e+00
2.257381389812921579e+00
2.257381389812921579e+00
2.257381389812921579e+00
2.257381389812921579e+00
2.252693746757408633e+00
2.252693746757408633e+00
2.252693746757408633e+00
2.235818231757560781e+00
2.235818231757560781e+00
2.235818231757560781e+00
2.235818231757560781e+00
2.259818964201788294e+00
2.259818964201788294e+00
2.259818964201788294e+00
2.311195532090212890e+00
2.311195532090212890e+00
2.311195532090212890e+00
2.311195532090212890e+00
2.322070863979003530e+00
2.322070863979003530e+00
2.322070863979003530e+00
2.348884182256538722e+00
2.348884182256538722e+00
2.348884182256538722e+00
2.367447248756370914e+00
2.367447248756370914e+00
2.350384228034303025e+00
2.350384228034303025e+00
2.350384228034303025e+00
2.330321115756706529e+00
2.330321115756706529e+00
2.330321115756706529e+00
2.330321115756706529e+00
2.304445326090273749e+00
2.304445326090273749e+00
2.304445326090273749e+00
2.285882259590441556e+00
2.285882259590441556e+00
2.285882259590441556e+00
2.275569444868312807e+00
2.275569444868312807e+00
2.275569444868312807e+00
2.275569444868312807e+00
2.261881527146214044e+00
2.261881527146214044e+00
2.261881527146214044e+00
2.263756584368419311e+00
2.263756584368419311e+00
2.263756584368419311e+00
2.263756584368419311e+00
2.254006286812952009e+00
2.254006286812952009e+00
2.254006286812952009e+00
2.247068575090792386e+00
2.247068575090792386e+00
2.247068575090792386e+00
2.247068575090792386e+00
2.277444502090518075e+00
2.277444502090518075e+00
2.277444502090518075e+00
2.321695852534562121e+00
2.321695852534562121e+00
2.321695852534562121e+00
2.336883816034425188e+00
2.336883816034425188e+00
2.336883816034425188e+00
2.336883816034425188e+00
2.361634571367534630e+00
2.361634571367534630e+00
2.361634571367534630e+00
2.368759788811914291e+00
2.368759788811914291e+00
2.368759788811914291e+00
2.368759788811914291e+00
2.344196539201025331e+00
2.344196539201025331e+00
2.344196539201025331e+00
2.319258278145695407e+00
2.319258278145695407e+00
2.319258278145695407e+00
2.293569994201483109e+00
2.293569994201483109e+00
2.293569994201483109e+00
2.293569994201483109e+00
2.277444502090518075e+00
2.277444502090518075e+00
2.277444502090518075e+00
2.264319101535081202e+00
2.264319101535081202e+00
2.264319101535081202e+00
2.264319101535081202e+00
2.249881160924100509e+00
2.249881160924100509e+00
2.249881160924100509e+00
2.263194067201757864e+00
2.263194067201757864e+00
2.263194067201757864e+00
2.254381298257393418e+00
2.254381298257393418e+00
2.254381298257393418e+00
2.254381298257393418e+00
2.250068666646320992e+00
2.250068666646320992e+00
2.250068666646320992e+00
2.293945005645924073e+00
2.293945005645924073e+00
2.293945005645924073e+00
2.293945005645924073e+00
2.324133426923429280e+00
2.324133426923429280e+00
2.324133426923429280e+00
2.341383953367717208e+00
2.341383953367717208e+00
2.341383953367717208e+00
2.341383953367717208e+00
2.361447065645314147e+00
2.361447065645314147e+00
2.361447065645314147e+00
2.358071962645344577e+00
2.358071962645344577e+00
2.358071962645344577e+00
2.335758781701101849e+00
2.335758781701101849e+00
2.335758781701101849e+00
2.335758781701101849e+00
2.322070863979003530e+00
2.322070863979003530e+00
2.322070863979003530e+00
2.298632648701437464e+00
2.298632648701437464e+00
2.298632648701437464e+00
2.298632648701437464e+00
2.291507431257057803e+00
2.291507431257057803e+00
2.291507431257057803e+00
2.281757133701590057e+00
2.281757133701590057e+00
2.281757133701590057e+00
2.271819330423901828e+00
2.271819330423901828e+00
2.271819330423901828e+00
2.267694204535050773e+00
2.267694204535050773e+00
2.267694204535050773e+00
2.250631183812982439e+00
2.250631183812982439e+00
2.250631183812982439e+00
2.251943723868526259e+00
2.251943723868526259e+00
2.251943723868526259e+00
2.251943723868526259e+00
2.304632831812494231e+00
2.304632831812494231e+00
2.304632831812494231e+00
2.330508621478927012e+00
2.330508621478927012e+00
2.330508621478927012e+00
2.354696859645375007e+00
2.354696859645375007e+00
2.354696859645375007e+00
2.354696859645375007e+00
2.363697134311959935e+00
2.363697134311959935e+00
2.363697134311959935e+00
2.344196539201025331e+00
2.344196539201025331e+00
2.344196539201025331e+00
2.329571092867824156e+00
2.329571092867824156e+00
2.329571092867824156e+00
2.329571092867824156e+00
2.307257911923581428e+00
2.307257911923581428e+00
2.307257911923581428e+00
2.281007110812707683e+00
2.281007110812707683e+00
2.281007110812707683e+00
2.281007110812707683e+00
2.272569353312784202e+00
2.272569353312784202e+00
2.272569353312784202e+00
2.260943998535111632e+00
2.260943998535111632e+00
2.260943998535111632e+00
2.241068391979735619e+00
2.241068391979735619e+00
2.241068391979735619e+00
2.241068391979735619e+00
2.260568987090670667e+00
2.260568987090670667e+00
2.260568987090670667e+00
2.247068575090792386e+00
2.247068575090792386e+00
2.247068575090792386e+00
2.247068575090792386e+00
2.264319101535081202e+00
2.264319101535081202e+00
2.264319101535081202e+00
2.316820703756828248e+00
2.316820703756828248e+00
2.316820703756828248e+00
2.333883724478896582e+00
2.333883724478896582e+00
2.333883724478896582e+00
2.333883724478896582e+00
2.362009582811975594e+00
2.362009582811975594e+00
2.362009582811975594e+00
2.364259651478621826e+00
2.364259651478621826e+00
2.364259651478621826e+00
2.364259651478621826e+00
2.335758781701101849e+00
2.335758781701101849e+00
2.335758781701101849e+00
2.324508438367870244e+00
2.324508438367870244e+00
2.324508438367870244e+00
2.324508438367870244e+00
2.308195440534684284e+00
2.308195440534684284e+00
2.308195440534684284e+00
2.300132694479201767e+00
2.300132694479201767e+00
2.300132694479201767e+00
2.288319833979308715e+00
2.288319833979308715e+00
2.288319833979308715e+00
2.288319833979308715e+00
2.275381939146092325e+00
2.275381939146092325e+00
2.275381939146092325e+00
2.268631733146153184e+00
2.268631733146153184e+00
2.268631733146153184e+00
2.247256080813012868e+00
2.247256080813012868e+00
2.247256080813012868e+00
2.247256080813012868e+00
2.239380840479750834e+00
2.239380840479750834e+00
2.239380840479750834e+00
2.259818964201788294e+00
2.259818964201788294e+00
2.259818964201788294e+00
2.259818964201788294e+00
2.317383220923490139e+00
2.317383220923490139e+00
2.317383220923490139e+00
2.337633838923307117e+00
2.337633838923307117e+00
2.337633838923307117e+00
2.337633838923307117e+00
2.365384685811944721e+00
2.365384685811944721e+00
2.365384685811944721e+00
2.365947202978606612e+00
2.365947202978606612e+00
2.365947202978606612e+00
2.332383678701132279e+00
2.332383678701132279e+00
2.332383678701132279e+00
2.332383678701132279e+00
2.326758507034516477e+00
2.326758507034516477e+00
2.326758507034516477e+00
2.301257728812525105e+00
2.301257728812525105e+00
2.301257728812525105e+00
2.301257728812525105e+00
2.291319925534837321e+00
2.291319925534837321e+00
2.291319925534837321e+00
2.283632190923795324e+00
2.283632190923795324e+00
2.283632190923795324e+00
2.266944181646168399e+00
2.266944181646168399e+00
2.266944181646168399e+00
2.266944181646168399e+00
2.262819055757316900e+00
2.262819055757316900e+00
2.262819055757316900e+00
2.242568437757499922e+00
2.242568437757499922e+00
2.242568437757499922e+00
2.242568437757499922e+00
2.235818231757560781e+00
2.235818231757560781e+00
2.235818231757560781e+00
2.283819696646015807e+00
2.283819696646015807e+00
2.283819696646015807e+00
2.283819696646015807e+00
2.318133243812372069e+00
2.318133243812372069e+00
2.318133243812372069e+00
2.349446699423200169e+00
2.349446699423200169e+00
2.349446699423200169e+00
2.377197546311838217e+00
2.377197546311838217e+00
2.377197546311838217e+00
2.377197546311838217e+00
2.366134708700827094e+00
2.366134708700827094e+00
2.366134708700827094e+00
2.335196264534440402e+00
2.335196264534440402e+00
2.335196264534440402e+00
2.319820795312356854e+00
2.319820795312356854e+00
2.319820795312356854e+00
2.319820795312356854e+00
2.294320017090365038e+00
2.294320017090365038e+00
2.294320017090365038e+00
2.288319833979308715e+00
2.288319833979308715e+00
2.288319833979308715e+00
2.288319833979308715e+00
2.278007019257179522e+00
2.278007019257179522e+00
2.278007019257179522e+00
2.272569353312784202e+00
2.272569353312784202e+00
2.272569353312784202e+00
2.266944181646168399e+00
2.266944181646168399e+00
2.266944181646168399e+00
2.266944181646168399e+00
2.241818414868617992e+00
2.241818414868617992e+00
2.241818414868617992e+00
2.251943723868526259e+00
2.251943723868526259e+00
2.251943723868526259e+00
2.251943723868526259e+00
2.302195257423627517e+00
2.302195257423627517e+00
2.302195257423627517e+00
2.332383678701132279e+00
2.332383678701132279e+00
2.332383678701132279e+00
2.332383678701132279e+00
2.360134525589770327e+00
2.360134525589770327e+00
2.360134525589770327e+00
2.369322305978576182e+00
2.369322305978576182e+00
2.369322305978576182e+00
2.342133976256599581e+00
2.342133976256599581e+00
2.342133976256599581e+00
2.342133976256599581e+00
2.307820429090243319e+00
2.307820429090243319e+00
2.307820429090243319e+00
2.295632557145908859e+00
2.295632557145908859e+00
2.295632557145908859e+00
2.295632557145908859e+00
2.281194616534928166e+00
2.281194616534928166e+00
2.281194616534928166e+00
2.277444502090518075e+00
2.277444502090518075e+00
2.277444502090518075e+00
2.266944181646168399e+00
2.266944181646168399e+00
2.266944181646168399e+00
2.266944181646168399e+00
2.253443769646290562e+00
2.253443769646290562e+00
2.253443769646290562e+00
2.245006012146367080e+00
2.245006012146367080e+00
2.245006012146367080e+00
2.245006012146367080e+00
2.241818414868617992e+00
2.241818414868617992e+00
2.241818414868617992e+00
2.267506698812830290e+00
2.267506698812830290e+00
2.267506698812830290e+00
2.320570818201239227e+00
2.320570818201239227e+00
2.320570818201239227e+00
2.320570818201239227e+00
2.342696493423261028e+00
2.342696493423261028e+00
2.342696493423261028e+00
2.368009765923032361e+00
2.368009765923032361e+00
2.368009765923032361e+00
2.368009765923032361e+00
2.373072420422986717e+00
2.373072420422986717e+00
2.373072420422986717e+00
2.346071596423230599e+00
2.346071596423230599e+00
2.346071596423230599e+00
2.326195989867855030e+00
2.326195989867855030e+00
2.326195989867855030e+00
2.326195989867855030e+00
2.302757774590289408e+00
2.302757774590289408e+00
2.302757774590289408e+00
2.284194708090456771e+00
2.284194708090456771e+00
2.284194708090456771e+00
2.284194708090456771e+00
2.273319376201666131e+00
2.273319376201666131e+00
2.273319376201666131e+00
2.270131778923917043e+00
2.270131778923917043e+00
2.270131778923917043e+00
2.270131778923917043e+00
2.272194341868343237e+00
2.272194341868343237e+00
2.272194341868343237e+00
2.249881160924100509e+00
2.249881160924100509e+00
2.249881160924100509e+00
2.241443403424177028e+00
2.241443403424177028e+00
2.241443403424177028e+00
2.241443403424177028e+00
2.277819513534959039e+00
2.277819513534959039e+00
2.277819513534959039e+00
2.326008484145634547e+00
2.326008484145634547e+00
2.326008484145634547e+00
2.326008484145634547e+00
2.341571459089938134e+00
2.341571459089938134e+00
2.341571459089938134e+00
2.363697134311959935e+00
2.363697134311959935e+00
2.363697134311959935e+00
2.356571916867580274e+00
2.356571916867580274e+00
2.356571916867580274e+00
2.356571916867580274e+00
2.331258644367808941e+00
2.331258644367808941e+00
2.331258644367808941e+00
2.322070863979003530e+00
2.322070863979003530e+00
2.322070863979003530e+00
2.322070863979003530e+00
2.295445051423688376e+00
2.295445051423688376e+00
2.295445051423688376e+00
2.289444868312631609e+00
2.289444868312631609e+00
2.289444868312631609e+00
2.287007293923764895e+00
2.287007293923764895e+00
2.287007293923764895e+00
2.287007293923764895e+00
2.272944364757225166e+00
2.272944364757225166e+00
2.272944364757225166e+00
2.262256538590655452e+00
2.262256538590655452e+00
2.262256538590655452e+00
2.262256538590655452e+00
2.239005829035309869e+00
2.239005829035309869e+00
2.239005829035309869e+00
2.240880886257515137e+00
2.240880886257515137e+00
2.240880886257515137e+00
2.240880886257515137e+00
2.298445142979216982e+00
2.298445142979216982e+00
2.298445142979216982e+00
2.327696035645618888e+00
2.327696035645618888e+00
2.327696035645618888e+00
2.357509445478682686e+00
2.357509445478682686e+00
2.357509445478682686e+00
2.357509445478682686e+00
2.382822717978454019e+00
2.382822717978454019e+00
2.382822717978454019e+00
2.368947294534135217e+00
2.368947294534135217e+00
2.368947294534135217e+00
2.368947294534135217e+00
2.342696493423261028e+00
2.342696493423261028e+00
2.342696493423261028e+00
2.327883541367839371e+00
2.327883541367839371e+00
2.327883541367839371e+00
2.294882534257026929e+00
2.294882534257026929e+00
2.294882534257026929e+00
2.294882534257026929e+00
2.267506698812830290e+00
2.267506698812830290e+00
2.267506698812830290e+00
2.256256355479598685e+00
2.256256355479598685e+00
2.256256355479598685e+00
2.256256355479598685e+00
2.257381389812921579e+00
2.257381389812921579e+00
2.257381389812921579e+00
2.267319193090609808e+00
2.267319193090609808e+00
2.267319193090609808e+00
2.267319193090609808e+00
2.252318735312967224e+00
2.252318735312967224e+00
2.252318735312967224e+00
2.267881710257271255e+00
2.267881710257271255e+00
2.267881710257271255e+00
2.302570268868068482e+00
2.302570268868068482e+00
2.302570268868068482e+00
2.302570268868068482e+00
2.320758323923459709e+00
2.320758323923459709e+00
2.320758323923459709e+00
2.349259193700979687e+00
2.349259193700979687e+00
2.349259193700979687e+00
2.349259193700979687e+00
2.360697042756431774e+00
2.360697042756431774e+00
2.360697042756431774e+00
2.344946562089907705e+00
2.344946562089907705e+00
2.344946562089907705e+00
2.332758690145573244e+00
2.332758690145573244e+00
2.332758690145573244e+00
2.332758690145573244e+00
2.311945554979094819e+00
2.311945554979094819e+00
2.311945554979094819e+00
2.278007019257179522e+00
2.278007019257179522e+00
2.278007019257179522e+00
2.278007019257179522e+00
2.263569078646198829e+00
2.263569078646198829e+00
2.263569078646198829e+00
2.253068758201849597e+00
2.253068758201849597e+00
2.253068758201849597e+00
2.253068758201849597e+00
2.256818872646260132e+00
2.256818872646260132e+00
2.256818872646260132e+00
2.253256263924070080e+00
2.253256263924070080e+00
2.253256263924070080e+00
2.241255897701956545e+00
2.241255897701956545e+00
2.241255897701956545e+00
2.241255897701956545e+00
2.273694387646107540e+00
2.273694387646107540e+00
2.273694387646107540e+00
2.333883724478896582e+00
2.333883724478896582e+00
2.333883724478896582e+00
2.333883724478896582e+00
2.346446607867672007e+00
2.346446607867672007e+00
2.346446607867672007e+00
2.377947569200720146e+00
2.377947569200720146e+00
2.377947569200720146e+00
2.376260017700735361e+00
2.376260017700735361e+00
2.376260017700735361e+00
2.376260017700735361e+00
2.348134159367656792e+00
2.348134159367656792e+00
2.348134159367656792e+00
2.331633655812249906e+00
2.331633655812249906e+00
2.331633655812249906e+00
2.308945463423566213e+00
2.308945463423566213e+00
2.308945463423566213e+00
2.308945463423566213e+00
2.301820245979186552e+00
2.301820245979186552e+00
2.301820245979186552e+00
2.280632099368266719e+00
2.280632099368266719e+00
2.280632099368266719e+00
2.280632099368266719e+00
2.249693655201880027e+00
2.249693655201880027e+00
2.249693655201880027e+00
2.236005737479781263e+00
2.236005737479781263e+00
2.236005737479781263e+00
2.233380657368694511e+00
2.233380657368694511e+00
2.233380657368694511e+00
2.233380657368694511e+00
2.243318460646382295e+00
2.243318460646382295e+00
2.243318460646382295e+00
2.299945188756981285e+00
2.299945188756981285e+00
2.299945188756981285e+00
2.299945188756981285e+00
2.356384411145359792e+00
2.356384411145359792e+00
2.356384411145359792e+00
2.353196813867610704e+00
2.353196813867610704e+00
2.353196813867610704e+00
2.353196813867610704e+00
2.375885006256294396e+00
2.375885006256294396e+00
2.375885006256294396e+00
2.360134525589770327e+00
2.360134525589770327e+00
2.360134525589770327e+00
2.334633747367778511e+00
2.334633747367778511e+00
2.334633747367778511e+00
2.334633747367778511e+00
2.326946012756737403e+00
2.326946012756737403e+00
2.326946012756737403e+00
2.290569902645954947e+00
2.290569902645954947e+00
2.290569902645954947e+00
2.290569902645954947e+00
2.281007110812707683e+00
2.281007110812707683e+00
2.281007110812707683e+00
2.275381939146092325e+00
2.275381939146092325e+00
2.275381939146092325e+00
2.275381939146092325e+00
2.265631641590625023e+00
2.265631641590625023e+00
2.265631641590625023e+00
2.284569719534897736e+00
2.284569719534897736e+00
2.284569719534897736e+00
2.278007019257179522e+00
2.278007019257179522e+00
2.278007019257179522e+00
2.278007019257179522e+00
2.266381664479506952e+00
2.266381664479506952e+00
2.266381664479506952e+00
2.280069582201605716e+00
2.280069582201605716e+00
2.280069582201605716e+00
2.280069582201605716e+00
2.287382305368205859e+00
2.287382305368205859e+00
2.287382305368205859e+00
2.318508255256813033e+00
2.318508255256813033e+00
2.318508255256813033e+00
2.333321207312235135e+00
2.333321207312235135e+00
2.333321207312235135e+00
2.333321207312235135e+00
2.305570360423596643e+00
2.305570360423596643e+00
2.305570360423596643e+00
2.308382946256904766e+00
2.308382946256904766e+00
2.308382946256904766e+00
2.308382946256904766e+00
2.324695944090090727e+00
2.324695944090090727e+00
2.324695944090090727e+00
2.313445600756859122e+00
2.313445600756859122e+00
2.313445600756859122e+00
2.291132419812616394e+00
2.291132419812616394e+00
2.291132419812616394e+00
2.291132419812616394e+00
2.270506790368358452e+00
2.270506790368358452e+00
2.270506790368358452e+00
2.266194158757286470e+00
2.266194158757286470e+00
2.266194158757286470e+00
2.266194158757286470e+00
2.260568987090670667e+00
2.260568987090670667e+00
2.260568987090670667e+00
2.246881069368571904e+00
2.246881069368571904e+00
2.246881069368571904e+00
2.246881069368571904e+00
2.252506241035188150e+00
2.252506241035188150e+00
2.252506241035188150e+00
2.320758323923459709e+00
2.320758323923459709e+00
2.320758323923459709e+00
2.362009582811975594e+00
2.362009582811975594e+00
2.362009582811975594e+00
2.362009582811975594e+00
2.410198553422650658e+00
2.410198553422650658e+00
2.410198553422650658e+00
2.428949125644703777e+00
2.428949125644703777e+00
2.428949125644703777e+00
2.428949125644703777e+00
2.378322580645161111e+00
2.378322580645161111e+00
2.378322580645161111e+00
2.313820612201300086e+00
2.313820612201300086e+00
2.313820612201300086e+00
2.260381481368449741e+00
2.260381481368449741e+00
2.260381481368449741e+00
2.260381481368449741e+00
2.249318643757439062e+00
2.249318643757439062e+00
2.249318643757439062e+00
2.245943540757469048e+00
2.245943540757469048e+00
2.245943540757469048e+00
2.245943540757469048e+00
2.243693472090823260e+00
2.243693472090823260e+00
2.243693472090823260e+00
2.268256721701712220e+00
2.268256721701712220e+00
2.268256721701712220e+00
2.249131138035218136e+00
2.249131138035218136e+00
2.249131138035218136e+00
2.249131138035218136e+00
2.261506515701773079e+00
2.261506515701773079e+00
2.261506515701773079e+00
2.318508255256813033e+00
2.318508255256813033e+00
2.318508255256813033e+00
2.318508255256813033e+00
2.313820612201300086e+00
2.313820612201300086e+00
2.313820612201300086e+00
2.298445142979216982e+00
2.298445142979216982e+00
2.298445142979216982e+00
2.287382305368205859e+00
2.287382305368205859e+00
2.287382305368205859e+00
2.287382305368205859e+00
2.299570177312540320e+00
2.299570177312540320e+00
2.299570177312540320e+00
2.307257911923581428e+00
2.307257911923581428e+00
2.307257911923581428e+00
2.307257911923581428e+00
2.295257545701467894e+00
2.295257545701467894e+00
2.295257545701467894e+00
2.287757316812646824e+00
2.287757316812646824e+00
2.287757316812646824e+00
2.287757316812646824e+00
2.307257911923581428e+00
2.307257911923581428e+00
2.307257911923581428e+00
2.302195257423627517e+00
2.302195257423627517e+00
2.302195257423627517e+00
2.296945097201452679e+00
2.296945097201452679e+00
2.296945097201452679e+00
2.296945097201452679e+00
2.296945097201452679e+00
2.296945097201452679e+00
2.296945097201452679e+00
2.272569353312784202e+00
2.272569353312784202e+00
2.272569353312784202e+00
2.272569353312784202e+00
2.280819605090487201e+00
2.280819605090487201e+00
2.280819605090487201e+00
2.332008667256691314e+00
2.332008667256691314e+00
2.332008667256691314e+00
2.359572008423108880e+00
2.359572008423108880e+00
2.359572008423108880e+00
2.359572008423108880e+00
2.383010223700674501e+00
2.383010223700674501e+00
2.383010223700674501e+00
2.393323038422803695e+00
2.393323038422803695e+00
2.393323038422803695e+00
2.393323038422803695e+00
2.377010040589617734e+00
2.377010040589617734e+00
2.377010040589617734e+00
2.313820612201300086e+00
2.313820612201300086e+00
2.313820612201300086e+00
2.313820612201300086e+00
2.299382671590319838e+00
2.299382671590319838e+00
2.299382671590319838e+00
2.286819788201544412e+00
2.286819788201544412e+00
2.286819788201544412e+00
2.270131778923917043e+00
2.270131778923917043e+00
2.270131778923917043e+00
2.270131778923917043e+00
2.253443769646290562e+00
2.253443769646290562e+00
2.253443769646290562e+00
2.251193700979644330e+00
2.251193700979644330e+00
2.251193700979644330e+00
2.251193700979644330e+00
2.244818506424146598e+00
2.244818506424146598e+00
2.244818506424146598e+00
2.226067934202093479e+00
2.226067934202093479e+00
2.226067934202093479e+00
2.242568437757499922e+00
2.242568437757499922e+00
2.242568437757499922e+00
2.242568437757499922e+00
2.283632190923795324e+00
2.283632190923795324e+00
2.283632190923795324e+00
2.335383770256660885e+00
2.335383770256660885e+00
2.335383770256660885e+00
2.335383770256660885e+00
2.373072420422986717e+00
2.373072420422986717e+00
2.373072420422986717e+00
2.386385326700643628e+00
2.386385326700643628e+00
2.386385326700643628e+00
2.353571825312051669e+00
2.353571825312051669e+00
2.308195440534684284e+00
2.308195440534684284e+00
2.308195440534684284e+00
2.297507614368114126e+00
2.297507614368114126e+00
2.297507614368114126e+00
2.297507614368114126e+00
2.289632374034852091e+00
2.289632374034852091e+00
2.289632374034852091e+00
2.299382671590319838e+00
2.293569994201483109e+00
2.293569994201483109e+00
2.296945097201452679e+00
2.296945097201452679e+00
2.287382305368205859e+00
2.252131229590746742e+00
2.252131229590746742e+00
2.265444135868404540e+00
2.265444135868404540e+00
2.287382305368205859e+00
2.306320383312479017e+00
2.306320383312479017e+00
2.367447248756370914e+00
2.380385143589587305e+00
2.380385143589587305e+00
2.358634479812006024e+00
2.358634479812006024e+00
2.317383220923490139e+00
2.295820062868129341e+00
2.295820062868129341e+00
2.299195165868098911e+00
2.299195165868098911e+00
2.291882442701498768e+00
2.275194433423871843e+00
2.275194433423871843e+00
2.277069490646077110e+00
2.277069490646077110e+00
2.265444135868404540e+00
2.242755943479720404e+00
2.242755943479720404e+00
2.256443861201819168e+00
2.286632282479323930e+00
2.286632282479323930e+00
2.292632465590380253e+00
2.292632465590380253e+00
2.321508346812341639e+00
2.356759422589800756e+00
2.356759422589800756e+00
2.313820612201300086e+00
2.313820612201300086e+00
2.310445509201330516e+00
2.308382946256904766e+00
2.308382946256904766e+00
2.313258095034638639e+00
2.313258095034638639e+00
2.302757774590289408e+00
2.277444502090518075e+00
2.277444502090518075e+00
2.281007110812707683e+00
2.255693838312936794e+00
2.255693838312936794e+00
2.254193792535172935e+00
2.283819696646015807e+00
2.283819696646015807e+00
2.291507431257057803e+00
2.291507431257057803e+00
2.316633198034607766e+00
2.329571092867824156e+00
2.329571092867824156e+00
2.323758415478988315e+00
2.301632740256966070e+00
2.301632740256966070e+00
2.325258461256752618e+00
2.325258461256752618e+00
2.315883175145725836e+00
2.295820062868129341e+00
2.295820062868129341e+00
2.284944730979339145e+00
2.284944730979339145e+00
2.280819605090487201e+00
2.287194799645985377e+00
2.287194799645985377e+00
2.253631275368511044e+00
2.253631275368511044e+00
2.269569261757255596e+00
2.305945371868038052e+00
2.305945371868038052e+00
2.353384319589831186e+00
2.357696951200903612e+00
2.357696951200903612e+00
2.348884182256538722e+00
2.348884182256538722e+00
2.339883907589953349e+00
2.310633014923550999e+00
2.310633014923550999e+00
2.289069856868190644e+00
2.289069856868190644e+00
2.261881527146214044e+00
2.274256904812768987e+00
2.274256904812768987e+00
2.285694753868221074e+00
2.285694753868221074e+00
2.257756401257362544e+00
2.240130863368633207e+00
2.240130863368633207e+00
2.243130954924161813e+00
2.282507156590471986e+00
2.282507156590471986e+00
2.331633655812249906e+00
2.331633655812249906e+00
2.368384777367473326e+00
2.393885555589465142e+00
2.393885555589465142e+00
2.372884914700766235e+00
2.372884914700766235e+00
2.318133243812372069e+00
2.304820337534714714e+00
2.304820337534714714e+00
2.286819788201544412e+00
2.286819788201544412e+00
2.284194708090456771e+00
2.284757225257118218e+00
2.284757225257118218e+00
2.261881527146214044e+00
2.286819788201544412e+00
2.286819788201544412e+00
2.285132236701559627e+00
2.285132236701559627e+00
2.282319650868251504e+00
2.304257820368053267e+00
2.304257820368053267e+00
2.344946562089907705e+00
2.344946562089907705e+00
2.364447157200842309e+00
2.374947477645191540e+00
2.374947477645191540e+00
2.349259193700979687e+00
2.349259193700979687e+00
2.311758049256874337e+00
2.304820337534714714e+00
2.304820337534714714e+00
2.305570360423596643e+00
2.298820154423657947e+00
2.298820154423657947e+00
2.261319009979552597e+00
2.261319009979552597e+00
2.226255439924313961e+00
2.224380382702108694e+00
2.224380382702108694e+00
2.251756218146305777e+00
2.251756218146305777e+00
2.251193700979644330e+00
2.281007110812707683e+00
2.281007110812707683e+00
2.315883175145725836e+00
2.315883175145725836e+00
2.337446333201086635e+00
2.335571275978881367e+00
2.335571275978881367e+00
2.339508896145511940e+00
2.341571459089938134e+00
2.341571459089938134e+00
2.307257911923581428e+00
2.307257911923581428e+00
2.267319193090609808e+00
2.276506973479415219e+00
2.276506973479415219e+00
2.296382580034791232e+00
2.296382580034791232e+00
2.284194708090456771e+00
2.284944730979339145e+00
2.284944730979339145e+00
2.270881801812799416e+00
2.270881801812799416e+00
2.288132328257088233e+00
2.330883632923367976e+00
2.330883632923367976e+00
2.383572740867336393e+00
2.375509994811853431e+00
2.375509994811853431e+00
2.314945646534623425e+00
2.314945646534623425e+00
2.309695486312448587e+00
2.291507431257057803e+00
2.291507431257057803e+00
2.278944547868282378e+00
2.278944547868282378e+00
2.264694112979522167e+00
2.259631458479567812e+00
2.259631458479567812e+00
2.305007843256935196e+00
2.305007843256935196e+00
2.318133243812372069e+00
2.308757957701345731e+00
2.308757957701345731e+00
2.314945646534623425e+00
2.314945646534623425e+00
2.317383220923490139e+00
2.331258644367808941e+00
2.331258644367808941e+00
2.347196630756553937e+00
2.347196630756553937e+00
2.363134617145298488e+00
2.332758690145573244e+00
2.332758690145573244e+00
2.340821436201055761e+00
2.342696493423261028e+00
2.342696493423261028e+00
2.338008850367748082e+00
2.338008850367748082e+00
2.297320108645893644e+00
2.252881252479629115e+00
2.252881252479629115e+00
2.236193243202001746e+00
2.236193243202001746e+00
2.238818323313089387e+00
2.214442579424420909e+00
2.214442579424420909e+00
2.205629810480056463e+00
2.205629810480056463e+00
2.268069215979491737e+00
2.285882259590441556e+00
2.285882259590441556e+00
2.322633381145664977e+00
2.363322122867518971e+00
2.363322122867518971e+00
2.322445875423444495e+00
2.322445875423444495e+00
2.297320108645893644e+00
2.306132877590258534e+00
2.306132877590258534e+00
2.316633198034607766e+00
2.316633198034607766e+00
2.332758690145573244e+00
2.318133243812372069e+00
2.318133243812372069e+00
2.346821619312112972e+00
2.346821619312112972e+00
2.321883358256782603e+00
2.222317819757682944e+00
2.222317819757682944e+00
2.227005462813196335e+00
2.227005462813196335e+00
2.252693746757408633e+00
2.238068300424207457e+00
2.238068300424207457e+00
2.262256538590655452e+00
2.262256538590655452e+00
2.350571733756523507e+00
2.356759422589800756e+00
2.356759422589800756e+00
2.362384594256416559e+00
2.340446424756614796e+00
2.340446424756614796e+00
2.321883358256782603e+00
2.321883358256782603e+00
2.343259010589922919e+00
2.341571459089938134e+00
2.341571459089938134e+00
2.298632648701437464e+00
2.298632648701437464e+00
2.241255897701956545e+00
2.188004272591326682e+00
2.188004272591326682e+00
2.229255531479842567e+00
2.229255531479842567e+00
2.247443586535233351e+00
2.277819513534959039e+00
2.277819513534959039e+00
2.366134708700827094e+00
2.366134708700827094e+00
2.372884914700766235e+00
2.363134617145298488e+00
2.363134617145298488e+00
2.374759971922971058e+00
2.350946745200964472e+00
2.350946745200964472e+00
2.280257087923826198e+00
2.280257087923826198e+00
2.267131687368389326e+00
2.244443494979705633e+00
2.244443494979705633e+00
2.226630451368755370e+00
2.207317361980041248e+00
2.207317361980041248e+00
2.249506149479659545e+00
2.249506149479659545e+00
2.312883083590197675e+00
2.365009674367503756e+00
2.365009674367503756e+00
2.368197271645252844e+00
2.368197271645252844e+00
2.364259651478621826e+00
2.353384319589831186e+00
2.353384319589831186e+00
2.352071779534287366e+00
2.352071779534287366e+00
2.335196264534440402e+00
2.335571275978881367e+00
2.335571275978881367e+00
2.281007110812707683e+00
2.281007110812707683e+00
2.267694204535050773e+00
2.273319376201666131e+00
2.273319376201666131e+00
2.267506698812830290e+00
2.275381939146092325e+00
2.275381939146092325e+00
2.251756218146305777e+00
2.251756218146305777e+00
2.287382305368205859e+00
2.207692373424482213e+00
2.207692373424482213e+00
2.221567796868801015e+00
2.221567796868801015e+00
2.300695211645863214e+00
2.348696676534318240e+00
2.348696676534318240e+00
2.367072237311929506e+00
2.367072237311929506e+00
2.337071321756645670e+00
2.311383037812433372e+00
2.311383037812433372e+00
2.321883358256782603e+00
2.319070772423474924e+00
2.319070772423474924e+00
2.279319559312723342e+00
2.279319559312723342e+00
2.266569170201727434e+00
2.233005645924253102e+00
2.233005645924253102e+00
2.275194433423871843e+00
2.275194433423871843e+00
2.328821069978942226e+00
2.325820978423414065e+00
2.325820978423414065e+00
2.337633838923307117e+00
2.337633838923307117e+00
2.326758507034516477e+00
2.356009399700918827e+00
2.356009399700918827e+00
2.384885280922879769e+00
2.375134983367412023e+00
2.375134983367412023e+00
2.331071138645588459e+00
2.331071138645588459e+00
2.298632648701437464e+00
2.282507156590471986e+00
2.282507156590471986e+00
2.254381298257393418e+00
2.254381298257393418e+00
2.224380382702108694e+00
2.197754570146794428e+00
2.197754570146794428e+00
2.263381572923978347e+00
2.263381572923978347e+00
2.326946012756737403e+00
2.353946836756492633e+00
2.353946836756492633e+00
2.385447798089541660e+00
2.385447798089541660e+00
2.354509353923154524e+00
2.275944456312753772e+00
2.275944456312753772e+00
2.276319467757194737e+00
2.215755119479964730e+00
2.215755119479964730e+00
2.201879696035645484e+00
2.201879696035645484e+00
2.245193517868587563e+00
2.267694204535050773e+00
2.267694204535050773e+00
2.300882717368083696e+00
2.300882717368083696e+00
2.284382213812677254e+00
2.297695120090334608e+00
2.297695120090334608e+00
2.311383037812433372e+00
2.311383037812433372e+00
2.310258003479110034e+00
2.353946836756492633e+00
2.353946836756492633e+00
2.356384411145359792e+00
2.356384411145359792e+00
2.275381939146092325e+00
2.223817865535447247e+00
2.223817865535447247e+00
2.245381023590808045e+00
2.288882351145970162e+00
2.288882351145970162e+00
2.269569261757255596e+00
2.269569261757255596e+00
2.305007843256935196e+00
2.318883266701254442e+00
2.318883266701254442e+00
2.328071047090059853e+00
2.328071047090059853e+00
2.319070772423474924e+00
2.267506698812830290e+00
2.267506698812830290e+00
2.301445234534745587e+00
2.301445234534745587e+00
2.308945463423566213e+00
2.353384319589831186e+00
2.353384319589831186e+00
2.334446241645558029e+00
2.334446241645558029e+00
2.384885280922879769e+00
2.374572466200750576e+00
2.374572466200750576e+00
2.333508713034455617e+00
2.331071138645588459e+00
2.331071138645588459e+00
2.296195074312570750e+00
2.296195074312570750e+00
2.250443678090761956e+00
2.255506332590716312e+00
2.255506332590716312e+00
2.260568987090670667e+00
2.260568987090670667e+00
2.197942075869014911e+00
2.189691824091311467e+00
2.189691824091311467e+00
2.298632648701437464e+00
2.329008575701162709e+00
2.329008575701162709e+00
2.400260750144962874e+00
2.400260750144962874e+00
2.443949583422345917e+00
2.362197088534196077e+00
2.362197088534196077e+00
2.331446150090029423e+00
2.331446150090029423e+00
2.312320566423536228e+00
2.285507248146000592e+00
2.285507248146000592e+00
2.229630542924283532e+00
2.229630542924283532e+00
2.167753654591509704e+00
2.151628162480544670e+00
2.151628162480544670e+00
2.175628894924771739e+00
2.175628894924771739e+00
2.247443586535233351e+00
2.270881801812799416e+00
2.270881801812799416e+00
2.250818689535202921e+00
2.309882992034669069e+00
2.309882992034669069e+00
2.356946928312021239e+00
2.356946928312021239e+00
2.376635029145176325e+00
2.410761070589312105e+00
2.410761070589312105e+00
2.396510635700552783e+00
2.396510635700552783e+00
2.387322855311746483e+00
2.358071962645344577e+00
2.358071962645344577e+00
2.363697134311959935e+00
2.363697134311959935e+00
2.342133976256599581e+00
2.315133152256843907e+00
2.315133152256843907e+00
2.258506424146244473e+00
2.258506424146244473e+00
2.241068391979735619e+00
2.255131321146275347e+00
2.255131321146275347e+00
2.254756309701834383e+00
2.272006836146122755e+00
2.272006836146122755e+00
2.323758415478988315e+00
2.323758415478988315e+00
2.315133152256843907e+00
2.313070589312418157e+00
2.313070589312418157e+00
2.310258003479110034e+00
2.310258003479110034e+00
2.303507797479171337e+00
2.240693380535294654e+00
2.240693380535294654e+00
2.200379650257881181e+00
2.200379650257881181e+00
2.256818872646260132e+00
2.295445051423688376e+00
2.295445051423688376e+00
2.272569353312784202e+00
2.272569353312784202e+00
2.307632923368022837e+00
2.341946470534379099e+00
2.341946470534379099e+00
2.377947569200720146e+00
2.356759422589800756e+00
2.356759422589800756e+00
2.397073152867214230e+00
2.397073152867214230e+00
2.361447065645314147e+00
2.273694387646107540e+00
2.273694387646107540e+00
2.268444227423932702e+00
2.268444227423932702e+00
2.225880428479872997e+00
2.217817682424390480e+00
2.217817682424390480e+00
2.182004089480269915e+00
2.182004089480269915e+00
2.264881618701742649e+00
2.276881984923856628e+00
2.276881984923856628e+00
2.278382030701620931e+00
2.278382030701620931e+00
2.351509262367625919e+00
2.324695944090090727e+00
2.324695944090090727e+00
2.298445142979216982e+00
2.298445142979216982e+00
2.327696035645618888e+00
2.360322031311990809e+00
2.360322031311990809e+00
2.313258095034638639e+00
2.282132145146031021e+00
2.282132145146031021e+00
2.346259102145451525e+00
2.346259102145451525e+00
2.304070314645832784e+00
2.350196722312082542e+00
2.350196722312082542e+00
2.274819421979430434e+00
2.274819421979430434e+00
2.215192602313302839e+00
2.219692739646595747e+00
2.219692739646595747e+00
2.307820429090243319e+00
2.307820429090243319e+00
2.296195074312570750e+00
2.294882534257026929e+00
2.294882534257026929e+00
2.359759514145329362e+00
2.359759514145329362e+00
2.468700338755454915e+00
2.426886562700277583e+00
2.426886562700277583e+00
2.390322946867275089e+00
2.334071230201117064e+00
2.334071230201117064e+00
2.251381206701864812e+00
2.251381206701864812e+00
2.168316171758171151e+00
2.176378917813653668e+00
2.176378917813653668e+00
2.171503769035920239e+00
2.231130588702047834e+00
2.231130588702047834e+00
2.251943723868526259e+00
2.251943723868526259e+00
2.333508713034455617e+00
2.347384136478774419e+00
2.347384136478774419e+00
2.266194158757286470e+00
2.266194158757286470e+00
2.324508438367870244e+00
2.372697408978545752e+00
2.372697408978545752e+00
2.321133335367900674e+00
2.321133335367900674e+00
2.352821802423169739e+00
2.384322763756218322e+00
2.384322763756218322e+00
2.334633747367778511e+00
2.334633747367778511e+00
2.290757408368175430e+00
2.272756859035004684e+00
2.272756859035004684e+00
2.247631092257453833e+00
2.182004089480269915e+00
2.182004089480269915e+00
2.223442854091006282e+00
2.223442854091006282e+00
2.353196813867610704e+00
2.330321115756706529e+00
2.330321115756706529e+00
2.307257911923581428e+00
2.307257911923581428e+00
2.349071687978759204e+00
2.399510727256080500e+00
2.399510727256080500e+00
2.347009125034333454e+00
2.347009125034333454e+00
2.420886379589221260e+00
2.363884640034180418e+00
2.363884640034180418e+00
2.306320383312479017e+00
2.306320383312479017e+00
2.305757866145817125e+00
2.280444593646046680e+00
2.280444593646046680e+00
2.223630359813226764e+00
2.146378002258369833e+00
2.146378002258369833e+00
2.128939970091860534e+00
2.128939970091860534e+00
2.168128666035950669e+00
2.219880245368816230e+00
2.219880245368816230e+00
2.344571550645466296e+00
2.344571550645466296e+00
2.385260292367321178e+00
2.316445692312387283e+00
2.316445692312387283e+00
2.308195440534684284e+00
2.308195440534684284e+00
2.294882534257026929e+00
2.220630268257698603e+00
2.220630268257698603e+00
2.257006378368480615e+00
2.257006378368480615e+00
2.400260750144962874e+00
2.415823725089266905e+00
2.415823725089266905e+00
2.372697408978545752e+00
2.312695577867977192e+00
2.312695577867977192e+00
2.293194982757042144e+00
2.293194982757042144e+00
2.300507705923642732e+00
2.308570451979125249e+00
2.308570451979125249e+00
2.317383220923490139e+00
2.317383220923490139e+00
2.383760246589556875e+00
2.306695394756919981e+00
2.306695394756919981e+00
2.256443861201819168e+00
2.256443861201819168e+00
2.253443769646290562e+00
2.297882625812555535e+00
2.297882625812555535e+00
2.329008575701162709e+00
2.329008575701162709e+00
2.303507797479171337e+00
2.253631275368511044e+00
2.253631275368511044e+00
2.165316080202642990e+00
2.203942258980071234e+00
2.203942258980071234e+00
2.296382580034791232e+00
2.296382580034791232e+00
2.372884914700766235e+00
2.378697592089602519e+00
2.378697592089602519e+00
2.368947294534135217e+00
2.368947294534135217e+00
2.436449354533524403e+00
2.370634846034120002e+00
2.370634846034120002e+00
2.339508896145511940e+00
2.339508896145511940e+00
2.283819696646015807e+00
2.323383404034546906e+00
2.323383404034546906e+00
2.326195989867855030e+00
2.326195989867855030e+00
2.293569994201483109e+00
2.355821893978697901e+00
2.355821893978697901e+00
2.319633289590136371e+00
2.174128849147007880e+00
2.174128849147007880e+00
2.127252418591876193e+00
2.127252418591876193e+00
2.214817590868861874e+00
2.327321024201178368e+00
2.327321024201178368e+00
2.359009491256446989e+00
2.359009491256446989e+00
2.333883724478896582e+00
2.243318460646382295e+00
2.243318460646382295e+00
2.252881252479629115e+00
2.252881252479629115e+00
2.285319742423780109e+00
2.242193426313058957e+00
2.242193426313058957e+00
2.267881710257271255e+00
2.359947019867549844e+00
2.359947019867549844e+00
2.348321665089877275e+00
2.348321665089877275e+00
2.362947111423078006e+00
2.353571825312051669e+00
2.353571825312051669e+00
2.287007293923764895e+00
2.287007293923764895e+00
2.275381939146092325e+00
2.301070223090304623e+00
2.301070223090304623e+00
2.386760338145085036e+00
2.386760338145085036e+00
2.497201208532975336e+00
2.461950132755516218e+00
2.461950132755516218e+00
2.412261116367076408e+00
2.223442854091006282e+00
2.223442854091006282e+00
2.196817041535691573e+00
2.196817041535691573e+00
2.117314615314187964e+00
2.151065645313883223e+00
2.151065645313883223e+00
2.228318002868740155e+00
2.228318002868740155e+00
2.286632282479323930e+00
2.322445875423444495e+00
2.322445875423444495e+00
2.336696310312204705e+00
2.336696310312204705e+00
2.363322122867518971e+00
2.383010223700674501e+00
2.383010223700674501e+00
2.407573473311563461e+00
2.407573473311563461e+00
2.322258369701224012e+00
2.311570543534653854e+00
2.311570543534653854e+00
2.392010498367259874e+00
2.368947294534135217e+00
2.368947294534135217e+00
2.398385692922757606e+00
2.398385692922757606e+00
2.206567339091158875e+00
2.261506515701773079e+00
2.261506515701773079e+00
2.259818964201788294e+00
2.259818964201788294e+00
2.155565782647175688e+00
2.223817865535447247e+00
2.223817865535447247e+00
2.362947111423078006e+00
2.362947111423078006e+00
2.305195348979155678e+00
2.219317728202154782e+00
2.219317728202154782e+00
2.182941618091372327e+00
2.182941618091372327e+00
2.380947660756248752e+00
2.325258461256752618e+00
2.325258461256752618e+00
2.440761986144596829e+00
2.440761986144596829e+00
2.428386608478041886e+00
2.382260200811792572e+00
2.382260200811792572e+00
2.285882259590441556e+00
2.268631733146153184e+00
2.268631733146153184e+00
2.279882076479384789e+00
2.279882076479384789e+00
2.200004638813440216e+00
2.170566240424817828e+00
2.170566240424817828e+00
2.290569902645954947e+00
2.290569902645954947e+00
2.293382488479262626e+00
2.412448622089296890e+00
2.412448622089296890e+00
2.331821161534470832e+00
2.331821161534470832e+00
2.334821253089998994e+00
2.437386883144627259e+00
2.437386883144627259e+00
2.398198187200537124e+00
2.398198187200537124e+00
2.215942625202185212e+00
2.287944822534867306e+00
2.287944822534867306e+00
2.257568895535142062e+00
2.284569719534897736e+00
2.284569719534897736e+00
2.336133793145542814e+00
2.336133793145542814e+00
2.371572374645222414e+00
2.444699606311227846e+00
2.444699606311227846e+00
2.388260383922848895e+00
2.388260383922848895e+00
2.285132236701559627e+00
2.240693380535294654e+00
2.240693380535294654e+00
2.219317728202154782e+00
2.219317728202154782e+00
2.221755302591021497e+00
2.003123630481887130e+00
2.003123630481887130e+00
1.941809259315775193e+00
2.266756675923947917e+00
2.266756675923947917e+00
2.314945646534623425e+00
2.314945646534623425e+00
2.456324961088900860e+00
2.459700064088869986e+00
2.459700064088869986e+00
2.318695760979033516e+00
2.318695760979033516e+00
2.391072969756157018e+00
2.406635944700461049e+00
2.406635944700461049e+00
2.278757042146061895e+00
2.278757042146061895e+00
2.242755943479720404e+00
2.393510544145024177e+00
2.393510544145024177e+00
2.377760063478499664e+00
2.277256996368297592e+00
2.277256996368297592e+00
2.279694570757164307e+00
2.279694570757164307e+00
2.090876308481094181e+00
2.169441206091494490e+00
2.220630268257698603e+00
2.220630268257698603e+00
2.360509537034211291e+00
2.360322031311990809e+00
2.360322031311990809e+00
2.305757866145817125e+00
2.305757866145817125e+00
2.410948576311533031e+00
2.412636127811517817e+00
2.412636127811517817e+00
2.347384136478774419e+00
2.347384136478774419e+00
2.255131321146275347e+00
2.339133884701071420e+00
2.339133884701071420e+00
2.336883816034425188e+00
2.276506973479415219e+00
2.276506973479415219e+00
2.375134983367412023e+00
2.375134983367412023e+00
2.396698141422773265e+00
2.296382580034791232e+00
2.296382580034791232e+00
2.223067842646564873e+00
2.223067842646564873e+00
2.050937589648121673e+00
2.113189489425336465e+00
2.113189489425336465e+00
2.139440290536210654e+00
2.139440290536210654e+00
2.219505233924375265e+00
2.431199194311350009e+00
2.431199194311350009e+00
2.558703085421308199e+00
2.558703085421308199e+00
2.428386608478041886e+00
2.503763908810693550e+00
2.503763908810693550e+00
2.473762993255409270e+00
2.326946012756737403e+00
2.326946012756737403e+00
2.356196905423139309e+00
2.356196905423139309e+00
2.302570268868068482e+00
2.149003082369457029e+00
2.149003082369457029e+00
2.038749717703787212e+00
2.038749717703787212e+00
2.226817957090975852e+00
2.435699331644642474e+00
2.435699331644642474e+00
2.276319467757194737e+00
2.276319467757194737e+00
2.112251960814234053e+00
2.180316537980285130e+00
2.180316537980285130e+00
2.365759697256386129e+00
2.437574388866847741e+00
2.437574388866847741e+00
2.299195165868098911e+00
2.267694204535050773e+00
2.267694204535050773e+00
2.292444959868159771e+00
2.292444959868159771e+00
2.365572191534165203e+00
2.336883816034425188e+00
2.336883816034425188e+00
2.437011871700186294e+00
2.307632923368022837e+00
2.307632923368022837e+00
2.182754112369151844e+00
2.182754112369151844e+00
2.103439191869869163e+00
2.141127842036194995e+00
2.141127842036194995e+00
2.118814661091952267e+00
2.118814661091952267e+00
2.356384411145359792e+00
2.602954435865352245e+00
2.602954435865352245e+00
2.392573015533921321e+00
2.392573015533921321e+00
2.174878872035889810e+00
2.142252876369517889e+00
2.142252876369517889e+00
2.313070589312418157e+00
2.542952604754783685e+00
2.542952604754783685e+00
2.597516769920956925e+00
2.597516769920956925e+00
2.256256355479598685e+00
2.127814935758537640e+00
2.127814935758537640e+00
2.227755485702078264e+00
2.227755485702078264e+00
2.360134525589770327e+00
2.530014709921567295e+00
2.530014709921567295e+00
2.318320749534592551e+00
2.318320749534592551e+00
2.249506149479659545e+00
2.183129123813593253e+00
2.183129123813593253e+00
2.237693288979766049e+00
2.314570635090182460e+00
2.314570635090182460e+00
2.396698141422773265e+00
2.396698141422773265e+00
2.313633106479079604e+00
2.027874385814997016e+00
2.027874385814997016e+00
1.964309945982238181e+00
1.964309945982238181e+00
2.202629718924527857e+00
2.396698141422773265e+00
2.396698141422773265e+00
2.567890865810114054e+00
2.567890865810114054e+00
2.472450453199865894e+00
2.392948026978362286e+00
2.392948026978362286e+00
2.364447157200842309e+00
2.287382305368205859e+00
2.287382305368205859e+00
2.302945280312509890e+00
2.302945280312509890e+00
2.266756675923947917e+00
2.191004364146854844e+00
2.191004364146854844e+00
2.034999603259376677e+00
2.034999603259376677e+00
2.393135532700583212e+00
2.392948026978362286e+00
2.392948026978362286e+00
2.276506973479415219e+00
2.297320108645893644e+00
2.297320108645893644e+00
2.290944914090395912e+00
2.290944914090395912e+00
2.411511093478194478e+00
2.334446241645558029e+00
2.334446241645558029e+00
2.395385601367229444e+00
2.395385601367229444e+00
2.441512009033478758e+00
2.233755668813135031e+00
2.233755668813135031e+00
2.286069765312662039e+00
2.286069765312662039e+00
2.230380565813165905e+00
2.298445142979216982e+00
2.298445142979216982e+00
2.355446882534256936e+00
2.262631550035096417e+00
2.262631550035096417e+00
2.221755302591021497e+00
2.221755302591021497e+00
2.383385235145115466e+00
2.328633564256721744e+00
2.328633564256721744e+00
2.255881344035157721e+00
2.255881344035157721e+00
2.198504593035676358e+00
2.272006836146122755e+00
2.272006836146122755e+00
2.304070314645832784e+00
2.304070314645832784e+00
2.403260841700491479e+00
2.325070955534531691e+00
2.325070955534531691e+00
2.244443494979705633e+00
2.244443494979705633e+00
1.900370494705038604e+00
2.176753929258095077e+00
2.176753929258095077e+00
2.404760887478255782e+00
2.404760887478255782e+00
2.276881984923856628e+00
2.268819238868374111e+00
2.268819238868374111e+00
2.290944914090395912e+00
2.307820429090243319e+00
2.307820429090243319e+00
2.456887478255561863e+00
2.456887478255561863e+00
2.381697683645130681e+00
2.321508346812341639e+00
2.321508346812341639e+00
2.440199468977935382e+00
2.440199468977935382e+00
2.160815942869350526e+00
2.272569353312784202e+00
2.272569353312784202e+00
2.390885464033936536e+00
2.390885464033936536e+00
2.538077455977050256e+00
2.324508438367870244e+00
2.324508438367870244e+00
2.379447614978484449e+00
2.379447614978484449e+00
2.134565141758476781e+00
2.278757042146061895e+00
2.278757042146061895e+00
2.353384319589831186e+00
2.142065370647297406e+00
2.142065370647297406e+00
2.066688070314646186e+00
2.066688070314646186e+00
2.374759971922971058e+00
2.165878597369304437e+00
2.165878597369304437e+00
2.409823541978209693e+00
2.409823541978209693e+00
2.719207983642078830e+00
2.634267891476180345e+00
2.634267891476180345e+00
2.342508987701040546e+00
2.342508987701040546e+00
2.268069215979491737e+00
2.020186651203955464e+00
2.020186651203955464e+00
2.109814386425366894e+00
2.109814386425366894e+00
2.232255623035371173e+00
2.109814386425366894e+00
2.109814386425366894e+00
2.317195715201269657e+00
2.312320566423536228e+00
2.312320566423536228e+00
2.106626789147617806e+00
2.106626789147617806e+00
2.332758690145573244e+00
2.404198370311593891e+00
2.404198370311593891e+00
2.296945097201452679e+00
2.296945097201452679e+00
2.362572099978637485e+00
2.584953886532181944e+00
2.584953886532181944e+00
2.500951322977385871e+00
2.500951322977385871e+00
2.317758232367931104e+00
2.387322855311746483e+00
2.387322855311746483e+00
2.382447706534013054e+00
2.382447706534013054e+00
2.326195989867855030e+00
2.191191869869075770e+00
2.191191869869075770e+00
2.228880520035401602e+00
2.228880520035401602e+00
2.177316446424756524e+00
1.964497451704458886e+00
1.964497451704458886e+00
2.222317819757682944e+00
2.528702169866023475e+00
2.528702169866023475e+00
2.446762169255653596e+00
2.446762169255653596e+00
2.350384228034303025e+00
2.230568071535386387e+00
2.230568071535386387e+00
2.113752006591998356e+00
2.113752006591998356e+00
2.229068025757622085e+00
2.321695852534562121e+00
2.321695852534562121e+00
2.311383037812433372e+00
2.472262947477644968e+00
2.472262947477644968e+00
2.419198828089236475e+00
2.419198828089236475e+00
2.356946928312021239e+00
2.182566606646931362e+00
2.182566606646931362e+00
2.161378460036011973e+00
2.161378460036011973e+00
2.350384228034303025e+00
2.342883999145481511e+00
2.342883999145481511e+00
2.371572374645222414e+00
2.293007477034821662e+00
2.293007477034821662e+00
2.399510727256080500e+00
2.399510727256080500e+00
2.480138187810907002e+00
2.392573015533921321e+00
2.392573015533921321e+00
2.169816217535935454e+00
2.169816217535935454e+00
2.271256813257240381e+00
2.313258095034638639e+00
2.313258095034638639e+00
2.174316354869228363e+00
2.174316354869228363e+00
2.283632190923795324e+00
2.265631641590625023e+00
2.265631641590625023e+00
2.233380657368694511e+00
2.233380657368694511e+00
2.180879055146946577e+00
2.402698324533829588e+00
2.402698324533829588e+00
2.470200384533219218e+00
2.574078554643390859e+00
2.574078554643390859e+00
2.551765373699148576e+00
2.551765373699148576e+00
2.530202215643787778e+00
2.167566148869289222e+00
2.167566148869289222e+00
1.793867244483779544e+00
1.793867244483779544e+00
1.931121433149205036e+00
2.389010406811731269e+00
2.389010406811731269e+00
2.401385784478286212e+00
2.401385784478286212e+00
2.358259468367565059e+00
2.033499557481612818e+00
2.033499557481612818e+00
1.991498275704214560e+00
1.991498275704214560e+00
2.349634205145421095e+00
2.462137638477736701e+00
2.462137638477736701e+00
2.542015076143681274e+00
2.542015076143681274e+00
2.495888668477431516e+00
2.437199377422406776e+00
2.437199377422406776e+00
2.403073335978270997e+00
2.328633564256721744e+00
2.328633564256721744e+00
2.136815210425123013e+00
2.136815210425123013e+00
2.232255623035371173e+00
2.244443494979705633e+00
2.244443494979705633e+00
2.252131229590746742e+00
2.252131229590746742e+00
2.318133243812372069e+00
2.268819238868374111e+00
2.268819238868374111e+00
2.294320017090365038e+00
2.294320017090365038e+00
2.380760155034028269e+00
2.406260933256020085e+00
2.406260933256020085e+00
2.327133518478957885e+00
2.327133518478957885e+00
2.305007843256935196e+00
2.417886288033692654e+00
2.417886288033692654e+00
2.336321298867763296e+00
2.307445417645802355e+00
2.307445417645802355e+00
2.219317728202154782e+00
2.219317728202154782e+00
2.260943998535111632e+00
2.290569902645954947e+00
2.290569902645954947e+00
2.355821893978697901e+00
2.355821893978697901e+00
2.449949766533402684e+00
2.324508438367870244e+00
2.324508438367870244e+00
2.149940610980559885e+00
2.149940610980559885e+00
2.227755485702078264e+00
2.271631824701681346e+00
2.271631824701681346e+00
2.443199560533463544e+00
2.445824640644550740e+00
2.445824640644550740e+00
2.068938138981292418e+00
2.068938138981292418e+00
2.131002533036286284e+00
2.320195806756797818e+00
2.320195806756797818e+00
2.334446241645558029e+00
2.334446241645558029e+00
2.286257271034882521e+00
2.248193609424115724e+00
2.248193609424115724e+00
2.235068208868678852e+00
2.235068208868678852e+00
2.381135166478469234e+00
2.335008758812219920e+00
2.335008758812219920e+00
2.221567796868801015e+00
2.221567796868801015e+00
2.383010223700674501e+00
2.458200018311105683e+00
2.458200018311105683e+00
2.434386791589098653e+00
2.313633106479079604e+00
2.313633106479079604e+00
2.322258369701224012e+00
2.322258369701224012e+00
2.159878414258247670e+00
2.319445783867915889e+00
2.319445783867915889e+00
2.381697683645130681e+00
2.288507339701529197e+00
2.288507339701529197e+00
2.337258827478866152e+00
2.369509811700796664e+00
2.369509811700796664e+00
2.350571733756523507e+00
2.189879329813531950e+00
2.189879329813531950e+00
2.265256630146183614e+00
2.265256630146183614e+00
2.175816400646992221e+00
2.303320291756950855e+00
2.303320291756950855e+00
2.444887112033448329e+00
2.444887112033448329e+00
2.419761345255897922e+00
2.435699331644642474e+00
2.435699331644642474e+00
2.325633472701193583e+00
2.325633472701193583e+00
2.246693563646351421e+00
2.261131504257332114e+00
2.261131504257332114e+00
2.231880611590930208e+00
2.208067384868923178e+00
2.208067384868923178e+00
2.267694204535050773e+00
2.267694204535050773e+00
2.241068391979735619e+00
2.266756675923947917e+00
2.266756675923947917e+00
2.304257820368053267e+00
2.304257820368053267e+00
2.375509994811853431e+00
2.321695852534562121e+00
2.321695852534562121e+00
2.287944822534867306e+00
2.287944822534867306e+00
2.311383037812433372e+00
2.344759056367687222e+00
2.344759056367687222e+00
2.315883175145725836e+00
2.315883175145725836e+00
2.356009399700918827e+00
2.272944364757225166e+00
2.272944364757225166e+00
2.328821069978942226e+00
2.290569902645954947e+00
2.290569902645954947e+00
2.289444868312631609e+00
2.289444868312631609e+00
2.308945463423566213e+00
2.321133335367900674e+00
2.321133335367900674e+00
2.308007934812463802e+00
2.308007934812463802e+00
2.335008758812219920e+00
2.392010498367259874e+00
2.387135349589526001e+00
2.387135349589526001e+00
2.343821527756584366e+00
2.343821527756584366e+00
2.279319559312723342e+00
2.270319284646137969e+00
2.270319284646137969e+00
2.335196264534440402e+00
2.335196264534440402e+00
2.323570909756767389e+00
2.326008484145634547e+00
2.326008484145634547e+00
2.335196264534440402e+00
2.335196264534440402e+00
2.275569444868312807e+00
2.261319009979552597e+00
2.261319009979552597e+00
2.199254615924558287e+00
2.197004547257912055e+00
2.197004547257912055e+00
2.184629169591357556e+00
2.184629169591357556e+00
2.275006927701650916e+00
2.453137363811151772e+00
2.453137363811151772e+00
2.571078463087863142e+00
2.571078463087863142e+00
2.431386700033570492e+00
2.398948210089419053e+00
2.398948210089419053e+00
2.362384594256416559e+00
2.362384594256416559e+00
2.206379833368938392e+00
2.150690633869442259e+00
2.150690633869442259e+00
2.233380657368694511e+00
2.233380657368694511e+00
2.288694845423749680e+00
2.291507431257057803e+00
2.291507431257057803e+00
2.342883999145481511e+00
2.363697134311959935e+00
2.363697134311959935e+00
2.366509720145268059e+00
2.366509720145268059e+00
2.328071047090059853e+00
2.261694021423993561e+00
2.261694021423993561e+00
2.309320474868007622e+00
2.309320474868007622e+00
2.353759331034272151e+00
2.201504684591204519e+00
2.201504684591204519e+00
2.197379558702353020e+00
2.325070955534531691e+00
2.325070955534531691e+00
2.416761253700369316e+00
2.416761253700369316e+00
2.345884090701010116e+00
2.253443769646290562e+00
2.253443769646290562e+00
2.287007293923764895e+00
2.287007293923764895e+00
2.252318735312967224e+00
2.283444685201574842e+00
2.283444685201574842e+00
2.347384136478774419e+00
2.347384136478774419e+00
2.370447340311899076e+00
2.295257545701467894e+00
2.295257545701467894e+00
2.387697866756187448e+00
2.334633747367778511e+00
2.334633747367778511e+00
2.349821710867641578e+00
2.349821710867641578e+00
2.439449446089053009e+00
2.237693288979766049e+00
2.237693288979766049e+00
2.270319284646137969e+00
2.215380108035523765e+00
2.215380108035523765e+00
2.258693929868464956e+00
2.258693929868464956e+00
2.297320108645893644e+00
2.369697317423017147e+00
2.369697317423017147e+00
2.334071230201117064e+00
2.334071230201117064e+00
2.316633198034607766e+00
2.320195806756797818e+00
2.320195806756797818e+00
2.319820795312356854e+00
2.319820795312356854e+00
2.382635212256233537e+00
2.311195532090212890e+00
2.311195532090212890e+00
2.231130588702047834e+00
2.231130588702047834e+00
2.281382122257148648e+00
2.311945554979094819e+00
2.311945554979094819e+00
2.323195898312326424e+00
2.323195898312326424e+00
2.255693838312936794e+00
2.195504501480147752e+00
2.195504501480147752e+00
2.316445692312387283e+00
2.392010498367259874e+00
2.392010498367259874e+00
2.398198187200537124e+00
2.398198187200537124e+00
2.349259193700979687e+00
2.335758781701101849e+00
2.335758781701101849e+00
2.383760246589556875e+00
2.383760246589556875e+00
2.337821344645527599e+00
2.384322763756218322e+00
2.384322763756218322e+00
2.274069399090548504e+00
2.274069399090548504e+00
2.263006561479537382e+00
2.335008758812219920e+00
2.335008758812219920e+00
2.204879787591174090e+00
2.204879787591174090e+00
2.129314981536301499e+00
2.185379192480239485e+00
2.185379192480239485e+00
2.374947477645191540e+00
2.457825006866664719e+00
2.457825006866664719e+00
2.421261391033662225e+00
2.421261391033662225e+00
2.411698599200414961e+00
2.248006103701895242e+00
2.248006103701895242e+00
2.314570635090182460e+00
2.314570635090182460e+00
2.357509445478682686e+00
2.297507614368114126e+00
2.297507614368114126e+00
2.260006469924008776e+00
2.260006469924008776e+00
2.262256538590655452e+00
2.228505508590960638e+00
2.228505508590960638e+00
2.259443952757347329e+00
2.253443769646290562e+00
2.253443769646290562e+00
2.291132419812616394e+00
2.291132419812616394e+00
2.314383129367961978e+00
2.309132969145787140e+00
2.309132969145787140e+00
2.372509903256325270e+00
2.372509903256325270e+00
2.336321298867763296e+00
2.352821802423169739e+00
2.352821802423169739e+00
2.386197820978423145e+00
2.386197820978423145e+00
2.281007110812707683e+00
2.285319742423780109e+00
2.285319742423780109e+00
2.342696493423261028e+00
2.345321573534348669e+00
2.345321573534348669e+00
2.268256721701712220e+00
2.268256721701712220e+00
2.207317361980041248e+00
2.303507797479171337e+00
2.303507797479171337e+00
2.316258186590166801e+00
2.316258186590166801e+00
2.352071779534287366e+00
2.336508804589983779e+00
2.336508804589983779e+00
2.372697408978545752e+00
2.372697408978545752e+00
2.316258186590166801e+00
2.351134250923184954e+00
2.351134250923184954e+00
2.313258095034638639e+00
2.313258095034638639e+00
2.203942258980071234e+00
2.313633106479079604e+00
2.313633106479079604e+00
2.400635761589403838e+00
2.386385326700643628e+00
2.386385326700643628e+00
2.313633106479079604e+00
2.313633106479079604e+00
2.282882168034912951e+00
2.278007019257179522e+00
2.278007019257179522e+00
2.326758507034516477e+00
2.326758507034516477e+00
2.341008941923276243e+00
2.327133518478957885e+00
2.327133518478957885e+00
2.298820154423657947e+00
2.298820154423657947e+00
2.333883724478896582e+00
2.372134891811884305e+00
2.372134891811884305e+00
2.339696401867732423e+00
2.339696401867732423e+00
2.220067751091036712e+00
2.228130497146519229e+00
2.228130497146519229e+00
2.184066652424695665e+00
2.203567247535630269e+00
2.203567247535630269e+00
2.257756401257362544e+00
2.257756401257362544e+00
2.262631550035096417e+00
2.329571092867824156e+00
2.329571092867824156e+00
2.375697500534073914e+00
2.389947935422834124e+00
2.389947935422834124e+00
2.399323221533860018e+00
2.399323221533860018e+00
2.388447889645069822e+00
2.358446974089785542e+00
2.358446974089785542e+00
2.390322946867275089e+00
2.390322946867275089e+00
2.320758323923459709e+00
2.292069948423719250e+00
2.292069948423719250e+00
2.260756492812891150e+00
2.260756492812891150e+00
2.233005645924253102e+00
2.254756309701834383e+00
2.254756309701834383e+00
2.271069307535019899e+00
2.271069307535019899e+00
2.272569353312784202e+00
2.303507797479171337e+00
2.303507797479171337e+00
2.327321024201178368e+00
2.327321024201178368e+00
2.339508896145511940e+00
2.349821710867641578e+00
2.349821710867641578e+00
2.363134617145298488e+00
2.371947386089663379e+00
2.371947386089663379e+00
2.325633472701193583e+00
2.325633472701193583e+00
2.289444868312631609e+00
2.257193884090700653e+00
2.257193884090700653e+00
2.277069490646077110e+00
2.277069490646077110e+00
2.329946104312265120e+00
2.312508072145756710e+00
2.312508072145756710e+00
2.225880428479872997e+00
2.225880428479872997e+00
2.280444593646046680e+00
2.355071871089815971e+00
2.355071871089815971e+00
2.347759147923215384e+00
2.347759147923215384e+00
2.329008575701162709e+00
2.350196722312082542e+00
2.350196722312082542e+00
2.332196172978911797e+00
2.319445783867915889e+00
2.319445783867915889e+00
2.322258369701224012e+00
2.322258369701224012e+00
2.304820337534714714e+00
2.305007843256935196e+00
2.305007843256935196e+00
2.270131778923917043e+00
2.270131778923917043e+00
2.226067934202093479e+00
2.278757042146061895e+00
2.278757042146061895e+00
2.321508346812341639e+00
2.321508346812341639e+00
2.353759331034272151e+00
2.378510086367381593e+00
2.378510086367381593e+00
2.356571916867580274e+00
2.344759056367687222e+00
2.344759056367687222e+00
2.296570085757011714e+00
2.296570085757011714e+00
2.328258552812280335e+00
2.349071687978759204e+00
2.349071687978759204e+00
2.318883266701254442e+00
2.318883266701254442e+00
2.327321024201178368e+00
2.290194891201513983e+00
2.290194891201513983e+00
2.252131229590746742e+00
2.252131229590746742e+00
2.240880886257515137e+00
2.221942808313242423e+00
2.221942808313242423e+00
2.250256172368541474e+00
2.289632374034852091e+00
2.289632374034852091e+00
2.335008758812219920e+00
2.335008758812219920e+00
2.369509811700796664e+00
2.364634662923062791e+00
2.364634662923062791e+00
2.313070589312418157e+00
2.313070589312418157e+00
2.313633106479079604e+00
2.362197088534196077e+00
2.362197088534196077e+00
2.327696035645618888e+00
2.327696035645618888e+00
2.277069490646077110e+00
2.283069673757133433e+00
2.283069673757133433e+00
2.273694387646107540e+00
2.273694387646107540e+00
2.321320841090121156e+00
2.296757591479232197e+00
2.296757591479232197e+00
2.320945829645680192e+00
2.330133610034486047e+00
2.330133610034486047e+00
2.305007843256935196e+00
2.305007843256935196e+00
2.302382763145847999e+00
2.300507705923642732e+00
2.300507705923642732e+00
2.340446424756614796e+00
2.340446424756614796e+00
2.293007477034821662e+00
2.291882442701498768e+00
2.291882442701498768e+00
2.317758232367931104e+00
2.317758232367931104e+00
2.327696035645618888e+00
2.288132328257088233e+00
2.288132328257088233e+00
2.302757774590289408e+00
2.277444502090518075e+00
2.277444502090518075e+00
2.241630909146397510e+00
2.241630909146397510e+00
2.295445051423688376e+00
2.372322397534104788e+00
2.372322397534104788e+00
2.379260109256263966e+00
2.379260109256263966e+00
2.359009491256446989e+00
2.310820520645771925e+00
2.310820520645771925e+00
2.296007568590349823e+00
2.314383129367961978e+00
2.314383129367961978e+00
2.326008484145634547e+00
2.326008484145634547e+00
2.309882992034669069e+00
2.316633198034607766e+00
2.316633198034607766e+00
2.324320932645649762e+00
2.324320932645649762e+00
2.307257911923581428e+00
2.240130863368633207e+00
2.240130863368633207e+00
2.241255897701956545e+00
2.241255897701956545e+00
2.293569994201483109e+00
2.324508438367870244e+00
2.324508438367870244e+00
2.343821527756584366e+00
2.343821527756584366e+00
2.381322672200689716e+00
2.352634296700948813e+00
2.352634296700948813e+00
2.358259468367565059e+00
2.357509445478682686e+00
2.357509445478682686e+00
2.325820978423414065e+00
2.325820978423414065e+00
2.308570451979125249e+00
2.298070131534776017e+00
2.298070131534776017e+00
2.269194250312814631e+00
2.269194250312814631e+00
2.265631641590625023e+00
2.260193975646229259e+00
2.260193975646229259e+00
2.247631092257453833e+00
2.247631092257453833e+00
2.256256355479598685e+00
2.295257545701467894e+00
2.295257545701467894e+00
2.321695852534562121e+00
2.321695852534562121e+00
2.370447340311899076e+00
2.358634479812006024e+00
2.358634479812006024e+00
2.312883083590197675e+00
2.312883083590197675e+00
2.336133793145542814e+00
2.339133884701071420e+00
2.339133884701071420e+00
2.335008758812219920e+00
2.315883175145725836e+00
2.315883175145725836e+00
2.279507065034943825e+00
2.279507065034943825e+00
2.258131412701803509e+00
2.256631366924039650e+00
2.256631366924039650e+00
2.283069673757133433e+00
2.283069673757133433e+00
2.313633106479079604e+00
2.318695760979033516e+00
2.318695760979033516e+00
2.365572191534165203e+00
2.365572191534165203e+00
2.372134891811884305e+00
2.329946104312265120e+00
2.329946104312265120e+00
2.316445692312387283e+00
2.279132053590502860e+00
2.279132053590502860e+00
2.269006744590594149e+00
2.269006744590594149e+00
2.242005920590838475e+00
2.283632190923795324e+00
2.283632190923795324e+00
2.286632282479323930e+00
2.286632282479323930e+00
2.275569444868312807e+00
2.272194341868343237e+00
2.272194341868343237e+00
2.321320841090121156e+00
2.321320841090121156e+00
2.374197454756310055e+00
2.319820795312356854e+00
2.319820795312356854e+00
2.354134342478713116e+00
2.354134342478713116e+00
2.345696584978789634e+00
2.331633655812249906e+00
2.331633655812249906e+00
2.343634022034363884e+00
2.343634022034363884e+00
2.334633747367778511e+00
2.293382488479262626e+00
2.293382488479262626e+00
2.256256355479598685e+00
2.257568895535142062e+00
2.257568895535142062e+00
2.226255439924313961e+00
2.226255439924313961e+00
2.209192419202246516e+00
2.233193151646474028e+00
2.233193151646474028e+00
2.302195257423627517e+00
2.302195257423627517e+00
2.312508072145756710e+00
2.330508621478927012e+00
2.330508621478927012e+00
2.372697408978545752e+00
2.372697408978545752e+00
2.397823175756096159e+00
2.378510086367381593e+00
2.378510086367381593e+00
2.347384136478774419e+00
2.310258003479110034e+00
2.310258003479110034e+00
2.315508163701284872e+00
2.315508163701284872e+00
2.278194524979400004e+00
2.267694204535050773e+00
2.267694204535050773e+00
2.264319101535081202e+00
2.264319101535081202e+00
2.280444593646046680e+00
2.307820429090243319e+00
2.307820429090243319e+00
2.314945646534623425e+00
2.323758415478988315e+00
2.323758415478988315e+00
2.348696676534318240e+00
2.348696676534318240e+00
2.371759880367442896e+00
2.366697225867488541e+00
2.366697225867488541e+00
2.307070406201360946e+00
2.307070406201360946e+00
2.281382122257148648e+00
2.212942533646656607e+00
2.212942533646656607e+00
2.253818781090731527e+00
2.253818781090731527e+00
2.310633014923550999e+00
2.342883999145481511e+00
2.342883999145481511e+00
2.298820154423657947e+00
2.298820154423657947e+00
2.271631824701681346e+00
2.259443952757347329e+00
2.259443952757347329e+00
2.274256904812768987e+00
2.274256904812768987e+00
2.324508438367870244e+00
2.359947019867549844e+00
2.359947019867549844e+00
2.349071687978759204e+00
2.313445600756859122e+00
2.313445600756859122e+00
2.316633198034607766e+00
2.316633198034607766e+00
2.318508255256813033e+00
2.333508713034455617e+00
2.333508713034455617e+00
2.313445600756859122e+00
2.313445600756859122e+00
2.302195257423627517e+00
2.295820062868129341e+00
2.295820062868129341e+00
2.275944456312753772e+00
2.275944456312753772e+00
2.264694112979522167e+00
2.286069765312662039e+00
2.286069765312662039e+00
2.320195806756797818e+00
2.320195806756797818e+00
2.347009125034333454e+00
2.376260017700735361e+00
2.376260017700735361e+00
2.366697225867488541e+00
2.332196172978911797e+00
2.332196172978911797e+00
2.301070223090304623e+00
2.301070223090304623e+00
2.287382305368205859e+00
2.275006927701650916e+00
2.275006927701650916e+00
2.279132053590502860e+00
2.279132053590502860e+00
2.288882351145970162e+00
2.268069215979491737e+00
2.268069215979491737e+00
2.245006012146367080e+00
2.245006012146367080e+00
2.263194067201757864e+00
2.311195532090212890e+00
2.311195532090212890e+00
2.352259285256507848e+00
2.381885189367351607e+00
2.381885189367351607e+00
2.380947660756248752e+00
2.380947660756248752e+00
2.372509903256325270e+00
2.343446516312143402e+00
2.343446516312143402e+00
2.324133426923429280e+00
2.324133426923429280e+00
2.285319742423780109e+00
2.269194250312814631e+00
2.269194250312814631e+00
2.259256447035126847e+00
2.259256447035126847e+00
2.239193334757530351e+00
2.219692739646595747e+00
2.219692739646595747e+00
2.262069032868434526e+00
2.262069032868434526e+00
2.269944273201696561e+00
2.296945097201452679e+00
2.296945097201452679e+00
2.345884090701010116e+00
2.360509537034211291e+00
2.360509537034211291e+00
2.359196996978667915e+00
2.359196996978667915e+00
2.315883175145725836e+00
2.280257087923826198e+00
2.280257087923826198e+00
2.312320566423536228e+00
2.312320566423536228e+00
2.334071230201117064e+00
2.341571459089938134e+00
2.341571459089938134e+00
2.312695577867977192e+00
2.312695577867977192e+00
2.252318735312967224e+00
2.259631458479567812e+00
2.259631458479567812e+00
2.236193243202001746e+00
2.236193243202001746e+00
2.287757316812646824e+00
2.287569811090426342e+00
2.287569811090426342e+00
2.263194067201757864e+00
2.332758690145573244e+00
2.332758690145573244e+00
2.392573015533921321e+00
2.392573015533921321e+00
2.410948576311533031e+00
2.369697317423017147e+00
2.369697317423017147e+00
2.319633289590136371e+00
2.319633289590136371e+00
2.298257637256996500e+00
2.296195074312570750e+00
2.296195074312570750e+00
2.282319650868251504e+00
2.273319376201666131e+00
2.273319376201666131e+00
2.263569078646198829e+00
2.263569078646198829e+00
2.267694204535050773e+00
2.302007751701407035e+00
2.302007751701407035e+00
2.326383495590075512e+00
2.326383495590075512e+00
2.350384228034303025e+00
2.365384685811944721e+00
2.365384685811944721e+00
2.362947111423078006e+00
2.327133518478957885e+00
2.327133518478957885e+00
2.328633564256721744e+00
2.328633564256721744e+00
2.311008026367992407e+00
2.261506515701773079e+00
2.261506515701773079e+00
2.270506790368358452e+00
2.270506790368358452e+00
2.290382396923734465e+00
2.241255897701956545e+00
2.241255897701956545e+00
2.267319193090609808e+00
2.267319193090609808e+00
2.292257454145939732e+00
2.302007751701407035e+00
2.302007751701407035e+00
2.323945921201208797e+00
2.323945921201208797e+00
2.350009216589862060e+00
2.363697134311959935e+00
2.363697134311959935e+00
2.319633289590136371e+00
2.319633289590136371e+00
2.305195348979155678e+00
2.316445692312387283e+00
2.316445692312387283e+00
2.313820612201300086e+00
2.301070223090304623e+00
2.301070223090304623e+00
2.278007019257179522e+00
2.278007019257179522e+00
2.273881893368328022e+00
2.290007385479293500e+00
2.290007385479293500e+00
2.271256813257240381e+00
2.271256813257240381e+00
2.259443952757347329e+00
2.296195074312570750e+00
2.296195074312570750e+00
2.322070863979003530e+00
2.322070863979003530e+00
2.353759331034272151e+00
2.352071779534287366e+00
2.352071779534287366e+00
2.335946287423322332e+00
2.335946287423322332e+00
2.338571367534409973e+00
2.317195715201269657e+00
2.317195715201269657e+00
2.307257911923581428e+00
2.302570268868068482e+00
2.302570268868068482e+00
2.292632465590380253e+00
2.292632465590380253e+00
2.300882717368083696e+00
2.287194799645985377e+00
2.287194799645985377e+00
2.258881435590685438e+00
2.258881435590685438e+00
2.267881710257271255e+00
2.281382122257148648e+00
2.281382122257148648e+00
2.334071230201117064e+00
2.334071230201117064e+00
2.383947752311777357e+00
2.371384868923001932e+00
2.371384868923001932e+00
2.345321573534348669e+00
2.345321573534348669e+00
2.333133701590014208e+00
2.286632282479323930e+00
2.286632282479323930e+00
2.265631641590625023e+00
2.228130497146519229e+00
2.228130497146519229e+00
2.222505325479903426e+00
2.222505325479903426e+00
2.304820337534714714e+00
2.281194616534928166e+00
2.281194616534928166e+00
2.269006744590594149e+00
2.269006744590594149e+00
2.292069948423719250e+00
2.348321665089877275e+00
2.348321665089877275e+00
2.374572466200750576e+00
2.374572466200750576e+00
2.382635212256233537e+00
2.366134708700827094e+00
2.366134708700827094e+00
2.336321298867763296e+00
2.316445692312387283e+00
2.316445692312387283e+00
2.275756950590533290e+00
2.275756950590533290e+00
2.281944639423810539e+00
2.265444135868404540e+00
2.265444135868404540e+00
2.261694021423993561e+00
2.261694021423993561e+00
2.251568712424085295e+00
2.236380748924222672e+00
2.236380748924222672e+00
2.267881710257271255e+00
2.267881710257271255e+00
2.323195898312326424e+00
2.348884182256538722e+00
2.348884182256538722e+00
2.368759788811914291e+00
2.368759788811914291e+00
2.379072603534043484e+00
2.362759605700857524e+00
2.362759605700857524e+00
2.338383861812189490e+00
2.309132969145787140e+00
2.309132969145787140e+00
2.271444318979460864e+00
2.271444318979460864e+00
2.250443678090761956e+00
2.265819147312845505e+00
2.265819147312845505e+00
2.299007660145878429e+00
2.299007660145878429e+00
2.266006653035065987e+00
2.232255623035371173e+00
2.266569170201727434e+00
2.266569170201727434e+00
2.306132877590258534e+00
2.342133976256599581e+00
2.342133976256599581e+00
2.383010223700674501e+00
2.383010223700674501e+00
2.386197820978423145e+00
2.375509994811853431e+00
2.375509994811853431e+00
2.340633930478835278e+00
2.340633930478835278e+00
2.312320566423536228e+00
2.268631733146153184e+00
2.268631733146153184e+00
2.277256996368297592e+00
2.277256996368297592e+00
2.255881344035157721e+00
2.260381481368449741e+00
2.260381481368449741e+00
2.254381298257393418e+00
2.254381298257393418e+00
2.260568987090670667e+00
2.287007293923764895e+00
2.287007293923764895e+00
2.302757774590289408e+00
2.302757774590289408e+00
2.345134067812128187e+00
2.375509994811853431e+00
2.375509994811853431e+00
2.380385143589587305e+00
2.359384502700888397e+00
2.359384502700888397e+00
2.348134159367656792e+00
2.348134159367656792e+00
2.316070680867946319e+00
2.311383037812433372e+00
2.311383037812433372e+00
2.296382580034791232e+00
2.296382580034791232e+00
2.279507065034943825e+00
2.277632007812738557e+00
2.277632007812738557e+00
2.251381206701864812e+00
2.251381206701864812e+00
2.272381847590563719e+00
2.306320383312479017e+00
2.306320383312479017e+00
2.299195165868098911e+00
2.299195165868098911e+00
2.324883449812311209e+00
2.354134342478713116e+00
2.354134342478713116e+00
2.328821069978942226e+00
2.316633198034607766e+00
2.316633198034607766e+00
2.311383037812433372e+00
2.299945188756981285e+00
2.299945188756981285e+00
2.306507889034699499e+00
2.295820062868129341e+00
2.295820062868129341e+00
2.281757133701590057e+00
2.281757133701590057e+00
2.274444410534989469e+00
2.250256172368541474e+00
2.250256172368541474e+00
2.285319742423780109e+00
2.285319742423780109e+00
2.287382305368205859e+00
2.323383404034546906e+00
2.323383404034546906e+00
2.374947477645191540e+00
2.385447798089541660e+00
2.385447798089541660e+00
2.358259468367565059e+00
2.358259468367565059e+00
2.315508163701284872e+00
2.281569627979369130e+00
2.281569627979369130e+00
2.262631550035096417e+00
2.262631550035096417e+00
2.286257271034882521e+00
2.277444502090518075e+00
2.277444502090518075e+00
2.269569261757255596e+00
2.269569261757255596e+00
2.250256172368541474e+00
2.235443220313119816e+00
2.235443220313119816e+00
2.271444318979460864e+00
2.271444318979460864e+00
2.298820154423657947e+00
2.327883541367839371e+00
