2.475825556199835464e+00
2.476200567644276429e+00
2.476200567644276429e+00
2.476200567644276429e+00
2.472637958922086376e+00
2.472637958922086376e+00
2.472637958922086376e+00
2.452199835200048916e+00
2.452199835200048916e+00
2.452199835200048916e+00
2.452199835200048916e+00
2.478450636310922661e+00
2.478450636310922661e+00
2.478450636310922661e+00
2.498701254310739639e+00
2.498701254310739639e+00
2.498701254310739639e+00
2.498701254310739639e+00
2.477138096255378841e+00
2.477138096255378841e+00
2.477138096255378841e+00
2.478825647755364070e+00
2.478825647755364070e+00
2.478825647755364070e+00
2.505638966032898818e+00
2.505638966032898818e+00
2.505638966032898818e+00
2.505638966032898818e+00
2.512201666310617476e+00
2.512201666310617476e+00
2.512201666310617476e+00
2.516701803643909940e+00
2.516701803643909940e+00
2.516701803643909940e+00
2.516701803643909940e+00
2.537139927365947845e+00
2.537139927365947845e+00
2.537139927365947845e+00
2.556078005310220558e+00
2.556078005310220558e+00
2.556078005310220558e+00
2.556078005310220558e+00
2.522139469588305261e+00
2.522139469588305261e+00
2.522139469588305261e+00
2.515576769310586602e+00
2.515576769310586602e+00
2.515576769310586602e+00
2.486325876644184696e+00
2.486325876644184696e+00
2.486325876644184696e+00
2.486325876644184696e+00
2.452387340922269399e+00
2.452387340922269399e+00
2.452387340922269399e+00
2.508451551866206941e+00
2.508451551866206941e+00
2.508451551866206941e+00
2.508451551866206941e+00
2.523076998199408116e+00
2.523076998199408116e+00
2.523076998199408116e+00
2.508451551866206941e+00
2.508451551866206941e+00
2.508451551866206941e+00
2.508451551866206941e+00
2.461200109866634289e+00
2.461200109866634289e+00
2.461200109866634289e+00
2.462512649922177665e+00
2.462512649922177665e+00
2.462512649922177665e+00
2.462512649922177665e+00
2.508826563310647906e+00
2.508826563310647906e+00
2.508826563310647906e+00
2.565453291421246895e+00
2.565453291421246895e+00
2.565453291421246895e+00
2.587391460921048658e+00
2.587391460921048658e+00
2.587391460921048658e+00
2.587391460921048658e+00
2.542015076143681274e+00
2.542015076143681274e+00
2.542015076143681274e+00
2.500951322977385871e+00
2.500951322977385871e+00
2.500951322977385871e+00
2.500951322977385871e+00
2.458387524033326166e+00
2.458387524033326166e+00
2.462887661366619074e+00
2.462887661366619074e+00
2.462887661366619074e+00
2.496263679921872480e+00
2.496263679921872480e+00
2.496263679921872480e+00
2.496263679921872480e+00
2.493826105533005766e+00
2.493826105533005766e+00
2.493826105533005766e+00
2.475638050477614982e+00
2.475638050477614982e+00
2.475638050477614982e+00
2.450887295144505096e+00
2.450887295144505096e+00
2.450887295144505096e+00
2.450887295144505096e+00
2.455199926755577522e+00
2.455199926755577522e+00
2.455199926755577522e+00
2.476950590533158358e+00
2.476950590533158358e+00
2.476950590533158358e+00
2.476950590533158358e+00
2.491951048310800498e+00
2.491951048310800498e+00
2.491951048310800498e+00
2.522326975310525743e+00
2.522326975310525743e+00
2.522326975310525743e+00
2.548015259254738041e+00
2.548015259254738041e+00
2.548015259254738041e+00
2.548015259254738041e+00
2.591141575365459193e+00
2.591141575365459193e+00
2.591141575365459193e+00
2.598829309976500745e+00
2.598829309976500745e+00
2.598829309976500745e+00
2.598829309976500745e+00
2.584391369365520497e+00
2.584391369365520497e+00
2.584391369365520497e+00
2.545577684865871326e+00
2.545577684865871326e+00
2.545577684865871326e+00
2.494951139866329104e+00
2.494951139866329104e+00
2.454637409588916075e+00
2.454637409588916075e+00
2.454637409588916075e+00
2.489325968199713301e+00
2.489325968199713301e+00
2.489325968199713301e+00
2.489325968199713301e+00
2.503763908810693550e+00
2.503763908810693550e+00
2.503763908810693550e+00
2.481638233588671305e+00
2.481638233588671305e+00
2.481638233588671305e+00
2.481638233588671305e+00
2.451824823755607952e+00
2.451824823755607952e+00
2.451824823755607952e+00
2.418448805200354101e+00
2.418448805200354101e+00
2.418448805200354101e+00
2.462137638477736701e+00
2.462137638477736701e+00
2.462137638477736701e+00
2.462137638477736701e+00
2.515201757866145638e+00
2.515201757866145638e+00
2.515201757866145638e+00
2.557578051087984861e+00
2.557578051087984861e+00
2.557578051087984861e+00
2.557578051087984861e+00
2.582703817865535711e+00
2.582703817865535711e+00
2.582703817865535711e+00
2.564515762810144484e+00
2.564515762810144484e+00
2.564515762810144484e+00
2.504138920255134515e+00
2.504138920255134515e+00
2.504138920255134515e+00
2.504138920255134515e+00
2.452199835200048916e+00
2.452199835200048916e+00
2.452199835200048916e+00
2.438699423200171079e+00
2.438699423200171079e+00
2.438699423200171079e+00
2.438699423200171079e+00
2.457074983977782345e+00
2.457074983977782345e+00
2.457074983977782345e+00
2.444324594866786882e+00
2.444324594866786882e+00
2.444324594866786882e+00
2.464012695699941968e+00
2.464012695699941968e+00
2.464012695699941968e+00
2.464012695699941968e+00
2.503576403088473068e+00
2.503576403088473068e+00
2.503576403088473068e+00
2.501513840144047762e+00
2.501513840144047762e+00
2.501513840144047762e+00
2.501513840144047762e+00
2.507139011810663121e+00
2.507139011810663121e+00
2.507139011810663121e+00
2.548390270699179450e+00
2.548390270699179450e+00
2.548390270699179450e+00
2.538452467421491221e+00
2.538452467421491221e+00
2.538452467421491221e+00
2.538452467421491221e+00
2.547077730643635629e+00
2.547077730643635629e+00
2.547077730643635629e+00
2.582141300698873820e+00
2.582141300698873820e+00
2.582141300698873820e+00
2.582141300698873820e+00
2.529077181310464884e+00
2.529077181310464884e+00
2.529077181310464884e+00
2.502263863032929692e+00
2.502263863032929692e+00
2.502263863032929692e+00
2.502263863032929692e+00
2.532264778588213971e+00
2.532264778588213971e+00
2.532264778588213971e+00
2.545577684865871326e+00
2.545577684865871326e+00
2.545577684865871326e+00
2.513139194921720332e+00
2.513139194921720332e+00
2.513139194921720332e+00
2.513139194921720332e+00
2.479013153477584552e+00
2.479013153477584552e+00
2.479013153477584552e+00
2.485763359477523249e+00
2.485763359477523249e+00
2.485763359477523249e+00
2.485763359477523249e+00
2.501701345866268245e+00
2.501701345866268245e+00
2.501701345866268245e+00
2.491576036866359534e+00
2.491576036866359534e+00
2.491576036866359534e+00
2.467012787255470574e+00
2.467012787255470574e+00
2.467012787255470574e+00
2.493076082644123392e+00
2.493076082644123392e+00
2.493076082644123392e+00
2.503576403088473068e+00
2.503576403088473068e+00
2.503576403088473068e+00
2.503576403088473068e+00
2.526077089754936722e+00
2.526077089754936722e+00
2.526077089754936722e+00
2.518014343699453761e+00
2.518014343699453761e+00
2.518014343699453761e+00
2.537327433088168327e+00
2.537327433088168327e+00
2.537327433088168327e+00
2.537327433088168327e+00
2.516514297921689458e+00
2.516514297921689458e+00
2.516514297921689458e+00
2.511264137699515064e+00
2.511264137699515064e+00
2.511264137699515064e+00
2.511264137699515064e+00
2.481075716422009858e+00
2.481075716422009858e+00
2.481075716422009858e+00
2.477325601977599767e+00
2.477325601977599767e+00
2.477325601977599767e+00
2.455199926755577522e+00
2.455199926755577522e+00
2.455199926755577522e+00
2.455199926755577522e+00
2.435136814477980582e+00
2.435136814477980582e+00
2.435136814477980582e+00
2.457262489700002828e+00
2.457262489700002828e+00
2.457262489700002828e+00
2.431386700033570492e+00
2.431386700033570492e+00
2.431386700033570492e+00
2.431386700033570492e+00
2.449762260811182202e+00
2.449762260811182202e+00
2.449762260811182202e+00
2.538639973143711703e+00
2.538639973143711703e+00
2.538639973143711703e+00
2.538639973143711703e+00
2.568640888698995983e+00
2.568640888698995983e+00
2.568640888698995983e+00
2.596579241309854513e+00
2.596579241309854513e+00
2.596579241309854513e+00
2.592266609698782531e+00
2.592266609698782531e+00
2.592266609698782531e+00
2.592266609698782531e+00
2.471325418866542556e+00
2.471325418866542556e+00
2.471325418866542556e+00
2.525889584032716240e+00
2.525889584032716240e+00
2.525889584032716240e+00
2.525889584032716240e+00
2.513889217810602261e+00
2.513889217810602261e+00
2.513889217810602261e+00
2.454074892422254184e+00
2.454074892422254184e+00
2.454074892422254184e+00
2.486700888088625661e+00
2.486700888088625661e+00
2.486700888088625661e+00
2.486700888088625661e+00
2.511076631977294138e+00
2.511076631977294138e+00
2.511076631977294138e+00
2.509764091921750762e+00
2.509764091921750762e+00
2.509764091921750762e+00
2.509764091921750762e+00
2.474888027588732609e+00
2.474888027588732609e+00
2.474888027588732609e+00
2.488013428144169481e+00
2.488013428144169481e+00
2.488013428144169481e+00
2.499451277199621568e+00
2.499451277199621568e+00
2.499451277199621568e+00
2.499451277199621568e+00
2.512201666310617476e+00
2.512201666310617476e+00
2.512201666310617476e+00
2.523639515366069563e+00
2.523639515366069563e+00
2.523639515366069563e+00
2.523639515366069563e+00
2.565265785699026413e+00
2.565265785699026413e+00
2.565265785699026413e+00
2.565828302865687860e+00
2.565828302865687860e+00
2.565828302865687860e+00
2.472825464644306859e+00
2.472825464644306859e+00
2.472825464644306859e+00
2.472825464644306859e+00
2.483325785088656090e+00
2.483325785088656090e+00
2.483325785088656090e+00
2.497388714255195818e+00
2.497388714255195818e+00
2.497388714255195818e+00
2.497388714255195818e+00
2.459887569811090469e+00
2.459887569811090469e+00
2.459887569811090469e+00
2.456699972533341381e+00
2.456699972533341381e+00
2.456699972533341381e+00
2.456699972533341381e+00
2.463825189977721486e+00
2.463825189977721486e+00
2.463825189977721486e+00
2.515576769310586602e+00
2.515576769310586602e+00
2.515576769310586602e+00
2.533014801477095901e+00
2.533014801477095901e+00
2.533014801477095901e+00
2.533014801477095901e+00
2.480888210699789376e+00
2.480888210699789376e+00
2.480888210699789376e+00
2.504138920255134515e+00
2.504138920255134515e+00
2.504138920255134515e+00
2.504138920255134515e+00
2.476200567644276429e+00
2.476200567644276429e+00
2.476200567644276429e+00
2.555702993865779593e+00
2.555702993865779593e+00
2.555702993865779593e+00
2.599579332865382675e+00
2.599579332865382675e+00
2.599579332865382675e+00
2.599579332865382675e+00
2.572578508865627445e+00
2.572578508865627445e+00
2.572578508865627445e+00
2.530202215643787778e+00
2.530202215643787778e+00
2.530202215643787778e+00
2.530202215643787778e+00
2.545577684865871326e+00
2.545577684865871326e+00
2.545577684865871326e+00
2.459512558366649504e+00
2.459512558366649504e+00
2.459512558366649504e+00
2.446199652088991705e+00
2.446199652088991705e+00
2.446199652088991705e+00
2.446199652088991705e+00
2.510701620532853173e+00
2.510701620532853173e+00
2.510701620532853173e+00
2.499451277199621568e+00
2.499451277199621568e+00
2.499451277199621568e+00
2.499451277199621568e+00
2.456324961088900860e+00
2.456324961088900860e+00
2.456324961088900860e+00
2.455387432477798004e+00
2.455387432477798004e+00
2.455387432477798004e+00
2.485763359477523249e+00
2.485763359477523249e+00
2.485763359477523249e+00
2.485763359477523249e+00
2.486513382366405178e+00
2.486513382366405178e+00
2.486513382366405178e+00
2.501138828699606353e+00
2.501138828699606353e+00
2.501138828699606353e+00
2.501138828699606353e+00
2.542015076143681274e+00
2.542015076143681274e+00
2.542015076143681274e+00
2.561703176976836804e+00
2.561703176976836804e+00
2.561703176976836804e+00
2.570140934476760286e+00
2.570140934476760286e+00
2.570140934476760286e+00
2.570140934476760286e+00
2.552140385143589540e+00
2.552140385143589540e+00
2.552140385143589540e+00
2.527952146977141545e+00
2.527952146977141545e+00
2.527952146977141545e+00
2.527952146977141545e+00
2.520451918088320475e+00
2.520451918088320475e+00
2.520451918088320475e+00
2.566953337199011198e+00
2.566953337199011198e+00
2.566953337199011198e+00
2.566953337199011198e+00
2.560390636921292984e+00
2.560390636921292984e+00
2.560390636921292984e+00
2.490638508255257122e+00
2.490638508255257122e+00
2.490638508255257122e+00
2.452387340922269399e+00
2.452387340922269399e+00
2.452387340922269399e+00
2.452387340922269399e+00
2.411511093478194478e+00
2.411511093478194478e+00
2.411511093478194478e+00
2.443949583422345917e+00
2.443949583422345917e+00
2.443949583422345917e+00
2.443949583422345917e+00
2.444512100589007364e+00
2.444512100589007364e+00
2.444512100589007364e+00
2.470762901699881109e+00
2.470762901699881109e+00
2.470762901699881109e+00
2.540702536088137453e+00
2.540702536088137453e+00
2.540702536088137453e+00
2.540702536088137453e+00
2.605392010254219404e+00
2.605392010254219404e+00
2.605392010254219404e+00
2.558515579699087716e+00
2.558515579699087716e+00
2.558515579699087716e+00
2.558515579699087716e+00
2.492888576921902910e+00
2.492888576921902910e+00
2.492888576921902910e+00
2.426699056978057101e+00
2.426699056978057101e+00
2.426699056978057101e+00
2.435886837366862956e+00
2.435886837366862956e+00
2.435886837366862956e+00
2.435886837366862956e+00
2.467950315866573430e+00
2.467950315866573430e+00
2.467950315866573430e+00
2.481075716422009858e+00
2.481075716422009858e+00
2.481075716422009858e+00
2.481075716422009858e+00
2.494201116977446731e+00
2.494201116977446731e+00
2.494201116977446731e+00
2.495513657032990551e+00
2.495513657032990551e+00
2.495513657032990551e+00
2.440949491866817311e+00
2.440949491866817311e+00
2.440949491866817311e+00
2.440949491866817311e+00
2.538077455977050256e+00
2.538077455977050256e+00
2.538077455977050256e+00
2.602954435865352245e+00
2.602954435865352245e+00
2.602954435865352245e+00
2.602954435865352245e+00
2.587766472365489623e+00
2.587766472365489623e+00
2.587766472365489623e+00
2.622830042420728258e+00
2.622830042420728258e+00
2.622830042420728258e+00
2.622830042420728258e+00
2.541265053254798900e+00
2.541265053254798900e+00
2.541265053254798900e+00
2.510514114810632691e+00
2.510514114810632691e+00
2.510514114810632691e+00
2.438699423200171079e+00
2.438699423200171079e+00
2.438699423200171079e+00
2.438699423200171079e+00
2.346446607867672007e+00
2.346446607867672007e+00
2.346446607867672007e+00
2.405885921811578676e+00
2.405885921811578676e+00
2.405885921811578676e+00
2.405885921811578676e+00
2.443387066255684470e+00
2.443387066255684470e+00
2.443387066255684470e+00
2.485950865199743731e+00
2.485950865199743731e+00
2.485950865199743731e+00
2.485950865199743731e+00
2.593579149754326352e+00
2.593579149754326352e+00
2.593579149754326352e+00
2.605579515976439886e+00
2.605579515976439886e+00
2.605579515976439886e+00
2.516889309366130423e+00
2.516889309366130423e+00
2.516889309366130423e+00
2.516889309366130423e+00
2.474138004699850679e+00
2.474138004699850679e+00
2.474138004699850679e+00
2.474888027588732609e+00
2.474888027588732609e+00
2.474888027588732609e+00
2.474888027588732609e+00
2.542202581865901756e+00
2.542202581865901756e+00
2.542202581865901756e+00
2.573703543198950339e+00
2.573703543198950339e+00
2.573703543198950339e+00
2.573703543198950339e+00
2.530952238532670151e+00
2.530952238532670151e+00
2.530952238532670151e+00
2.442637043366802097e+00
2.442637043366802097e+00
2.442637043366802097e+00
2.445824640644550740e+00
2.445824640644550740e+00
2.445824640644550740e+00
2.445824640644550740e+00
2.443762077700125435e+00
2.443762077700125435e+00
2.443762077700125435e+00
2.539952513199255080e+00
2.539952513199255080e+00
2.539952513199255080e+00
2.539952513199255080e+00
2.598641804254280263e+00
2.598641804254280263e+00
2.598641804254280263e+00
2.592641621143223496e+00
2.592641621143223496e+00
2.592641621143223496e+00
2.549890316476943308e+00
2.549890316476943308e+00
2.549890316476943308e+00
2.549890316476943308e+00
2.518764366588335690e+00
2.518764366588335690e+00
2.518764366588335690e+00
2.511264137699515064e+00
2.511264137699515064e+00
2.511264137699515064e+00
2.511264137699515064e+00
2.453887386700033701e+00
2.453887386700033701e+00
2.453887386700033701e+00
2.454262398144474666e+00
2.454262398144474666e+00
2.454262398144474666e+00
2.454262398144474666e+00
2.445637134922330258e+00
2.445637134922330258e+00
2.445637134922330258e+00
2.520076906643879511e+00
2.520076906643879511e+00
2.520076906643879511e+00
2.570328440198980768e+00
2.570328440198980768e+00
2.570328440198980768e+00
2.570328440198980768e+00
2.547265236365856111e+00
2.547265236365856111e+00
2.547265236365856111e+00
2.554390453810235773e+00
2.554390453810235773e+00
2.554390453810235773e+00
2.554390453810235773e+00
2.525514572588274831e+00
2.525514572588274831e+00
2.525514572588274831e+00
2.468887844477675397e+00
2.468887844477675397e+00
2.468887844477675397e+00
2.439261940366832526e+00
2.439261940366832526e+00
2.439261940366832526e+00
2.439261940366832526e+00
2.431386700033570492e+00
2.431386700033570492e+00
2.431386700033570492e+00
2.471700430310983521e+00
2.471700430310983521e+00
2.471700430310983521e+00
2.471700430310983521e+00
2.409073519089327764e+00
2.409073519089327764e+00
2.409073519089327764e+00
2.418448805200354101e+00
2.418448805200354101e+00
2.418448805200354101e+00
2.418448805200354101e+00
2.556828028199102931e+00
2.556828028199102931e+00
2.556828028199102931e+00
2.581578783532212373e+00
2.581578783532212373e+00
2.581578783532212373e+00
2.588891506698812961e+00
2.588891506698812961e+00
2.588891506698812961e+00
2.588891506698812961e+00
2.594516678365428763e+00
2.594516678365428763e+00
2.594516678365428763e+00
2.567140842921231680e+00
2.567140842921231680e+00
2.567140842921231680e+00
2.567140842921231680e+00
2.530014709921567295e+00
2.530014709921567295e+00
2.530014709921567295e+00
2.477700613422040732e+00
2.477700613422040732e+00
2.477700613422040732e+00
2.449199743644520311e+00
2.449199743644520311e+00
2.449199743644520311e+00
2.449199743644520311e+00
2.486513382366405178e+00
2.486513382366405178e+00
2.486513382366405178e+00
2.461012604144413807e+00
2.461012604144413807e+00
2.461012604144413807e+00
2.487825922421948999e+00
2.487825922421948999e+00
2.487825922421948999e+00
2.487825922421948999e+00
2.407385967589342979e+00
2.407385967589342979e+00
2.407385967589342979e+00
2.466637775811029609e+00
2.466637775811029609e+00
2.466637775811029609e+00
2.466637775811029609e+00
2.555327982421338628e+00
2.555327982421338628e+00
2.555327982421338628e+00
2.583641346476638123e+00
2.583641346476638123e+00
2.583641346476638123e+00
2.596579241309854513e+00
2.596579241309854513e+00
2.596579241309854513e+00
2.596579241309854513e+00
2.528139652699362028e+00
2.528139652699362028e+00
2.528139652699362028e+00
2.509014069032868388e+00
2.509014069032868388e+00
2.509014069032868388e+00
2.509014069032868388e+00
2.493263588366343875e+00
2.493263588366343875e+00
2.493263588366343875e+00
2.476388073366496911e+00
2.476388073366496911e+00
2.476388073366496911e+00
2.508826563310647906e+00
2.508826563310647906e+00
2.508826563310647906e+00
2.508826563310647906e+00
2.507889034699545494e+00
2.507889034699545494e+00
2.507889034699545494e+00
2.516889309366130423e+00
2.516889309366130423e+00
2.516889309366130423e+00
2.516889309366130423e+00
2.515389263588366120e+00
2.515389263588366120e+00
2.515389263588366120e+00
2.488388439588610446e+00
2.488388439588610446e+00
2.488388439588610446e+00
2.488388439588610446e+00
2.439449446089053009e+00
2.439449446089053009e+00
2.439449446089053009e+00
2.466450270088809127e+00
2.466450270088809127e+00
2.466450270088809127e+00
2.501326334421826836e+00
2.501326334421826836e+00
2.501326334421826836e+00
2.501326334421826836e+00
2.501888851588488727e+00
2.501888851588488727e+00
2.501888851588488727e+00
2.567703360087893572e+00
2.567703360087893572e+00
2.567703360087893572e+00
2.567703360087893572e+00
2.614954802087466224e+00
2.614954802087466224e+00
2.614954802087466224e+00
2.563015717032380181e+00
2.563015717032380181e+00
2.563015717032380181e+00
2.488200933866389963e+00
2.488200933866389963e+00
2.488200933866389963e+00
2.488200933866389963e+00
2.423698965422528495e+00
2.423698965422528495e+00
2.423698965422528495e+00
2.399510727256080500e+00
2.399510727256080500e+00
2.399510727256080500e+00
2.399510727256080500e+00
2.395010589922788480e+00
2.395010589922788480e+00
2.395010589922788480e+00
2.595454206976531619e+00
2.595454206976531619e+00
2.595454206976531619e+00
2.595454206976531619e+00
2.553265419476912879e+00
2.553265419476912879e+00
2.553265419476912879e+00
2.520451918088320475e+00
2.520451918088320475e+00
2.520451918088320475e+00
2.430449171422468080e+00
2.430449171422468080e+00
2.430449171422468080e+00
2.430449171422468080e+00
2.524952055421613384e+00
2.524952055421613384e+00
2.524952055421613384e+00
2.557203039643543896e+00
2.557203039643543896e+00
2.557203039643543896e+00
2.557203039643543896e+00
2.572391003143406518e+00
2.572391003143406518e+00
2.572391003143406518e+00
2.641768120365001415e+00
2.641768120365001415e+00
2.641768120365001415e+00
2.658081118198186932e+00
2.658081118198186932e+00
2.658081118198186932e+00
2.658081118198186932e+00
2.581766289254432856e+00
2.581766289254432856e+00
2.581766289254432856e+00
2.450324777977843649e+00
2.450324777977843649e+00
2.450324777977843649e+00
2.450324777977843649e+00
2.435136814477980582e+00
2.435136814477980582e+00
2.435136814477980582e+00
2.385072786645100695e+00
2.385072786645100695e+00
2.385072786645100695e+00
2.426699056978057101e+00
2.426699056978057101e+00
2.426699056978057101e+00
2.426699056978057101e+00
2.482950773644215126e+00
2.482950773644215126e+00
2.482950773644215126e+00
2.454824915311136557e+00
2.454824915311136557e+00
2.454824915311136557e+00
2.454824915311136557e+00
2.455012421033357040e+00
2.455012421033357040e+00
2.455012421033357040e+00
2.465512741477706271e+00
2.465512741477706271e+00
2.465512741477706271e+00
2.465512741477706271e+00
2.531139744254890633e+00
2.531139744254890633e+00
2.531139744254890633e+00
2.440386974700155864e+00
2.440386974700155864e+00
2.440386974700155864e+00
2.436261848811303921e+00
2.436261848811303921e+00
2.436261848811303921e+00
2.436261848811303921e+00
2.537889950254829774e+00
2.537889950254829774e+00
2.537889950254829774e+00
2.622080019531845885e+00
2.622080019531845885e+00
2.622080019531845885e+00
2.622080019531845885e+00
2.666893887142552266e+00
2.666893887142552266e+00
2.666893887142552266e+00
2.614954802087466224e+00
2.614954802087466224e+00
2.614954802087466224e+00
2.568265877254555019e+00
2.568265877254555019e+00
2.568265877254555019e+00
2.568265877254555019e+00
2.505076448866237371e+00
2.505076448866237371e+00
2.505076448866237371e+00
2.426136539811395654e+00
2.426136539811395654e+00
2.426136539811395654e+00
2.426136539811395654e+00
2.472075441755424485e+00
2.472075441755424485e+00
2.472075441755424485e+00
2.423136448255867048e+00
2.423136448255867048e+00
2.423136448255867048e+00
2.423136448255867048e+00
2.446762169255653596e+00
2.446762169255653596e+00
2.446762169255653596e+00
2.472262947477644968e+00
2.472262947477644968e+00
2.472262947477644968e+00
2.478825647755364070e+00
2.478825647755364070e+00
2.478825647755364070e+00
2.478825647755364070e+00
2.577078646198919465e+00
2.577078646198919465e+00
2.577078646198919465e+00
2.501513840144047762e+00
2.501513840144047762e+00
2.501513840144047762e+00
2.501513840144047762e+00
2.471137913144322074e+00
2.471137913144322074e+00
2.471137913144322074e+00
2.497201208532975336e+00
2.497201208532975336e+00
2.497201208532975336e+00
2.532639790032654936e+00
2.532639790032654936e+00
2.532639790032654936e+00
2.532639790032654936e+00
2.534327341532639721e+00
2.534327341532639721e+00
2.534327341532639721e+00
2.509014069032868388e+00
2.509014069032868388e+00
2.509014069032868388e+00
2.509014069032868388e+00
2.431574205755790974e+00
2.431574205755790974e+00
2.431574205755790974e+00
2.419761345255897922e+00
2.419761345255897922e+00
2.419761345255897922e+00
2.419761345255897922e+00
2.498701254310739639e+00
2.498701254310739639e+00
2.498701254310739639e+00
2.558515579699087716e+00
2.558515579699087716e+00
2.558515579699087716e+00
2.560765648365733949e+00
2.560765648365733949e+00
2.560765648365733949e+00
2.560765648365733949e+00
2.557015533921323414e+00
2.557015533921323414e+00
2.557015533921323414e+00
2.501513840144047762e+00
2.501513840144047762e+00
2.501513840144047762e+00
2.501513840144047762e+00
2.469075350199895880e+00
2.469075350199895880e+00
2.469075350199895880e+00
2.539389996032593633e+00
2.539389996032593633e+00
2.539389996032593633e+00
2.602016907254249833e+00
2.602016907254249833e+00
2.602016907254249833e+00
2.602016907254249833e+00
2.592641621143223496e+00
2.592641621143223496e+00
2.592641621143223496e+00
2.527389629810480098e+00
2.527389629810480098e+00
2.527389629810480098e+00
2.527389629810480098e+00
2.480325693533127485e+00
2.480325693533127485e+00
2.480325693533127485e+00
2.473200476088747823e+00
2.473200476088747823e+00
2.473200476088747823e+00
2.476013061922055947e+00
2.476013061922055947e+00
2.476013061922055947e+00
2.476013061922055947e+00
2.449574755088961275e+00
2.449574755088961275e+00
2.449574755088961275e+00
2.422948942533646566e+00
2.422948942533646566e+00
2.422948942533646566e+00
2.422948942533646566e+00
2.511264137699515064e+00
2.511264137699515064e+00
2.511264137699515064e+00
2.430449171422468080e+00
2.430449171422468080e+00
2.430449171422468080e+00
2.432886745811334794e+00
2.432886745811334794e+00
2.432886745811334794e+00
2.432886745811334794e+00
2.499263771477401086e+00
2.499263771477401086e+00
2.499263771477401086e+00
2.483513290810876573e+00
2.483513290810876573e+00
2.483513290810876573e+00
2.483513290810876573e+00
2.438699423200171079e+00
2.438699423200171079e+00
2.438699423200171079e+00
2.599766838587603157e+00
2.599766838587603157e+00
2.599766838587603157e+00
2.716207892086550224e+00
2.716207892086550224e+00
2.716207892086550224e+00
2.716207892086550224e+00
2.683581896420178747e+00
2.683581896420178747e+00
2.683581896420178747e+00
2.526264595477157204e+00
2.526264595477157204e+00
2.526264595477157204e+00
2.526264595477157204e+00
2.551015350810266202e+00
2.551015350810266202e+00
2.551015350810266202e+00
2.529077181310464884e+00
2.529077181310464884e+00
2.529077181310464884e+00
2.529077181310464884e+00
2.405510910367137711e+00
2.405510910367137711e+00
2.405510910367137711e+00
2.376260017700735361e+00
2.376260017700735361e+00
2.376260017700735361e+00
2.332008667256691314e+00
2.332008667256691314e+00
2.332008667256691314e+00
2.332008667256691314e+00
2.285694753868221074e+00
2.285694753868221074e+00
2.285694753868221074e+00
2.399698232978301426e+00
2.399698232978301426e+00
2.399698232978301426e+00
2.399698232978301426e+00
2.648893337809381521e+00
2.648893337809381521e+00
2.648893337809381521e+00
2.653768486587115394e+00
2.653768486587115394e+00
2.653768486587115394e+00
2.570328440198980768e+00
2.570328440198980768e+00
2.570328440198980768e+00
2.570328440198980768e+00
2.558328073976867234e+00
2.558328073976867234e+00
2.558328073976867234e+00
2.608579607531968492e+00
2.608579607531968492e+00
2.608579607531968492e+00
2.608579607531968492e+00
2.496076174199651998e+00
2.496076174199651998e+00
2.496076174199651998e+00
2.438136906033509188e+00
2.438136906033509188e+00
2.438136906033509188e+00
2.438136906033509188e+00
2.362572099978637485e+00
2.362572099978637485e+00
2.362572099978637485e+00
2.436074343089083438e+00
2.436074343089083438e+00
2.436074343089083438e+00
2.605579515976439886e+00
2.605579515976439886e+00
2.605579515976439886e+00
2.605579515976439886e+00
2.652643452253792056e+00
2.652643452253792056e+00
2.652643452253792056e+00
2.512201666310617476e+00
2.512201666310617476e+00
2.512201666310617476e+00
2.512201666310617476e+00
2.495138645588549586e+00
2.495138645588549586e+00
2.495138645588549586e+00
2.483888302255317981e+00
2.483888302255317981e+00
2.483888302255317981e+00
2.483888302255317981e+00
2.454637409588916075e+00
2.454637409588916075e+00
2.454637409588916075e+00
2.524389538254951937e+00
2.524389538254951937e+00
2.524389538254951937e+00
2.574266060365611786e+00
2.574266060365611786e+00
2.574266060365611786e+00
2.574266060365611786e+00
2.540327524643696488e+00
2.540327524643696488e+00
2.540327524643696488e+00
2.563390728476821145e+00
2.563390728476821145e+00
2.563390728476821145e+00
2.563390728476821145e+00
2.550265327921384717e+00
2.550265327921384717e+00
2.550265327921384717e+00
2.470575395977660182e+00
2.470575395977660182e+00
2.470575395977660182e+00
2.439824457533493973e+00
2.439824457533493973e+00
2.439824457533493973e+00
2.439824457533493973e+00
2.434949308755760100e+00
2.434949308755760100e+00
2.434949308755760100e+00
2.332571184423352761e+00
2.332571184423352761e+00
2.332571184423352761e+00
2.332571184423352761e+00
2.485763359477523249e+00
2.485763359477523249e+00
2.485763359477523249e+00
2.479200659199805035e+00
2.479200659199805035e+00
2.479200659199805035e+00
2.497013702810754854e+00
2.497013702810754854e+00
2.497013702810754854e+00
2.497013702810754854e+00
2.666518875698111302e+00
2.666518875698111302e+00
2.666518875698111302e+00
2.626205145420697828e+00
2.626205145420697828e+00
2.626205145420697828e+00
2.626205145420697828e+00
2.560390636921292984e+00
2.560390636921292984e+00
2.560390636921292984e+00
2.533577318643757348e+00
2.533577318643757348e+00
2.533577318643757348e+00
2.533577318643757348e+00
2.570703451643421733e+00
2.570703451643421733e+00
2.570703451643421733e+00
2.543890133365886541e+00
2.543890133365886541e+00
2.543890133365886541e+00
2.417511276589251690e+00
2.417511276589251690e+00
2.417511276589251690e+00
2.417511276589251690e+00
2.331633655812249906e+00
2.331633655812249906e+00
2.331633655812249906e+00
2.323383404034546906e+00
2.323383404034546906e+00
2.323383404034546906e+00
2.323383404034546906e+00
2.437386883144627259e+00
2.437386883144627259e+00
2.437386883144627259e+00
2.540702536088137453e+00
2.540702536088137453e+00
2.540702536088137453e+00
2.540702536088137453e+00
2.499263771477401086e+00
2.499263771477401086e+00
2.499263771477401086e+00
2.470762901699881109e+00
2.470762901699881109e+00
2.470762901699881109e+00
2.568453382976775501e+00
2.568453382976775501e+00
2.568453382976775501e+00
2.568453382976775501e+00
2.675144138920255266e+00
2.675144138920255266e+00
2.675144138920255266e+00
2.641955626087221898e+00
2.641955626087221898e+00
2.641955626087221898e+00
2.641955626087221898e+00
2.590391552476577264e+00
2.590391552476577264e+00
2.590391552476577264e+00
2.612892239143040030e+00
2.612892239143040030e+00
2.612892239143040030e+00
2.517076815088350905e+00
2.517076815088350905e+00
2.517076815088350905e+00
2.517076815088350905e+00
2.380010132145145896e+00
2.380010132145145896e+00
2.380010132145145896e+00
2.397260658589434712e+00
2.397260658589434712e+00
2.397260658589434712e+00
2.397260658589434712e+00
2.527952146977141545e+00
2.527952146977141545e+00
2.527952146977141545e+00
2.529264687032685366e+00
2.529264687032685366e+00
2.529264687032685366e+00
2.529264687032685366e+00
2.534889858699301168e+00
2.534889858699301168e+00
2.534889858699301168e+00
2.520639423810540958e+00
2.520639423810540958e+00
2.520639423810540958e+00
2.410386059144871140e+00
2.410386059144871140e+00
2.410386059144871140e+00
2.410386059144871140e+00
2.349259193700979687e+00
2.349259193700979687e+00
2.349259193700979687e+00
2.348696676534318240e+00
2.348696676534318240e+00
2.348696676534318240e+00
2.348696676534318240e+00
2.490451002533036640e+00
2.490451002533036640e+00
2.490451002533036640e+00
2.697644825586718476e+00
2.697644825586718476e+00
2.697644825586718476e+00
2.697644825586718476e+00
2.722395580919827918e+00
2.722395580919827918e+00
2.722395580919827918e+00
2.636705465865047060e+00
2.636705465865047060e+00
2.636705465865047060e+00
2.457074983977782345e+00
2.457074983977782345e+00
2.457074983977782345e+00
2.457074983977782345e+00
2.361822077089755112e+00
2.361822077089755112e+00
2.361822077089755112e+00
2.513139194921720332e+00
2.513139194921720332e+00
2.513139194921720332e+00
2.513139194921720332e+00
2.507514023255104085e+00
2.507514023255104085e+00
2.507514023255104085e+00
2.539389996032593633e+00
2.539389996032593633e+00
2.539389996032593633e+00
2.528702169866023475e+00
2.528702169866023475e+00
2.528702169866023475e+00
2.528702169866023475e+00
2.506764000366222156e+00
2.506764000366222156e+00
2.506764000366222156e+00
2.465700247199926753e+00
2.465700247199926753e+00
2.465700247199926753e+00
2.465700247199926753e+00
2.376072511978514878e+00
2.376072511978514878e+00
2.376072511978514878e+00
2.484263313699758946e+00
2.484263313699758946e+00
2.484263313699758946e+00
2.589641529587694890e+00
2.589641529587694890e+00
2.589641529587694890e+00
2.589641529587694890e+00
2.501513840144047762e+00
2.501513840144047762e+00
2.501513840144047762e+00
2.552515396588030505e+00
2.552515396588030505e+00
2.552515396588030505e+00
2.480513199255348411e+00
2.480513199255348411e+00
2.480513199255348411e+00
2.480513199255348411e+00
2.408323496200445835e+00
2.408323496200445835e+00
2.408323496200445835e+00
2.529452192754905848e+00
2.529452192754905848e+00
2.529452192754905848e+00
2.529452192754905848e+00
2.517451826532791870e+00
2.517451826532791870e+00
2.517451826532791870e+00
2.644955717642750059e+00
2.644955717642750059e+00
2.644955717642750059e+00
2.644955717642750059e+00
2.567703360087893572e+00
2.567703360087893572e+00
2.567703360087893572e+00
2.575953611865596571e+00
2.575953611865596571e+00
2.575953611865596571e+00
2.539577501754814115e+00
2.539577501754814115e+00
2.539577501754814115e+00
2.539577501754814115e+00
2.557390545365764378e+00
2.557390545365764378e+00
2.557390545365764378e+00
2.542202581865901756e+00
2.542202581865901756e+00
2.542202581865901756e+00
2.542202581865901756e+00
2.474325510422071162e+00
2.474325510422071162e+00
2.474325510422071162e+00
2.473575487533188788e+00
2.473575487533188788e+00
2.473575487533188788e+00
2.473575487533188788e+00
2.525327066866054349e+00
2.525327066866054349e+00
2.525327066866054349e+00
2.503951414532914033e+00
2.503951414532914033e+00
2.503951414532914033e+00
2.395198095645008962e+00
2.395198095645008962e+00
2.395198095645008962e+00
2.395198095645008962e+00
2.305195348979155678e+00
2.305195348979155678e+00
2.305195348979155678e+00
2.404198370311593891e+00
2.404198370311593891e+00
2.404198370311593891e+00
2.404198370311593891e+00
2.463450178533280521e+00
2.463450178533280521e+00
2.463450178533280521e+00
2.569015900143436948e+00
2.569015900143436948e+00
2.569015900143436948e+00
2.594891689809869728e+00
2.594891689809869728e+00
2.594891689809869728e+00
2.594891689809869728e+00
2.605392010254219404e+00
2.605392010254219404e+00
2.605392010254219404e+00
2.513701712088381779e+00
2.513701712088381779e+00
2.513701712088381779e+00
2.513701712088381779e+00
2.440011963255714900e+00
2.440011963255714900e+00
2.440011963255714900e+00
2.474138004699850679e+00
2.474138004699850679e+00
2.474138004699850679e+00
2.418073793755913137e+00
2.418073793755913137e+00
2.418073793755913137e+00
2.418073793755913137e+00
2.542390087588122238e+00
2.542390087588122238e+00
2.542390087588122238e+00
2.829086336863307682e+00
2.829086336863307682e+00
2.829086336863307682e+00
2.829086336863307682e+00
2.627330179754020723e+00
2.627330179754020723e+00
2.627330179754020723e+00
2.428574114200262368e+00
2.428574114200262368e+00
2.428574114200262368e+00
2.428574114200262368e+00
2.489700979644154266e+00
2.489700979644154266e+00
2.489700979644154266e+00
2.501888851588488727e+00
2.501888851588488727e+00
2.501888851588488727e+00
2.505451460310678335e+00
2.505451460310678335e+00
2.505451460310678335e+00
2.505451460310678335e+00
2.488013428144169481e+00
2.488013428144169481e+00
2.488013428144169481e+00
2.442449537644581614e+00
2.442449537644581614e+00
2.442449537644581614e+00
2.442449537644581614e+00
2.464012695699941968e+00
2.464012695699941968e+00
2.464012695699941968e+00
2.465887752922147680e+00
2.465887752922147680e+00
2.465887752922147680e+00
2.550452833643604755e+00
2.550452833643604755e+00
2.550452833643604755e+00
2.550452833643604755e+00
2.569953428754539804e+00
2.569953428754539804e+00
2.569953428754539804e+00
2.493263588366343875e+00
2.493263588366343875e+00
2.493263588366343875e+00
2.493263588366343875e+00
2.513889217810602261e+00
2.513889217810602261e+00
2.513889217810602261e+00
2.547452742088076594e+00
2.547452742088076594e+00
2.547452742088076594e+00
2.485575853755302767e+00
2.485575853755302767e+00
2.485575853755302767e+00
2.485575853755302767e+00
2.477138096255378841e+00
2.477138096255378841e+00
2.477138096255378841e+00
2.527389629810480098e+00
2.527389629810480098e+00
2.527389629810480098e+00
2.527389629810480098e+00
2.533764824365978274e+00
2.533764824365978274e+00
2.533764824365978274e+00
2.503763908810693550e+00
2.503763908810693550e+00
2.503763908810693550e+00
2.544077639088107023e+00
2.544077639088107023e+00
2.544077639088107023e+00
2.544077639088107023e+00
2.516326792199468976e+00
2.516326792199468976e+00
2.516326792199468976e+00
2.503951414532914033e+00
2.503951414532914033e+00
2.503951414532914033e+00
2.503951414532914033e+00
2.463450178533280521e+00
2.463450178533280521e+00
2.463450178533280521e+00
2.438324411755729670e+00
2.438324411755729670e+00
2.438324411755729670e+00
2.438324411755729670e+00
2.345509079256569152e+00
2.345509079256569152e+00
2.345509079256569152e+00
2.463637684255501004e+00
2.463637684255501004e+00
2.463637684255501004e+00
2.573516037476729856e+00
2.573516037476729856e+00
2.573516037476729856e+00
2.573516037476729856e+00
2.601079378643146978e+00
2.601079378643146978e+00
2.601079378643146978e+00
2.623580065309610188e+00
2.623580065309610188e+00
2.623580065309610188e+00
2.623580065309610188e+00
2.652268440809351091e+00
2.652268440809351091e+00
2.652268440809351091e+00
2.538077455977050256e+00
2.538077455977050256e+00
2.538077455977050256e+00
2.538077455977050256e+00
2.455387432477798004e+00
2.455387432477798004e+00
2.455387432477798004e+00
2.400073244422742391e+00
2.400073244422742391e+00
2.400073244422742391e+00
2.395385601367229444e+00
2.395385601367229444e+00
2.395385601367229444e+00
2.395385601367229444e+00
2.500951322977385871e+00
2.500951322977385871e+00
2.500951322977385871e+00
2.418448805200354101e+00
2.418448805200354101e+00
2.418448805200354101e+00
2.418448805200354101e+00
2.445824640644550740e+00
2.445824640644550740e+00
2.445824640644550740e+00
2.599391827143162192e+00
2.599391827143162192e+00
2.599391827143162192e+00
2.643643177587206683e+00
2.643643177587206683e+00
2.643643177587206683e+00
2.643643177587206683e+00
2.612329721976378583e+00
2.612329721976378583e+00
2.612329721976378583e+00
2.614204779198583850e+00
2.614204779198583850e+00
2.614204779198583850e+00
2.614204779198583850e+00
2.457449995422223310e+00
2.457449995422223310e+00
2.457449995422223310e+00
2.443199560533463544e+00
2.443199560533463544e+00
2.443199560533463544e+00
2.443199560533463544e+00
2.496638691366313889e+00
2.496638691366313889e+00
2.496638691366313889e+00
2.516701803643909940e+00
2.516701803643909940e+00
2.516701803643909940e+00
2.605954527420880851e+00
2.605954527420880851e+00
2.605954527420880851e+00
2.605954527420880851e+00
2.579516220587786623e+00
2.579516220587786623e+00
2.579516220587786623e+00
2.563203222754600663e+00
2.563203222754600663e+00
2.563203222754600663e+00
2.563203222754600663e+00
2.312883083590197675e+00
2.312883083590197675e+00
2.312883083590197675e+00
2.296007568590349823e+00
2.296007568590349823e+00
2.296007568590349823e+00
2.437574388866847741e+00
2.437574388866847741e+00
2.437574388866847741e+00
2.437574388866847741e+00
2.585141392254402426e+00
2.585141392254402426e+00
2.585141392254402426e+00
2.516889309366130423e+00
2.516889309366130423e+00
2.516889309366130423e+00
2.516889309366130423e+00
2.542202581865901756e+00
2.542202581865901756e+00
2.542202581865901756e+00
2.610454664754173315e+00
2.610454664754173315e+00
2.610454664754173315e+00
2.589266518143253926e+00
2.589266518143253926e+00
2.589266518143253926e+00
2.589266518143253926e+00
2.436636860255744885e+00
2.436636860255744885e+00
2.436636860255744885e+00
2.441324503311258276e+00
2.441324503311258276e+00
2.441324503311258276e+00
2.441324503311258276e+00
2.268444227423932702e+00
2.268444227423932702e+00
2.268444227423932702e+00
2.331633655812249906e+00
2.331633655812249906e+00
2.331633655812249906e+00
2.650205877864925341e+00
2.650205877864925341e+00
2.650205877864925341e+00
2.650205877864925341e+00
2.743021210364085860e+00
2.743021210364085860e+00
2.743021210364085860e+00
2.624517593920713043e+00
2.624517593920713043e+00
2.624517593920713043e+00
2.624517593920713043e+00
2.534514847254860204e+00
2.534514847254860204e+00
2.534514847254860204e+00
2.608954618976409012e+00
2.608954618976409012e+00
2.608954618976409012e+00
2.608954618976409012e+00
2.629955259865108363e+00
2.629955259865108363e+00
2.629955259865108363e+00
2.526452101199377687e+00
2.526452101199377687e+00
2.526452101199377687e+00
2.397448164311655194e+00
2.397448164311655194e+00
2.397448164311655194e+00
2.397448164311655194e+00
2.347196630756553937e+00
2.347196630756553937e+00
2.347196630756553937e+00
2.421448896755882263e+00
2.421448896755882263e+00
2.421448896755882263e+00
2.421448896755882263e+00
2.379822626422925413e+00
2.379822626422925413e+00
2.379822626422925413e+00
2.594891689809869728e+00
2.594891689809869728e+00
2.594891689809869728e+00
2.594891689809869728e+00
2.596391735587634031e+00
2.596391735587634031e+00
2.596391735587634031e+00
2.545202673421430362e+00
2.545202673421430362e+00
2.545202673421430362e+00
2.578391186254463285e+00
2.578391186254463285e+00
2.578391186254463285e+00
2.578391186254463285e+00
2.660143681142613126e+00
2.660143681142613126e+00
2.660143681142613126e+00
2.633892880031738937e+00
2.633892880031738937e+00
2.633892880031738937e+00
2.633892880031738937e+00
2.305570360423596643e+00
2.305570360423596643e+00
2.305570360423596643e+00
2.095188940092165719e+00
2.095188940092165719e+00
2.095188940092165719e+00
2.095188940092165719e+00
2.135877681814020157e+00
2.135877681814020157e+00
2.135877681814020157e+00
2.377197546311838217e+00
2.377197546311838217e+00
2.377197546311838217e+00
2.716395397808770706e+00
2.716395397808770706e+00
2.716395397808770706e+00
2.716395397808770706e+00
2.743583727530747307e+00
2.743583727530747307e+00
2.743583727530747307e+00
2.732333384197515702e+00
2.732333384197515702e+00
2.732333384197515702e+00
2.732333384197515702e+00
2.768897000030518640e+00
2.768897000030518640e+00
2.768897000030518640e+00
2.776397228919339710e+00
2.776397228919339710e+00
2.776397228919339710e+00
2.532827295754875419e+00
2.532827295754875419e+00
2.532827295754875419e+00
2.532827295754875419e+00
2.352634296700948813e+00
2.352634296700948813e+00
2.352634296700948813e+00
2.407010956144902014e+00
2.407010956144902014e+00
2.407010956144902014e+00
2.407010956144902014e+00
2.214817590868861874e+00
2.214817590868861874e+00
2.214817590868861874e+00
2.159128391369365740e+00
2.159128391369365740e+00
2.159128391369365740e+00
2.159128391369365740e+00
2.389947935422834124e+00
2.389947935422834124e+00
2.389947935422834124e+00
2.769647022919400570e+00
2.769647022919400570e+00
2.769647022919400570e+00
2.688457045197912620e+00
2.688457045197912620e+00
2.688457045197912620e+00
2.688457045197912620e+00
2.607267067476424671e+00
2.607267067476424671e+00
2.607267067476424671e+00
2.561140659810174913e+00
2.561140659810174913e+00
2.561140659810174913e+00
2.561140659810174913e+00
2.510326609088412209e+00
2.510326609088412209e+00
2.510326609088412209e+00
2.399510727256080500e+00
2.399510727256080500e+00
2.399510727256080500e+00
2.300695211645863214e+00
2.300695211645863214e+00
2.300695211645863214e+00
2.300695211645863214e+00
2.313820612201300086e+00
2.313820612201300086e+00
2.313820612201300086e+00
2.517264320810571387e+00
2.517264320810571387e+00
2.517264320810571387e+00
2.517264320810571387e+00
2.658643635364848823e+00
2.658643635364848823e+00
2.658643635364848823e+00
2.574641071810052750e+00
2.574641071810052750e+00
2.574641071810052750e+00
2.564140751365703075e+00
2.564140751365703075e+00
2.564140751365703075e+00
2.564140751365703075e+00
2.496638691366313889e+00
2.496638691366313889e+00
2.496638691366313889e+00
2.497201208532975336e+00
2.497201208532975336e+00
2.497201208532975336e+00
2.497201208532975336e+00
2.503388897366253030e+00
2.503388897366253030e+00
2.503388897366253030e+00
2.518764366588335690e+00
2.518764366588335690e+00
2.518764366588335690e+00
2.518764366588335690e+00
2.538452467421491221e+00
2.538452467421491221e+00
2.538452467421491221e+00
2.601829401532029351e+00
2.601829401532029351e+00
2.601829401532029351e+00
2.579703726310007106e+00
2.579703726310007106e+00
2.579703726310007106e+00
2.579703726310007106e+00
2.569390911587878357e+00
2.569390911587878357e+00
2.569390911587878357e+00
2.492326059755241463e+00
2.492326059755241463e+00
2.492326059755241463e+00
2.492326059755241463e+00
2.526452101199377687e+00
2.526452101199377687e+00
2.526452101199377687e+00
2.421636402478102745e+00
2.421636402478102745e+00
2.421636402478102745e+00
2.474325510422071162e+00
2.474325510422071162e+00
2.474325510422071162e+00
2.474325510422071162e+00
2.520264412366099993e+00
2.520264412366099993e+00
2.520264412366099993e+00
2.460637592699972398e+00
2.460637592699972398e+00
2.460637592699972398e+00
2.460637592699972398e+00
2.473575487533188788e+00
2.473575487533188788e+00
2.473575487533188788e+00
2.467575304422132465e+00
2.467575304422132465e+00
2.467575304422132465e+00
2.467575304422132465e+00
2.493263588366343875e+00
2.493263588366343875e+00
2.493263588366343875e+00
2.464200201422162451e+00
2.464200201422162451e+00
2.464200201422162451e+00
2.435324320200201509e+00
2.435324320200201509e+00
2.435324320200201509e+00
2.435324320200201509e+00
2.484450819421979428e+00
2.484450819421979428e+00
2.484450819421979428e+00
2.683206884975737783e+00
2.683206884975737783e+00
2.683206884975737783e+00
2.683206884975737783e+00
2.759146702475051338e+00
2.759146702475051338e+00
2.759146702475051338e+00
2.653205969420453503e+00
2.653205969420453503e+00
2.653205969420453503e+00
2.530389721366008260e+00
2.530389721366008260e+00
2.519514389477218064e+00
2.519514389477218064e+00
2.519514389477218064e+00
2.519514389477218064e+00
2.434011780144657688e+00
2.434011780144657688e+00
2.434011780144657688e+00
2.311570543534653854e+00
2.311570543534653854e+00
2.311570543534653854e+00
2.244818506424146598e+00
2.244818506424146598e+00
2.244818506424146598e+00
2.244818506424146598e+00
2.388635395367290304e+00
2.388635395367290304e+00
2.388635395367290304e+00
2.651518417920468718e+00
2.651518417920468718e+00
2.651518417920468718e+00
2.665018829920346999e+00
2.665018829920346999e+00
2.665018829920346999e+00
2.665018829920346999e+00
2.634830408642841792e+00
2.634830408642841792e+00
2.634830408642841792e+00
2.518201849421674243e+00
2.518201849421674243e+00
2.518201849421674243e+00
2.518201849421674243e+00
2.555515488143559111e+00
2.555515488143559111e+00
2.555515488143559111e+00
2.407760979033784388e+00
2.407760979033784388e+00
2.407760979033784388e+00
2.407760979033784388e+00
2.340446424756614796e+00
2.340446424756614796e+00
2.340446424756614796e+00
2.515014252143925599e+00
2.515014252143925599e+00
2.515014252143925599e+00
2.515014252143925599e+00
2.587391460921048658e+00
2.587391460921048658e+00
2.587391460921048658e+00
2.383197729422894984e+00
2.383197729422894984e+00
2.383197729422894984e+00
2.621705008087404920e+00
2.621705008087404920e+00
2.621705008087404920e+00
2.621705008087404920e+00
2.748458876308481180e+00
2.748458876308481180e+00
2.748458876308481180e+00
2.624892605365154008e+00
2.624892605365154008e+00
2.624892605365154008e+00
2.624892605365154008e+00
2.333883724478896582e+00
2.333883724478896582e+00
2.333883724478896582e+00
2.256443861201819168e+00
2.256443861201819168e+00
2.256443861201819168e+00
2.310070497756889552e+00
2.310070497756889552e+00
2.310070497756889552e+00
2.310070497756889552e+00
2.371947386089663379e+00
2.371947386089663379e+00
2.371947386089663379e+00
2.439261940366832526e+00
2.439261940366832526e+00
2.439261940366832526e+00
2.439261940366832526e+00
2.606517044587542742e+00
2.606517044587542742e+00
2.606517044587542742e+00
2.530577227088229186e+00
2.530577227088229186e+00
2.530577227088229186e+00
2.530577227088229186e+00
2.617392376476332938e+00
2.617392376476332938e+00
2.617392376476332938e+00
2.645893246253852915e+00
2.645893246253852915e+00
2.645893246253852915e+00
2.515576769310586602e+00
2.515576769310586602e+00
2.515576769310586602e+00
2.515576769310586602e+00
2.474325510422071162e+00
2.474325510422071162e+00
2.474325510422071162e+00
2.572015991698965554e+00
2.572015991698965554e+00
2.572015991698965554e+00
2.572015991698965554e+00
2.643268166142765718e+00
2.643268166142765718e+00
2.643268166142765718e+00
2.579891232032227588e+00
2.579891232032227588e+00
2.579891232032227588e+00
2.452199835200048916e+00
2.452199835200048916e+00
2.452199835200048916e+00
2.452199835200048916e+00
2.526827112643818651e+00
2.526827112643818651e+00
2.521951963866084778e+00
2.521951963866084778e+00
2.521951963866084778e+00
2.553077913754691952e+00
2.553077913754691952e+00
2.553077913754691952e+00
2.553077913754691952e+00
2.464575212866603859e+00
2.464575212866603859e+00
2.464575212866603859e+00
2.393135532700583212e+00
2.393135532700583212e+00
2.393135532700583212e+00
2.393135532700583212e+00
2.230943082979827352e+00
2.230943082979827352e+00
2.230943082979827352e+00
2.323008392590105942e+00
2.323008392590105942e+00
2.323008392590105942e+00
2.578016174810022321e+00
2.578016174810022321e+00
2.578016174810022321e+00
2.578016174810022321e+00
2.602954435865352245e+00
2.602954435865352245e+00
2.602954435865352245e+00
2.777709768974883087e+00
2.777709768974883087e+00
2.777709768974883087e+00
2.777709768974883087e+00
2.762709311197240947e+00
2.762709311197240947e+00
2.762709311197240947e+00
2.698394848475600405e+00
2.698394848475600405e+00
2.698394848475600405e+00
2.446199652088991705e+00
2.446199652088991705e+00
2.446199652088991705e+00
2.446199652088991705e+00
2.489888485366374749e+00
2.489888485366374749e+00
2.489888485366374749e+00
2.392198004089480357e+00
2.392198004089480357e+00
2.392198004089480357e+00
2.419948850978118404e+00
2.419948850978118404e+00
2.419948850978118404e+00
2.419948850978118404e+00
2.250631183812982439e+00
2.250631183812982439e+00
2.250631183812982439e+00
2.371759880367442896e+00
2.371759880367442896e+00
2.371759880367442896e+00
2.371759880367442896e+00
2.706082583086641957e+00
2.706082583086641957e+00
2.706082583086641957e+00
2.812210821863460275e+00
2.812210821863460275e+00
2.812210821863460275e+00
2.812210821863460275e+00
2.668768944364757090e+00
2.668768944364757090e+00
2.668768944364757090e+00
2.584766380809961461e+00
2.584766380809961461e+00
2.584766380809961461e+00
2.283444685201574842e+00
2.283444685201574842e+00
2.283444685201574842e+00
2.283444685201574842e+00
2.324508438367870244e+00
2.324508438367870244e+00
2.324508438367870244e+00
2.439261940366832526e+00
2.439261940366832526e+00
2.439261940366832526e+00
2.439261940366832526e+00
2.289444868312631609e+00
2.289444868312631609e+00
2.289444868312631609e+00
2.267881710257271255e+00
2.267881710257271255e+00
2.267881710257271255e+00
2.267881710257271255e+00
2.611017181920834762e+00
2.611017181920834762e+00
2.611017181920834762e+00
2.683206884975737783e+00
2.683206884975737783e+00
2.683206884975737783e+00
2.584016357921079532e+00
2.584016357921079532e+00
2.584016357921079532e+00
2.584016357921079532e+00
2.626580156865138793e+00
2.626580156865138793e+00
2.626580156865138793e+00
2.618517410809656276e+00
2.618517410809656276e+00
2.618517410809656276e+00
2.618517410809656276e+00
2.638018005920590880e+00
2.638018005920590880e+00
2.638018005920590880e+00
2.643455671864986201e+00
2.643455671864986201e+00
2.643455671864986201e+00
2.581953794976653338e+00
2.581953794976653338e+00
2.581953794976653338e+00
2.581953794976653338e+00
2.345321573534348669e+00
2.345321573534348669e+00
2.345321573534348669e+00
2.421261391033662225e+00
2.421261391033662225e+00
2.421261391033662225e+00
2.421261391033662225e+00
2.188566789757988129e+00
2.188566789757988129e+00
2.188566789757988129e+00
2.176753929258095077e+00
2.176753929258095077e+00
2.176753929258095077e+00
2.176753929258095077e+00
2.314758140812402942e+00
2.314758140812402942e+00
2.314758140812402942e+00
2.761584276863917609e+00
2.761584276863917609e+00
2.761584276863917609e+00
2.829461348307748647e+00
2.829461348307748647e+00
2.829461348307748647e+00
2.829461348307748647e+00
2.799085421308023403e+00
2.799085421308023403e+00
2.799085421308023403e+00
2.683394390697958265e+00
2.683394390697958265e+00
2.683394390697958265e+00
2.683394390697958265e+00
2.448637226477858864e+00
2.448637226477858864e+00
2.448637226477858864e+00
2.220630268257698603e+00
2.220630268257698603e+00
2.220630268257698603e+00
2.261319009979552597e+00
2.261319009979552597e+00
2.261319009979552597e+00
2.261319009979552597e+00
2.326008484145634547e+00
2.326008484145634547e+00
2.326008484145634547e+00
2.569578417310098839e+00
2.569578417310098839e+00
2.569578417310098839e+00
2.569578417310098839e+00
2.610267159031952833e+00
2.610267159031952833e+00
2.610267159031952833e+00
2.733270912808618558e+00
2.733270912808618558e+00
2.733270912808618558e+00
2.744146244697409198e+00
2.744146244697409198e+00
2.744146244697409198e+00
2.744146244697409198e+00
2.744333750419629681e+00
2.744333750419629681e+00
2.744333750419629681e+00
2.427824091311380439e+00
2.427824091311380439e+00
2.427824091311380439e+00
2.427824091311380439e+00
2.323195898312326424e+00
2.323195898312326424e+00
2.323195898312326424e+00
2.254943815424054865e+00
2.254943815424054865e+00
2.254943815424054865e+00
2.448074709311197417e+00
2.448074709311197417e+00
2.448074709311197417e+00
2.448074709311197417e+00
2.619454939420759132e+00
2.619454939420759132e+00
2.619454939420759132e+00
2.626767662587359276e+00
2.626767662587359276e+00
2.626767662587359276e+00
2.308757957701345731e+00
2.308757957701345731e+00
2.308757957701345731e+00
2.308757957701345731e+00
2.368197271645252844e+00
2.368197271645252844e+00
2.368197271645252844e+00
2.651330912198248235e+00
2.651330912198248235e+00
2.651330912198248235e+00
2.651330912198248235e+00
2.689207068086794994e+00
2.689207068086794994e+00
2.689207068086794994e+00
2.593016632587664461e+00
2.593016632587664461e+00
2.593016632587664461e+00
2.593016632587664461e+00
2.347759147923215384e+00
2.347759147923215384e+00
2.347759147923215384e+00
2.253068758201849597e+00
2.253068758201849597e+00
2.253068758201849597e+00
2.367259743034150432e+00
2.367259743034150432e+00
2.367259743034150432e+00
2.367259743034150432e+00
2.532639790032654936e+00
2.532639790032654936e+00
2.532639790032654936e+00
2.436824365977965812e+00
2.436824365977965812e+00
2.436824365977965812e+00
2.436824365977965812e+00
2.551390362254707167e+00
2.551390362254707167e+00
2.551390362254707167e+00
2.614579790643025259e+00
2.614579790643025259e+00
2.614579790643025259e+00
2.651143406476027753e+00
2.651143406476027753e+00
2.651143406476027753e+00
2.651143406476027753e+00
2.568265877254555019e+00
2.568265877254555019e+00
2.568265877254555019e+00
2.566015808587908342e+00
2.566015808587908342e+00
2.566015808587908342e+00
2.566015808587908342e+00
2.356384411145359792e+00
2.356384411145359792e+00
2.356384411145359792e+00
2.621142490920743473e+00
2.621142490920743473e+00
2.621142490920743473e+00
2.621142490920743473e+00
2.711895260475478686e+00
2.711895260475478686e+00
2.711895260475478686e+00
2.540327524643696488e+00
2.540327524643696488e+00
2.540327524643696488e+00
2.422198919644764192e+00
2.422198919644764192e+00
2.422198919644764192e+00
2.422198919644764192e+00
2.452199835200048916e+00
2.452199835200048916e+00
2.452199835200048916e+00
2.417698782311472172e+00
2.417698782311472172e+00
2.417698782311472172e+00
2.417698782311472172e+00
2.320758323923459709e+00
2.320758323923459709e+00
2.320758323923459709e+00
2.390135441145054607e+00
2.390135441145054607e+00
2.390135441145054607e+00
2.396323129978331856e+00
2.396323129978331856e+00
2.396323129978331856e+00
2.396323129978331856e+00
2.440011963255714900e+00
2.440011963255714900e+00
2.440011963255714900e+00
2.709645191808832010e+00
2.709645191808832010e+00
2.709645191808832010e+00
2.709645191808832010e+00
2.708707663197729598e+00
2.708707663197729598e+00
2.708707663197729598e+00
2.548202764976958523e+00
2.548202764976958523e+00
2.548202764976958523e+00
2.548202764976958523e+00
2.654331003753776841e+00
2.654331003753776841e+00
2.654331003753776841e+00
2.623017548142948741e+00
2.623017548142948741e+00
2.623017548142948741e+00
2.465887752922147680e+00
2.465887752922147680e+00
2.465887752922147680e+00
2.465887752922147680e+00
2.365947202978606612e+00
2.365947202978606612e+00
2.365947202978606612e+00
2.438511917477950597e+00
2.438511917477950597e+00
2.438511917477950597e+00
2.438511917477950597e+00
2.424073976866969904e+00
2.424073976866969904e+00
2.424073976866969904e+00
2.450699789422284613e+00
2.450699789422284613e+00
2.450699789422284613e+00
2.566390820032349751e+00
2.566390820032349751e+00
2.566390820032349751e+00
2.566390820032349751e+00
2.521576952421643814e+00
2.521576952421643814e+00
2.521576952421643814e+00
2.536952421643726918e+00
2.536952421643726918e+00
2.536952421643726918e+00
2.536952421643726918e+00
2.610642170476393797e+00
2.610642170476393797e+00
2.610642170476393797e+00
2.587391460921048658e+00
2.587391460921048658e+00
2.587391460921048658e+00
2.579328714865566141e+00
2.579328714865566141e+00
2.579328714865566141e+00
2.579328714865566141e+00
2.524952055421613384e+00
2.524952055421613384e+00
2.524952055421613384e+00
2.397073152867214230e+00
2.397073152867214230e+00
2.397073152867214230e+00
2.397073152867214230e+00
2.199817133091219734e+00
2.199817133091219734e+00
2.199817133091219734e+00
2.324883449812311209e+00
2.324883449812311209e+00
2.324883449812311209e+00
2.324883449812311209e+00
2.465512741477706271e+00
2.465512741477706271e+00
2.465512741477706271e+00
2.490451002533036640e+00
2.490451002533036640e+00
2.490451002533036640e+00
2.458012512588885201e+00
2.458012512588885201e+00
2.458012512588885201e+00
2.458012512588885201e+00
2.683019379253517300e+00
2.683019379253517300e+00
2.683019379253517300e+00
2.728583269753105167e+00
2.728583269753105167e+00
2.728583269753105167e+00
2.728583269753105167e+00
2.678519241920224836e+00
2.678519241920224836e+00
2.678519241920224836e+00
2.510326609088412209e+00
2.510326609088412209e+00
2.510326609088412209e+00
2.482200750755333196e+00
2.482200750755333196e+00
2.482200750755333196e+00
2.482200750755333196e+00
2.477325601977599767e+00
2.477325601977599767e+00
2.477325601977599767e+00
2.331258644367808941e+00
2.331258644367808941e+00
2.331258644367808941e+00
2.331258644367808941e+00
2.466262764366588645e+00
2.466262764366588645e+00
2.466262764366588645e+00
2.844461806085390787e+00
2.844461806085390787e+00
2.844461806085390787e+00
2.844461806085390787e+00
2.736833521530808611e+00
2.736833521530808611e+00
2.736833521530808611e+00
2.399510727256080500e+00
2.399510727256080500e+00
2.399510727256080500e+00
2.257568895535142062e+00
2.257568895535142062e+00
2.257568895535142062e+00
2.257568895535142062e+00
2.129127475814081016e+00
2.129127475814081016e+00
2.129127475814081016e+00
2.516701803643909940e+00
2.516701803643909940e+00
2.516701803643909940e+00
2.516701803643909940e+00
2.618142399365215311e+00
2.618142399365215311e+00
2.618142399365215311e+00
2.579891232032227588e+00
2.579891232032227588e+00
2.579891232032227588e+00
2.495138645588549586e+00
2.495138645588549586e+00
2.495138645588549586e+00
2.495138645588549586e+00
2.598266792809838854e+00
2.598266792809838854e+00
2.598266792809838854e+00
2.712645283364360616e+00
2.712645283364360616e+00
2.712645283364360616e+00
2.712645283364360616e+00
2.565265785699026413e+00
2.565265785699026413e+00
2.565265785699026413e+00
2.338008850367748082e+00
2.338008850367748082e+00
2.338008850367748082e+00
2.338008850367748082e+00
2.461575121311075254e+00
2.461575121311075254e+00
2.461575121311075254e+00
2.496638691366313889e+00
2.496638691366313889e+00
2.496638691366313889e+00
2.314383129367961978e+00
2.314383129367961978e+00
2.314383129367961978e+00
2.314383129367961978e+00
2.476575579088717394e+00
2.476575579088717394e+00
2.476575579088717394e+00
2.718832972197637865e+00
2.718832972197637865e+00
2.718832972197637865e+00
2.718832972197637865e+00
2.563953245643482592e+00
2.563953245643482592e+00
2.563953245643482592e+00
2.367447248756370914e+00
2.367447248756370914e+00
2.367447248756370914e+00
2.298257637256996500e+00
2.298257637256996500e+00
2.298257637256996500e+00
2.298257637256996500e+00
2.369697317423017147e+00
2.369697317423017147e+00
2.369697317423017147e+00
2.530014709921567295e+00
2.530014709921567295e+00
2.530014709921567295e+00
2.671206518753624248e+00
2.671206518753624248e+00
2.671206518753624248e+00
2.671206518753624248e+00
2.822148625141148059e+00
2.822148625141148059e+00
2.822148625141148059e+00
2.635580431531724166e+00
2.635580431531724166e+00
2.635580431531724166e+00
2.635580431531724166e+00
2.323195898312326424e+00
2.323195898312326424e+00
2.323195898312326424e+00
2.343634022034363884e+00
2.343634022034363884e+00
2.343634022034363884e+00
2.343634022034363884e+00
2.470950407422101591e+00
2.470950407422101591e+00
2.470950407422101591e+00
2.483700796533097499e+00
2.483700796533097499e+00
2.483700796533097499e+00
2.457637501144443792e+00
2.457637501144443792e+00
2.457637501144443792e+00
2.457637501144443792e+00
2.587953978087710105e+00
2.587953978087710105e+00
2.587953978087710105e+00
2.645705740531632433e+00
2.645705740531632433e+00
2.645705740531632433e+00
2.645705740531632433e+00
2.623767571031830670e+00
2.623767571031830670e+00
2.623767571031830670e+00
2.702707480086672831e+00
2.702707480086672831e+00
2.702707480086672831e+00
2.644955717642750059e+00
2.644955717642750059e+00
2.644955717642750059e+00
2.644955717642750059e+00
2.458762535477767130e+00
2.458762535477767130e+00
2.458762535477767130e+00
2.503576403088473068e+00
2.503576403088473068e+00
2.503576403088473068e+00
2.503576403088473068e+00
2.060875392925809457e+00
2.060875392925809457e+00
2.060875392925809457e+00
2.242943449201941331e+00
2.242943449201941331e+00
2.242943449201941331e+00
2.242943449201941331e+00
2.674206610309152410e+00
2.674206610309152410e+00
2.674206610309152410e+00
2.764396862697225732e+00
2.764396862697225732e+00
2.764396862697225732e+00
2.617954893642994829e+00
2.617954893642994829e+00
2.617954893642994829e+00
2.617954893642994829e+00
2.547827753532517558e+00
2.547827753532517558e+00
2.547827753532517558e+00
2.541640064699239865e+00
2.541640064699239865e+00
2.541640064699239865e+00
2.541640064699239865e+00
2.472075441755424485e+00
2.472075441755424485e+00
2.472075441755424485e+00
2.266006653035065987e+00
2.266006653035065987e+00
2.266006653035065987e+00
2.220817773979919085e+00
2.220817773979919085e+00
2.220817773979919085e+00
2.220817773979919085e+00
2.388072878200628413e+00
2.388072878200628413e+00
2.388072878200628413e+00
2.523452009643849081e+00
2.523452009643849081e+00
2.523452009643849081e+00
2.523452009643849081e+00
2.587016449476607249e+00
2.587016449476607249e+00
2.587016449476607249e+00
2.680394299142429659e+00
2.680394299142429659e+00
2.680394299142429659e+00
2.680394299142429659e+00
2.689957090975676923e+00
2.689957090975676923e+00
2.689957090975676923e+00
2.477138096255378841e+00
2.477138096255378841e+00
2.477138096255378841e+00
2.298445142979216982e+00
2.298445142979216982e+00
2.298445142979216982e+00
2.298445142979216982e+00
2.371947386089663379e+00
2.371947386089663379e+00
2.371947386089663379e+00
2.579891232032227588e+00
2.579891232032227588e+00
2.579891232032227588e+00
2.723895626697592220e+00
2.723895626697592220e+00
2.723895626697592220e+00
2.723895626697592220e+00
2.555327982421338628e+00
2.555327982421338628e+00
2.555327982421338628e+00
2.558890591143528681e+00
2.558890591143528681e+00
2.558890591143528681e+00
2.558890591143528681e+00
2.557953062532425825e+00
2.557953062532425825e+00
2.557953062532425825e+00
2.493451094088564801e+00
2.493451094088564801e+00
2.493451094088564801e+00
2.493451094088564801e+00
2.399885738700521909e+00
2.399885738700521909e+00
2.399885738700521909e+00
2.470575395977660182e+00
2.470575395977660182e+00
2.470575395977660182e+00
2.556453016754661967e+00
2.556453016754661967e+00
2.556453016754661967e+00
2.556453016754661967e+00
2.375697500534073914e+00
2.375697500534073914e+00
2.375697500534073914e+00
2.259631458479567812e+00
2.259631458479567812e+00
2.259631458479567812e+00
2.259631458479567812e+00
2.595454206976531619e+00
2.595454206976531619e+00
2.595454206976531619e+00
2.626955168309579758e+00
2.626955168309579758e+00
2.626955168309579758e+00
2.626955168309579758e+00
2.674956633198034783e+00
2.642330637531663307e+00
2.642330637531663307e+00
2.515764275032807085e+00
2.515764275032807085e+00
2.485200842310861358e+00
2.460825098422192880e+00
2.460825098422192880e+00
2.463262672811060039e+00
2.463262672811060039e+00
2.479575670644245999e+00
2.317195715201269657e+00
2.317195715201269657e+00
2.434386791589098653e+00
2.434386791589098653e+00
2.590579058198797746e+00
2.643455671864986201e+00
2.643455671864986201e+00
2.621892513809625402e+00
2.621892513809625402e+00
2.589829035309915373e+00
2.529452192754905848e+00
2.529452192754905848e+00
2.542577593310342721e+00
2.333883724478896582e+00
2.333883724478896582e+00
2.371197363200781449e+00
2.371197363200781449e+00
2.365947202978606612e+00
2.263569078646198829e+00
2.263569078646198829e+00
2.438699423200171079e+00
2.438699423200171079e+00
2.647393292031617218e+00
2.674581621753593819e+00
2.674581621753593819e+00
2.646268257698293880e+00
2.646268257698293880e+00
2.568640888698995983e+00
2.496076174199651998e+00
2.496076174199651998e+00
2.604079470198675583e+00
2.609142124698629495e+00
2.609142124698629495e+00
2.416573747978148834e+00
2.416573747978148834e+00
2.436824365977965812e+00
2.416011230811487387e+00
2.416011230811487387e+00
2.518389355143894726e+00
2.490638508255257122e+00
2.490638508255257122e+00
2.535827387310404024e+00
2.538827478865932186e+00
2.538827478865932186e+00
2.530389721366008260e+00
2.490451002533036640e+00
2.490451002533036640e+00
2.597329264198736443e+00
2.597329264198736443e+00
2.410573564867091623e+00
2.569578417310098839e+00
2.569578417310098839e+00
2.467387798699911539e+00
2.467387798699911539e+00
2.412636127811517817e+00
2.516514297921689458e+00
2.516514297921689458e+00
2.530577227088229186e+00
2.436824365977965812e+00
2.436824365977965812e+00
2.413573656422620228e+00
2.413573656422620228e+00
2.367634754478591397e+00
2.719207983642078830e+00
2.719207983642078830e+00
2.706457594531082922e+00
2.706457594531082922e+00
2.655456038087100179e+00
2.502826380199591139e+00
2.502826380199591139e+00
2.482388256477553679e+00
2.482388256477553679e+00
2.388260383922848895e+00
2.279882076479384789e+00
2.279882076479384789e+00
2.409823541978209693e+00
2.409823541978209693e+00
2.660893704031495055e+00
2.655081026642659214e+00
2.655081026642659214e+00
2.532264778588213971e+00
2.538827478865932186e+00
2.538827478865932186e+00
2.524577043977172419e+00
2.524577043977172419e+00
2.410573564867091623e+00
2.325445966978973100e+00
2.325445966978973100e+00
2.445449629200109776e+00
2.445449629200109776e+00
2.528514664143802992e+00
2.437574388866847741e+00
2.437574388866847741e+00
2.533952330088198757e+00
2.592454115421003014e+00
2.592454115421003014e+00
2.548577776421399932e+00
2.565640797143467378e+00
2.565640797143467378e+00
2.542202581865901756e+00
2.542202581865901756e+00
2.614392284920804332e+00
2.570140934476760286e+00
2.570140934476760286e+00
2.455949949644459451e+00
2.455949949644459451e+00
2.383572740867336393e+00
2.429699148533585706e+00
2.429699148533585706e+00
2.487075899533067069e+00
2.513326700643940814e+00
2.513326700643940814e+00
2.467575304422132465e+00
2.467575304422132465e+00
2.483138279366435608e+00
2.629955259865108363e+00
2.629955259865108363e+00
2.653580980864894912e+00
2.653580980864894912e+00
2.627517685476241649e+00
2.580641254921109962e+00
2.580641254921109962e+00
2.535452375865963059e+00
2.535452375865963059e+00
2.420323862422559369e+00
2.371384868923001932e+00
2.371384868923001932e+00
2.326008484145634547e+00
2.423511459700308013e+00
2.423511459700308013e+00
2.567890865810114054e+00
2.567890865810114054e+00
2.499451277199621568e+00
2.499451277199621568e+00
2.499451277199621568e+00
2.449012237922299828e+00
2.449012237922299828e+00
2.540515030365916971e+00
2.676269173253578604e+00
2.676269173253578604e+00
2.629017731254005508e+00
2.580828760643330444e+00
2.580828760643330444e+00
2.516701803643909940e+00
2.516701803643909940e+00
2.408886013367107282e+00
2.384697775200659287e+00
2.384697775200659287e+00
2.326008484145634547e+00
2.326008484145634547e+00
2.398573198644978088e+00
2.511264137699515064e+00
2.511264137699515064e+00
2.485950865199743731e+00
2.485950865199743731e+00
2.525702078310495757e+00
2.608392101809748009e+00
2.608392101809748009e+00
2.579703726310007106e+00
2.495138645588549586e+00
2.495138645588549586e+00
2.503013885921811621e+00
2.503013885921811621e+00
2.566390820032349751e+00
2.542390087588122238e+00
2.542390087588122238e+00
2.612142216254158100e+00
2.612142216254158100e+00
2.611204687643055244e+00
2.433636768700216724e+00
2.433636768700216724e+00
2.374572466200750576e+00
2.557953062532425825e+00
2.557953062532425825e+00
2.611579699087496653e+00
2.611579699087496653e+00
2.473200476088747823e+00
2.315883175145725836e+00
2.315883175145725836e+00
2.291882442701498768e+00
2.543515121921445576e+00
2.543515121921445576e+00
2.677206701864681015e+00
2.677206701864681015e+00
2.735145970030823825e+00
2.630142765587328846e+00
2.630142765587328846e+00
2.642705648976104271e+00
2.642705648976104271e+00
2.523452009643849081e+00
2.419573839533677440e+00
2.419573839533677440e+00
2.378510086367381593e+00
2.378510086367381593e+00
2.375509994811853431e+00
2.402510818811609106e+00
2.402510818811609106e+00
2.497576219977416301e+00
2.497576219977416301e+00
2.550265327921384717e+00
2.517826837977233279e+00
2.517826837977233279e+00
2.565453291421246895e+00
2.455387432477798004e+00
2.455387432477798004e+00
2.473950498977630197e+00
2.473950498977630197e+00
2.472825464644306859e+00
2.335196264534440402e+00
2.335196264534440402e+00
2.517639332255012796e+00
2.517639332255012796e+00
2.601641895809808869e+00
2.617204870754112456e+00
2.617204870754112456e+00
2.564890774254585448e+00
2.564890774254585448e+00
2.554202948088015290e+00
2.477888119144261214e+00
2.477888119144261214e+00
2.476575579088717394e+00
2.476575579088717394e+00
2.422948942533646566e+00
2.430074159978026671e+00
2.430074159978026671e+00
2.496451185644092963e+00
2.528327158421582510e+00
2.528327158421582510e+00
2.525514572588274831e+00
2.525514572588274831e+00
2.573141026032288892e+00
2.582703817865535711e+00
2.582703817865535711e+00
2.563390728476821145e+00
2.563390728476821145e+00
2.588891506698812961e+00
2.413198644978179264e+00
2.413198644978179264e+00
2.549515305032502344e+00
2.549515305032502344e+00
2.523639515366069563e+00
2.441887020477920167e+00
2.441887020477920167e+00
2.448074709311197417e+00
2.448074709311197417e+00
2.590954069643238711e+00
2.616079836420789118e+00
2.616079836420789118e+00
2.429886654255806189e+00
2.422761436811426083e+00
2.422761436811426083e+00
2.403073335978270997e+00
2.403073335978270997e+00
2.539202490310373150e+00
2.613079744865260956e+00
2.613079744865260956e+00
2.553077913754691952e+00
2.553077913754691952e+00
2.519514389477218064e+00
2.473950498977630197e+00
2.473950498977630197e+00
2.371572374645222414e+00
2.371572374645222414e+00
2.421823908200323228e+00
2.415073702200384531e+00
2.415073702200384531e+00
2.355446882534256936e+00
2.355446882534256936e+00
2.679456770531327248e+00
2.698394848475600405e+00
2.698394848475600405e+00
2.547827753532517558e+00
2.581391277809991891e+00
2.581391277809991891e+00
2.656393566698202147e+00
2.656393566698202147e+00
2.589266518143253926e+00
2.470762901699881109e+00
2.470762901699881109e+00
2.333508713034455617e+00
2.333508713034455617e+00
2.432699240089114312e+00
2.459512558366649504e+00
2.459512558366649504e+00
2.460075075533310951e+00
2.460075075533310951e+00
2.552327890865810023e+00
2.548577776421399932e+00
2.548577776421399932e+00
2.554577959532456255e+00
2.554577959532456255e+00
2.525514572588274831e+00
2.433074251533554833e+00
2.433074251533554833e+00
2.521014435254982367e+00
2.475450544755394056e+00
2.475450544755394056e+00
2.419198828089236475e+00
2.419198828089236475e+00
2.576141117587817053e+00
2.605204504531998921e+00
2.605204504531998921e+00
2.535639881588183542e+00
2.535639881588183542e+00
2.495326151310770069e+00
2.474325510422071162e+00
2.474325510422071162e+00
2.481638233588671305e+00
2.481638233588671305e+00
2.483888302255317981e+00
2.434386791589098653e+00
2.434386791589098653e+00
2.456324961088900860e+00
2.504701437421796406e+00
2.504701437421796406e+00
2.496451185644092963e+00
2.496451185644092963e+00
2.536577410199285953e+00
2.494763634144108178e+00
2.494763634144108178e+00
2.630330271309549328e+00
2.630330271309549328e+00
2.515764275032807085e+00
2.528514664143802992e+00
2.528514664143802992e+00
2.500201300088503942e+00
2.500201300088503942e+00
2.515014252143925599e+00
2.555327982421338628e+00
2.555327982421338628e+00
2.443949583422345917e+00
2.443949583422345917e+00
2.394635578478347071e+00
2.429699148533585706e+00
2.429699148533585706e+00
2.534889858699301168e+00
2.578578691976683768e+00
2.578578691976683768e+00
2.567328348643452163e+00
2.567328348643452163e+00
2.596579241309854513e+00
2.562828211310159254e+00
2.562828211310159254e+00
2.511076631977294138e+00
2.511076631977294138e+00
2.460637592699972398e+00
2.392948026978362286e+00
2.392948026978362286e+00
2.412073610644855925e+00
2.412073610644855925e+00
2.515576769310586602e+00
2.505451460310678335e+00
2.505451460310678335e+00
2.492138554033020981e+00
2.492138554033020981e+00
2.474888027588732609e+00
2.463825189977721486e+00
2.463825189977721486e+00
2.543327616199224650e+00
2.590016541032135855e+00
2.590016541032135855e+00
2.552327890865810023e+00
2.552327890865810023e+00
2.549890316476943308e+00
2.610829676198614280e+00
2.610829676198614280e+00
2.527952146977141545e+00
2.527952146977141545e+00
2.479013153477584552e+00
2.432511734366893830e+00
2.432511734366893830e+00
2.392385509811700839e+00
2.392385509811700839e+00
2.405323404644917229e+00
2.559828119754631537e+00
2.559828119754631537e+00
2.640455580309458039e+00
2.527202124088259172e+00
2.527202124088259172e+00
2.472637958922086376e+00
2.472637958922086376e+00
2.455949949644459451e+00
2.509764091921750762e+00
2.509764091921750762e+00
2.601454390087587942e+00
2.601454390087587942e+00
2.545390179143650844e+00
2.530764732810449669e+00
2.530764732810449669e+00
2.494201116977446731e+00
2.494201116977446731e+00
2.469075350199895880e+00
2.421261391033662225e+00
2.421261391033662225e+00
2.459512558366649504e+00
2.527577135532700581e+00
2.527577135532700581e+00
2.552515396588030505e+00
2.552515396588030505e+00
2.502451368755150174e+00
2.481450727866450823e+00
2.481450727866450823e+00
2.457637501144443792e+00
2.457637501144443792e+00
2.520264412366099993e+00
2.558703085421308199e+00
2.558703085421308199e+00
2.554952970976897664e+00
2.554952970976897664e+00
2.539952513199255080e+00
2.503201391644032547e+00
2.503201391644032547e+00
2.512576677755058441e+00
2.512576677755058441e+00
2.521389446699423331e+00
2.493826105533005766e+00
2.493826105533005766e+00
2.478263130588702179e+00
2.487450910977508034e+00
2.487450910977508034e+00
2.491951048310800498e+00
2.491951048310800498e+00
2.502826380199591139e+00
2.485200842310861358e+00
2.485200842310861358e+00
2.493451094088564801e+00
2.493451094088564801e+00
2.576891140476698983e+00
2.550452833643604755e+00
2.550452833643604755e+00
2.541077547532578418e+00
2.541077547532578418e+00
2.572766014587847927e+00
2.418261299478133619e+00
2.418261299478133619e+00
2.412823633533738299e+00
2.412823633533738299e+00
2.497951231421857266e+00
2.572578508865627445e+00
2.572578508865627445e+00
2.549702810754722826e+00
2.490638508255257122e+00
2.490638508255257122e+00
2.428011597033600921e+00
2.428011597033600921e+00
2.464012695699941968e+00
2.444699606311227846e+00
2.444699606311227846e+00
2.526827112643818651e+00
2.529452192754905848e+00
2.529452192754905848e+00
2.555140476699118146e+00
2.555140476699118146e+00
2.547640247810297076e+00
2.543327616199224650e+00
2.543327616199224650e+00
2.492138554033020981e+00
2.492138554033020981e+00
2.481638233588671305e+00
2.477513107699820250e+00
2.477513107699820250e+00
2.507326517532883603e+00
2.507326517532883603e+00
2.485575853755302767e+00
2.463637684255501004e+00
2.463637684255501004e+00
2.438136906033509188e+00
2.466825281533250092e+00
2.466825281533250092e+00
2.505638966032898818e+00
2.505638966032898818e+00
2.512201666310617476e+00
2.528139652699362028e+00
2.528139652699362028e+00
2.625830133976256420e+00
2.625830133976256420e+00
2.614204779198583850e+00
2.558328073976867234e+00
2.558328073976867234e+00
2.517264320810571387e+00
2.517264320810571387e+00
2.526077089754936722e+00
2.488763451033051854e+00
2.488763451033051854e+00
2.485200842310861358e+00
2.476950590533158358e+00
2.476950590533158358e+00
2.389385418256172233e+00
2.389385418256172233e+00
2.394635578478347071e+00
2.513326700643940814e+00
2.513326700643940814e+00
2.491763542588580016e+00
2.491763542588580016e+00
2.477138096255378841e+00
2.508451551866206941e+00
2.508451551866206941e+00
2.541077547532578418e+00
2.541077547532578418e+00
2.598454298532059781e+00
2.595829218420972584e+00
2.595829218420972584e+00
2.520264412366099993e+00
2.511639149143956029e+00
2.511639149143956029e+00
2.511264137699515064e+00
2.511264137699515064e+00
2.503013885921811621e+00
2.478075624866481697e+00
2.478075624866481697e+00
2.494763634144108178e+00
2.494763634144108178e+00
2.399135715811639535e+00
2.386760338145085036e+00
2.386760338145085036e+00
2.476200567644276429e+00
2.476200567644276429e+00
2.506201483199560265e+00
2.562453199865718290e+00
2.562453199865718290e+00
2.560203131199072502e+00
2.560203131199072502e+00
2.618892422254097241e+00
2.576141117587817053e+00
2.576141117587817053e+00
2.512201666310617476e+00
2.467012787255470574e+00
2.467012787255470574e+00
2.474700521866512126e+00
2.474700521866512126e+00
2.449012237922299828e+00
2.449199743644520311e+00
2.449199743644520311e+00
2.468512833033234433e+00
2.468512833033234433e+00
2.416386242255928352e+00
2.479200659199805035e+00
2.479200659199805035e+00
2.537139927365947845e+00
2.588141483809930588e+00
2.588141483809930588e+00
2.608204596087527527e+00
2.608204596087527527e+00
2.575578600421155162e+00
2.561515671254616322e+00
2.561515671254616322e+00
2.509389080477309353e+00
2.509389080477309353e+00
2.490638508255257122e+00
2.487638416699728516e+00
2.487638416699728516e+00
2.484075807977538464e+00
2.484075807977538464e+00
2.476763084810937876e+00
2.438511917477950597e+00
2.438511917477950597e+00
2.414511185033723084e+00
2.414511185033723084e+00
2.392198004089480357e+00
2.484263313699758946e+00
2.484263313699758946e+00
2.574828577532273233e+00
2.593016632587664461e+00
2.593016632587664461e+00
2.602954435865352245e+00
2.602954435865352245e+00
2.580641254921109962e+00
2.536764915921506436e+00
2.536764915921506436e+00
2.536764915921506436e+00
2.536764915921506436e+00
2.468887844477675397e+00
2.359196996978667915e+00
2.359196996978667915e+00
2.326008484145634547e+00
2.326008484145634547e+00
2.451449812311166987e+00
2.506576494644001674e+00
2.506576494644001674e+00
2.503201391644032547e+00
2.503013885921811621e+00
2.503013885921811621e+00
2.528327158421582510e+00
2.528327158421582510e+00
2.532827295754875419e+00
2.563765739921262110e+00
2.563765739921262110e+00
2.552890408032471470e+00
2.552890408032471470e+00
2.560015625476852019e+00
2.554202948088015290e+00
2.554202948088015290e+00
2.545765190588091809e+00
2.542952604754783685e+00
2.542952604754783685e+00
2.540140018921475562e+00
2.540140018921475562e+00
2.532639790032654936e+00
2.470012878810998735e+00
2.470012878810998735e+00
2.423136448255867048e+00
2.423136448255867048e+00
2.416198736533707869e+00
2.374947477645191540e+00
2.374947477645191540e+00
2.346071596423230599e+00
2.346071596423230599e+00
2.428949125644703777e+00
2.551202856532486685e+00
2.551202856532486685e+00
2.675519150364696230e+00
2.675519150364696230e+00
2.671394024475844731e+00
2.549702810754722826e+00
2.549702810754722826e+00
2.522701986754967152e+00
2.478263130588702179e+00
2.478263130588702179e+00
2.471325418866542556e+00
2.471325418866542556e+00
2.488950956755272337e+00
2.479200659199805035e+00
2.479200659199805035e+00
2.449574755088961275e+00
2.449574755088961275e+00
2.476013061922055947e+00
2.501138828699606353e+00
2.501138828699606353e+00
2.515389263588366120e+00
2.515389263588366120e+00
2.544265144810327506e+00
2.536577410199285953e+00
2.536577410199285953e+00
2.535452375865963059e+00
2.535452375865963059e+00
2.497013702810754854e+00
2.426511551255836618e+00
2.426511551255836618e+00
2.479013153477584552e+00
2.530202215643787778e+00
2.530202215643787778e+00
2.546515213476973738e+00
2.546515213476973738e+00
2.532827295754875419e+00
2.477325601977599767e+00
2.477325601977599767e+00
2.471512924588763038e+00
2.471512924588763038e+00
2.476388073366496911e+00
2.477513107699820250e+00
2.477513107699820250e+00
2.536577410199285953e+00
2.536577410199285953e+00
2.545390179143650844e+00
2.553827936643574326e+00
2.553827936643574326e+00
2.561515671254616322e+00
2.561515671254616322e+00
2.508826563310647906e+00
2.425386516922513280e+00
2.425386516922513280e+00
2.413198644978179264e+00
2.413198644978179264e+00
2.460262581255531433e+00
2.497763725699636783e+00
2.497763725699636783e+00
2.524764549699392902e+00
2.518764366588335690e+00
2.518764366588335690e+00
2.471325418866542556e+00
2.471325418866542556e+00
2.447324686422315043e+00
2.507701528977324568e+00
2.507701528977324568e+00
2.556078005310220558e+00
2.556078005310220558e+00
2.587578966643269140e+00
2.608204596087527527e+00
2.608204596087527527e+00
2.647393292031617218e+00
2.557390545365764378e+00
2.557390545365764378e+00
2.449199743644520311e+00
2.449199743644520311e+00
2.435699331644642474e+00
2.357134434034241721e+00
2.357134434034241721e+00
2.402135807367168141e+00
2.402135807367168141e+00
2.512951689199499850e+00
2.530764732810449669e+00
2.530764732810449669e+00
2.530952238532670151e+00
2.530952238532670151e+00
2.500013794366283459e+00
2.546327707754753256e+00
2.546327707754753256e+00
2.548390270699179450e+00
2.548390270699179450e+00
2.562265694143497807e+00
2.548765282143620414e+00
2.548765282143620414e+00
2.544265144810327506e+00
2.458200018311105683e+00
2.458200018311105683e+00
2.404010864589373409e+00
2.404010864589373409e+00
2.451824823755607952e+00
2.527202124088259172e+00
2.527202124088259172e+00
2.522514481032746669e+00
2.522514481032746669e+00
2.482013245033112270e+00
2.476763084810937876e+00
2.476763084810937876e+00
2.463075167088839557e+00
2.463075167088839557e+00
2.440949491866817311e+00
2.551577867976928093e+00
2.551577867976928093e+00
2.550640339365825238e+00
2.552140385143589540e+00
2.552140385143589540e+00
2.544640156254768470e+00
2.544640156254768470e+00
2.557390545365764378e+00
2.550077822199164235e+00
2.550077822199164235e+00
2.530202215643787778e+00
2.530202215643787778e+00
2.514639240699484635e+00
2.495888668477431516e+00
2.495888668477431516e+00
2.454449903866695148e+00
2.454449903866695148e+00
2.436636860255744885e+00
2.411136082033753514e+00
2.411136082033753514e+00
2.380385143589587305e+00
2.474700521866512126e+00
2.474700521866512126e+00
2.539202490310373150e+00
2.539202490310373150e+00
2.587016449476607249e+00
2.612329721976378583e+00
2.612329721976378583e+00
2.552890408032471470e+00
2.552890408032471470e+00
2.531889767143772563e+00
2.513139194921720332e+00
2.513139194921720332e+00
2.495701162755211033e+00
2.495701162755211033e+00
2.465325235755485789e+00
2.446012146366771223e+00
2.446012146366771223e+00
2.483325785088656090e+00
2.483325785088656090e+00
2.505263954588457853e+00
2.483513290810876573e+00
2.483513290810876573e+00
2.485200842310861358e+00
2.541640064699239865e+00
2.541640064699239865e+00
2.530202215643787778e+00
2.530202215643787778e+00
2.530577227088229186e+00
2.497201208532975336e+00
2.497201208532975336e+00
2.522889492477187634e+00
2.522889492477187634e+00
2.544452650532547988e+00
2.519514389477218064e+00
2.519514389477218064e+00
2.512201666310617476e+00
2.512201666310617476e+00
2.474888027588732609e+00
2.451262306588946061e+00
2.451262306588946061e+00
2.472450453199865894e+00
2.472450453199865894e+00
2.517639332255012796e+00
2.490638508255257122e+00
2.490638508255257122e+00
2.494201116977446731e+00
2.517451826532791870e+00
2.517451826532791870e+00
2.516139286477248493e+00
2.516139286477248493e+00
2.560578142643513466e+00
2.577078646198919465e+00
2.577078646198919465e+00
2.562453199865718290e+00
2.562453199865718290e+00
2.509576586199530279e+00
2.468512833033234433e+00
2.468512833033234433e+00
2.439636951811273491e+00
2.439636951811273491e+00
2.444137089144566399e+00
2.476763084810937876e+00
2.476763084810937876e+00
2.493263588366343875e+00
2.478263130588702179e+00
2.478263130588702179e+00
2.452387340922269399e+00
2.452387340922269399e+00
2.466825281533250092e+00
2.478825647755364070e+00
2.478825647755364070e+00
2.543515121921445576e+00
2.543515121921445576e+00
2.531889767143772563e+00
2.608954618976409012e+00
2.608954618976409012e+00
2.588704000976592479e+00
2.588704000976592479e+00
2.543327616199224650e+00
2.503013885921811621e+00
2.503013885921811621e+00
2.469450361644337288e+00
2.469450361644337288e+00
2.495326151310770069e+00
2.500576311532944906e+00
2.500576311532944906e+00
2.429886654255806189e+00
2.451074800866725578e+00
2.451074800866725578e+00
2.460075075533310951e+00
2.460075075533310951e+00
2.497576219977416301e+00
2.526452101199377687e+00
2.526452101199377687e+00
2.544265144810327506e+00
2.544265144810327506e+00
2.580453749198889035e+00
2.565453291421246895e+00
2.565453291421246895e+00
2.529077181310464884e+00
2.529077181310464884e+00
2.500951322977385871e+00
2.476388073366496911e+00
2.476388073366496911e+00
2.481263222144230340e+00
2.481263222144230340e+00
2.486325876644184696e+00
2.441324503311258276e+00
2.441324503311258276e+00
2.471512924588763038e+00
2.464762718588824342e+00
2.464762718588824342e+00
2.464387707144383377e+00
2.479388164922025517e+00
2.479388164922025517e+00
2.497013702810754854e+00
2.572578508865627445e+00
2.572578508865627445e+00
2.595266701254311137e+00
2.590204046754356337e+00
2.590204046754356337e+00
2.562078188421277325e+00
2.562078188421277325e+00
2.535077364421521651e+00
2.515389263588366120e+00
2.515389263588366120e+00
2.491201025421918569e+00
2.491201025421918569e+00
2.423886471144749422e+00
2.438324411755729670e+00
2.438324411755729670e+00
2.456324961088900860e+00
2.456324961088900860e+00
2.442449537644581614e+00
2.448262215033417899e+00
2.448262215033417899e+00
2.524577043977172419e+00
2.524577043977172419e+00
2.566015808587908342e+00
2.576328623310037536e+00
2.576328623310037536e+00
2.581578783532212373e+00
2.556265511032441040e+00
2.556265511032441040e+00
2.532077272865993045e+00
2.532077272865993045e+00
2.446949674977874079e+00
2.439074434644612044e+00
2.439074434644612044e+00
2.493076082644123392e+00
2.493076082644123392e+00
2.486325876644184696e+00
2.442637043366802097e+00
2.442637043366802097e+00
2.454074892422254184e+00
2.454074892422254184e+00
2.495513657032990551e+00
2.533014801477095901e+00
2.533014801477095901e+00
2.553452925199133361e+00
2.553452925199133361e+00
2.575953611865596571e+00
2.569765923032319321e+00
2.569765923032319321e+00
2.557390545365764378e+00
2.512764183477279367e+00
2.512764183477279367e+00
2.491201025421918569e+00
2.449949766533402684e+00
2.449949766533402684e+00
2.440199468977935382e+00
2.470012878810998735e+00
2.470012878810998735e+00
2.484263313699758946e+00
2.484263313699758946e+00
2.510326609088412209e+00
2.484638325144199911e+00
2.484638325144199911e+00
2.468325327311013950e+00
2.509014069032868388e+00
2.509014069032868388e+00
2.549327799310281861e+00
2.549327799310281861e+00
2.542202581865901756e+00
2.551765373699148576e+00
2.551765373699148576e+00
2.502263863032929692e+00
2.502263863032929692e+00
2.474138004699850679e+00
2.488013428144169481e+00
2.488013428144169481e+00
2.491013519699698087e+00
2.512764183477279367e+00
2.512764183477279367e+00
2.499263771477401086e+00
2.499263771477401086e+00
2.478825647755364070e+00
2.496076174199651998e+00
2.496076174199651998e+00
2.461387615588854771e+00
2.461387615588854771e+00
2.493451094088564801e+00
2.552515396588030505e+00
2.552515396588030505e+00
2.525514572588274831e+00
2.525514572588274831e+00
2.539765007477034597e+00
2.531702261421552080e+00
2.531702261421552080e+00
2.530389721366008260e+00
2.508076540421765976e+00
2.508076540421765976e+00
2.516889309366130423e+00
2.516889309366130423e+00
2.520826929532761884e+00
2.537514938810388809e+00
2.537514938810388809e+00
2.505263954588457853e+00
2.505263954588457853e+00
2.488013428144169481e+00
2.476200567644276429e+00
2.476200567644276429e+00
2.447137180700094561e+00
2.460825098422192880e+00
2.460825098422192880e+00
2.500201300088503942e+00
2.500201300088503942e+00
2.447137180700094561e+00
2.501513840144047762e+00
2.501513840144047762e+00
2.533202307199316383e+00
2.533202307199316383e+00
2.535077364421521651e+00
2.539014984588152668e+00
2.539014984588152668e+00
2.518389355143894726e+00
2.518389355143894726e+00
2.498701254310739639e+00
2.489888485366374749e+00
2.489888485366374749e+00
2.481075716422009858e+00
2.481075716422009858e+00
2.478075624866481697e+00
2.470762901699881109e+00
2.472075441755424485e+00
2.472075441755424485e+00
2.511264137699515064e+00
2.541265053254798900e+00
2.541265053254798900e+00
2.537889950254829774e+00
2.537889950254829774e+00
2.534514847254860204e+00
2.525139561143833866e+00
2.517639332255012796e+00
2.517639332255012796e+00
2.509951597643971244e+00
2.509951597643971244e+00
2.501513840144047762e+00
2.516514297921689458e+00
2.516514297921689458e+00
2.509951597643971244e+00
2.509951597643971244e+00
2.497201208532975336e+00
2.499076265755180604e+00
2.499076265755180604e+00
2.482013245033112270e+00
2.482013245033112270e+00
2.473387981810968306e+00
2.512201666310617476e+00
2.512201666310617476e+00
2.536577410199285953e+00
2.536577410199285953e+00
2.544827661976988953e+00
2.563015717032380181e+00
2.563015717032380181e+00
2.550265327921384717e+00
2.498138737144077748e+00
2.498138737144077748e+00
2.446387157811212187e+00
2.446387157811212187e+00
2.410761070589312105e+00
2.444137089144566399e+00
2.444137089144566399e+00
2.466825281533250092e+00
2.466825281533250092e+00
2.466262764366588645e+00
2.515951780755027567e+00
2.515951780755027567e+00
2.490263496810816157e+00
2.490263496810816157e+00
2.499826288644062977e+00
2.538639973143711703e+00
2.538639973143711703e+00
2.559078096865749163e+00
2.559078096865749163e+00
2.527014618366038690e+00
2.521764458143864296e+00
2.521764458143864296e+00
2.545202673421430362e+00
2.519139378032776655e+00
2.519139378032776655e+00
2.508451551866206941e+00
2.508451551866206941e+00
2.502826380199591139e+00
2.479388164922025517e+00
2.479388164922025517e+00
2.478638142033143144e+00
2.478638142033143144e+00
2.481450727866450823e+00
2.475638050477614982e+00
2.475638050477614982e+00
2.466825281533250092e+00
2.502451368755150174e+00
2.502451368755150174e+00
2.538827478865932186e+00
2.538827478865932186e+00
2.542765099032563203e+00
2.573328531754509374e+00
2.573328531754509374e+00
2.569390911587878357e+00
2.569390911587878357e+00
2.539577501754814115e+00
2.503763908810693550e+00
2.503763908810693550e+00
2.467575304422132465e+00
2.467575304422132465e+00
2.478638142033143144e+00
2.474138004699850679e+00
2.474138004699850679e+00
2.428574114200262368e+00
2.453699880977813219e+00
2.453699880977813219e+00
2.444512100589007364e+00
2.444512100589007364e+00
2.467575304422132465e+00
2.523264503921628599e+00
2.523264503921628599e+00
2.556640522476882449e+00
2.556640522476882449e+00
2.544265144810327506e+00
2.570515945921201251e+00
2.570515945921201251e+00
2.559640614032411055e+00
2.559640614032411055e+00
2.525514572588274831e+00
2.515014252143925599e+00
2.515014252143925599e+00
2.502451368755150174e+00
2.484450819421979428e+00
2.484450819421979428e+00
2.453324869533372254e+00
2.453324869533372254e+00
2.424823999755851833e+00
2.449199743644520311e+00
2.449199743644520311e+00
2.439074434644612044e+00
2.439074434644612044e+00
2.474513016144291644e+00
2.545390179143650844e+00
2.545390179143650844e+00
2.552327890865810023e+00
2.552327890865810023e+00
2.565265785699026413e+00
2.557203039643543896e+00
2.557203039643543896e+00
2.561328165532395840e+00
2.561328165532395840e+00
2.520639423810540958e+00
2.488575945310831372e+00
2.488575945310831372e+00
2.475263039033173573e+00
2.475263039033173573e+00
2.462137638477736701e+00
2.490075991088595231e+00
2.490075991088595231e+00
2.493638599810785283e+00
2.493076082644123392e+00
2.493076082644123392e+00
2.493451094088564801e+00
2.493451094088564801e+00
2.513514206366161297e+00
2.539014984588152668e+00
2.539014984588152668e+00
2.554952970976897664e+00
2.554952970976897664e+00
2.498326242866298674e+00
2.476763084810937876e+00
2.476763084810937876e+00
2.485763359477523249e+00
2.485763359477523249e+00
2.477700613422040732e+00
2.478263130588702179e+00
2.478263130588702179e+00
2.491576036866359534e+00
2.491576036866359534e+00
2.495513657032990551e+00
2.503388897366253030e+00
2.503388897366253030e+00
2.488763451033051854e+00
2.488763451033051854e+00
2.465325235755485789e+00
2.506013977477339782e+00
2.506013977477339782e+00
2.530764732810449669e+00
2.542765099032563203e+00
2.542765099032563203e+00
2.575766106143375644e+00
2.575766106143375644e+00
2.552327890865810023e+00
2.527014618366038690e+00
2.527014618366038690e+00
2.513889217810602261e+00
2.513889217810602261e+00
2.502451368755150174e+00
2.507514023255104085e+00
2.507514023255104085e+00
2.496263679921872480e+00
2.496263679921872480e+00
2.475263039033173573e+00
2.480888210699789376e+00
2.480888210699789376e+00
2.474325510422071162e+00
2.496826197088534371e+00
2.496826197088534371e+00
2.523639515366069563e+00
2.523639515366069563e+00
2.518014343699453761e+00
2.539577501754814115e+00
2.539577501754814115e+00
2.552702902310250987e+00
2.552702902310250987e+00
2.529264687032685366e+00
2.471137913144322074e+00
2.471137913144322074e+00
2.469825373088778253e+00
2.469825373088778253e+00
2.475825556199835464e+00
2.483700796533097499e+00
2.483700796533097499e+00
2.479575670644245999e+00
2.479575670644245999e+00
2.483138279366435608e+00
2.479388164922025517e+00
2.479388164922025517e+00
2.458200018311105683e+00
2.491201025421918569e+00
2.491201025421918569e+00
2.525702078310495757e+00
2.525702078310495757e+00
2.527202124088259172e+00
2.525514572588274831e+00
2.525514572588274831e+00
2.548952787865840897e+00
2.548952787865840897e+00
2.560390636921292984e+00
2.554390453810235773e+00
2.554390453810235773e+00
2.519701895199438546e+00
2.519701895199438546e+00
2.477700613422040732e+00
2.453512375255592737e+00
2.453512375255592737e+00
2.445449629200109776e+00
2.449762260811182202e+00
2.449762260811182202e+00
2.484450819421979428e+00
2.484450819421979428e+00
2.472450453199865894e+00
2.489888485366374749e+00
2.489888485366374749e+00
2.546890224921415147e+00
2.546890224921415147e+00
2.559828119754631537e+00
2.566953337199011198e+00
2.566953337199011198e+00
2.543327616199224650e+00
2.543327616199224650e+00
2.499263771477401086e+00
2.501888851588488727e+00
2.501888851588488727e+00
2.503388897366253030e+00
2.503388897366253030e+00
2.490263496810816157e+00
2.480888210699789376e+00
2.480888210699789376e+00
2.471887936033204003e+00
2.484450819421979428e+00
2.484450819421979428e+00
2.453887386700033701e+00
2.453887386700033701e+00
2.458575029755546648e+00
2.508264046143986459e+00
2.508264046143986459e+00
2.539014984588152668e+00
2.539014984588152668e+00
2.554577959532456255e+00
2.575391094698934680e+00
2.575391094698934680e+00
2.539577501754814115e+00
2.539577501754814115e+00
2.500201300088503942e+00
2.479013153477584552e+00
2.479013153477584552e+00
2.472262947477644968e+00
2.472262947477644968e+00
2.491763542588580016e+00
2.511639149143956029e+00
2.511639149143956029e+00
2.488575945310831372e+00
2.489700979644154266e+00
2.489700979644154266e+00
2.486700888088625661e+00
2.486700888088625661e+00
2.526827112643818651e+00
2.543515121921445576e+00
2.543515121921445576e+00
2.568828394421216466e+00
2.568828394421216466e+00
2.496638691366313889e+00
2.496638691366313889e+00
2.476388073366496911e+00
2.476388073366496911e+00
2.480138187810907002e+00
2.458762535477767130e+00
2.458762535477767130e+00
2.469262855922116806e+00
2.469262855922116806e+00
2.517639332255012796e+00
2.509014069032868388e+00
2.509014069032868388e+00
2.461950132755516218e+00
2.461950132755516218e+00
2.435136814477980582e+00
2.481825739310891787e+00
2.481825739310891787e+00
2.527952146977141545e+00
2.550077822199164235e+00
2.550077822199164235e+00
2.562453199865718290e+00
2.562453199865718290e+00
2.569015900143436948e+00
2.527764641254921063e+00
2.527764641254921063e+00
2.479575670644245999e+00
2.479575670644245999e+00
2.496263679921872480e+00
2.499451277199621568e+00
2.499451277199621568e+00
2.479388164922025517e+00
2.479388164922025517e+00
2.464012695699941968e+00
2.471887936033204003e+00
2.471887936033204003e+00
2.473012970366527341e+00
2.467012787255470574e+00
2.467012787255470574e+00
2.512389172032837958e+00
2.512389172032837958e+00
2.523076998199408116e+00
2.539952513199255080e+00
2.539952513199255080e+00
2.589641529587694890e+00
2.589641529587694890e+00
2.575766106143375644e+00
2.539765007477034597e+00
2.539765007477034597e+00
2.517639332255012796e+00
2.517639332255012796e+00
2.473575487533188788e+00
2.432511734366893830e+00
2.437761894589068223e+00
2.437761894589068223e+00
2.475638050477614982e+00
2.475638050477614982e+00
2.481450727866450823e+00
2.461762627033295736e+00
2.461762627033295736e+00
2.473012970366527341e+00
2.536202398754844989e+00
2.536202398754844989e+00
2.550640339365825238e+00
2.550640339365825238e+00
2.550452833643604755e+00
2.561140659810174913e+00
2.561140659810174913e+00
2.537139927365947845e+00
2.537139927365947845e+00
2.513514206366161297e+00
2.503763908810693550e+00
2.503763908810693550e+00
2.477700613422040732e+00
2.477700613422040732e+00
2.483325785088656090e+00
2.482388256477553679e+00
2.482388256477553679e+00
2.459325052644428578e+00
2.459325052644428578e+00
2.473012970366527341e+00
2.465512741477706271e+00
2.465512741477706271e+00
2.489138462477492819e+00
2.541265053254798900e+00
2.541265053254798900e+00
2.570515945921201251e+00
2.570515945921201251e+00
2.570890957365642215e+00
2.569765923032319321e+00
2.569765923032319321e+00
2.542015076143681274e+00
2.542015076143681274e+00
2.498701254310739639e+00
2.498888760032960121e+00
2.498888760032960121e+00
2.474700521866512126e+00
2.474700521866512126e+00
2.484638325144199911e+00
2.459700064088869986e+00
2.459700064088869986e+00
2.426324045533616136e+00
2.439636951811273491e+00
2.439636951811273491e+00
2.427636585589159957e+00
2.427636585589159957e+00
2.446949674977874079e+00
2.516514297921689458e+00
2.516514297921689458e+00
2.553640430921353843e+00
2.553640430921353843e+00
2.593954161198767316e+00
2.598641804254280263e+00
2.598641804254280263e+00
2.559078096865749163e+00
2.559078096865749163e+00
2.524764549699392902e+00
2.509389080477309353e+00
2.509389080477309353e+00
2.492138554033020981e+00
2.489513473921933784e+00
2.489513473921933784e+00
2.474700521866512126e+00
2.474700521866512126e+00
2.471325418866542556e+00
2.443199560533463544e+00
2.443199560533463544e+00
2.455199926755577522e+00
2.455199926755577522e+00
2.502638874477370656e+00
2.521764458143864296e+00
2.521764458143864296e+00
2.540515030365916971e+00
2.540515030365916971e+00
2.576516129032258018e+00
2.555327982421338628e+00
2.507139011810663121e+00
2.507139011810663121e+00
2.500951322977385871e+00
2.482575762199774161e+00
2.482575762199774161e+00
2.484825830866420393e+00
2.484825830866420393e+00
2.486700888088625661e+00
2.479763176366466482e+00
2.479763176366466482e+00
2.473762993255409270e+00
2.473762993255409270e+00
2.458200018311105683e+00
2.469637867366557771e+00
2.469637867366557771e+00
2.515014252143925599e+00
2.515014252143925599e+00
2.529077181310464884e+00
2.551390362254707167e+00
2.551390362254707167e+00
2.567890865810114054e+00
2.567890865810114054e+00
2.542202581865901756e+00
2.505263954588457853e+00
2.505263954588457853e+00
2.507326517532883603e+00
2.491951048310800498e+00
2.491951048310800498e+00
2.493076082644123392e+00
2.493076082644123392e+00
2.497388714255195818e+00
2.485200842310861358e+00
2.485200842310861358e+00
2.470012878810998735e+00
2.470012878810998735e+00
2.459325052644428578e+00
2.515764275032807085e+00
2.515764275032807085e+00
2.536952421643726918e+00
2.536952421643726918e+00
2.527202124088259172e+00
2.542390087588122238e+00
2.542390087588122238e+00
2.554577959532456255e+00
2.554577959532456255e+00
2.525702078310495757e+00
2.489138462477492819e+00
2.489138462477492819e+00
2.462137638477736701e+00
2.436449354533524403e+00
2.436449354533524403e+00
2.433449262977995797e+00
2.433449262977995797e+00
2.453324869533372254e+00
2.474138004699850679e+00
2.474138004699850679e+00
2.474325510422071162e+00
2.474325510422071162e+00
2.486325876644184696e+00
2.520264412366099993e+00
2.520264412366099993e+00
2.547640247810297076e+00
2.548765282143620414e+00
2.548765282143620414e+00
2.576516129032258018e+00
2.576516129032258018e+00
2.552327890865810023e+00
2.516514297921689458e+00
2.516514297921689458e+00
2.500763817255165389e+00
2.500763817255165389e+00
2.491763542588580016e+00
2.497201208532975336e+00
2.497201208532975336e+00
2.484450819421979428e+00
2.484450819421979428e+00
2.477700613422040732e+00
2.479950682088686964e+00
2.479950682088686964e+00
2.466075258644368162e+00
2.466075258644368162e+00
2.472075441755424485e+00
2.516139286477248493e+00
2.516139286477248493e+00
2.531702261421552080e+00
2.561140659810174913e+00
2.561140659810174913e+00
2.580453749198889035e+00
2.580453749198889035e+00
2.555140476699118146e+00
2.500576311532944906e+00
2.500576311532944906e+00
2.479388164922025517e+00
2.479388164922025517e+00
2.473387981810968306e+00
2.480138187810907002e+00
2.480138187810907002e+00
2.493076082644123392e+00
2.493076082644123392e+00
2.490075991088595231e+00
2.483138279366435608e+00
2.483138279366435608e+00
2.477138096255378841e+00
2.477138096255378841e+00
2.498138737144077748e+00
2.547077730643635629e+00
2.547077730643635629e+00
2.547265236365856111e+00
2.547265236365856111e+00
2.545765190588091809e+00
2.540515030365916971e+00
2.540515030365916971e+00
2.506013977477339782e+00
2.460825098422192880e+00
2.460825098422192880e+00
2.473012970366527341e+00
2.473012970366527341e+00
2.487075899533067069e+00
2.464200201422162451e+00
2.464200201422162451e+00
2.467762810144352947e+00
2.467762810144352947e+00
2.470387890255439700e+00
2.472825464644306859e+00
2.472825464644306859e+00
2.468512833033234433e+00
2.468512833033234433e+00
2.504326425977354997e+00
2.539202490310373150e+00
2.539202490310373150e+00
2.553452925199133361e+00
2.578016174810022321e+00
2.578016174810022321e+00
2.562828211310159254e+00
2.538827478865932186e+00
2.538827478865932186e+00
2.510514114810632691e+00
2.510514114810632691e+00
2.492701071199682428e+00
2.483325785088656090e+00
2.483325785088656090e+00
2.487263405255287552e+00
2.487263405255287552e+00
2.468887844477675397e+00
2.472450453199865894e+00
2.472450453199865894e+00
2.458762535477767130e+00
2.473762993255409270e+00
2.473762993255409270e+00
2.519701895199438546e+00
2.519701895199438546e+00
2.523264503921628599e+00
2.536389904477065471e+00
2.536389904477065471e+00
2.569578417310098839e+00
2.569578417310098839e+00
2.570328440198980768e+00
2.532639790032654936e+00
2.532639790032654936e+00
2.497013702810754854e+00
2.497013702810754854e+00
2.468700338755454915e+00
2.454262398144474666e+00
2.454262398144474666e+00
2.444699606311227846e+00
2.444699606311227846e+00
2.461762627033295736e+00
2.477138096255378841e+00
2.477138096255378841e+00
2.457074983977782345e+00
2.486700888088625661e+00
2.486700888088625661e+00
2.536764915921506436e+00
2.536764915921506436e+00
2.548765282143620414e+00
2.551577867976928093e+00
2.551577867976928093e+00
2.560953154087954431e+00
2.560953154087954431e+00
2.542952604754783685e+00
2.509576586199530279e+00
2.509576586199530279e+00
2.494013611255226248e+00
2.494013611255226248e+00
2.480325693533127485e+00
2.494201116977446731e+00
2.494201116977446731e+00
2.481638233588671305e+00
2.481638233588671305e+00
2.473762993255409270e+00
2.471887936033204003e+00
2.471887936033204003e+00
2.460075075533310951e+00
2.486325876644184696e+00
2.486325876644184696e+00
2.525702078310495757e+00
2.525702078310495757e+00
2.540515030365916971e+00
2.561703176976836804e+00
2.561703176976836804e+00
2.567328348643452163e+00
2.567328348643452163e+00
2.545765190588091809e+00
2.516889309366130423e+00
2.516889309366130423e+00
2.500576311532944906e+00
2.500576311532944906e+00
2.484263313699758946e+00
2.469825373088778253e+00
2.469825373088778253e+00
2.467200292977691056e+00
2.454449903866695148e+00
2.454449903866695148e+00
2.447887203588976490e+00
2.447887203588976490e+00
2.443949583422345917e+00
2.508076540421765976e+00
2.508076540421765976e+00
2.552515396588030505e+00
2.552515396588030505e+00
2.555140476699118146e+00
2.542577593310342721e+00
2.542577593310342721e+00
2.532077272865993045e+00
2.532077272865993045e+00
2.523639515366069563e+00
2.498513748588519157e+00
2.498513748588519157e+00
2.498513748588519157e+00
2.498513748588519157e+00
2.506201483199560265e+00
2.487263405255287552e+00
2.487263405255287552e+00
2.479013153477584552e+00
2.479013153477584552e+00
2.479388164922025517e+00
2.455949949644459451e+00
2.455949949644459451e+00
2.470387890255439700e+00
2.526639606921598169e+00
2.526639606921598169e+00
2.549327799310281861e+00
2.549327799310281861e+00
2.554202948088015290e+00
2.563765739921262110e+00
2.563765739921262110e+00
2.548202764976958523e+00
2.548202764976958523e+00
2.505451460310678335e+00
2.488763451033051854e+00
2.488763451033051854e+00
2.503201391644032547e+00
2.503201391644032547e+00
2.494388622699667213e+00
2.462325144199957183e+00
2.462325144199957183e+00
2.439261940366832526e+00
2.443574571977904952e+00
2.443574571977904952e+00
2.441136997589037794e+00
2.441136997589037794e+00
2.463450178533280521e+00
2.516326792199468976e+00
2.516326792199468976e+00
2.544640156254768470e+00
2.544640156254768470e+00
2.566765831476790716e+00
2.568640888698995983e+00
2.568640888698995983e+00
2.548577776421399932e+00
2.520826929532761884e+00
2.520826929532761884e+00
2.512764183477279367e+00
2.512764183477279367e+00
2.495138645588549586e+00
2.494576128421887695e+00
2.494576128421887695e+00
2.480513199255348411e+00
2.472450453199865894e+00
2.472450453199865894e+00
2.451637318033387469e+00
2.451637318033387469e+00
2.434761803033539618e+00
2.458950041199987613e+00
2.458950041199987613e+00
2.505638966032898818e+00
2.505638966032898818e+00
2.527202124088259172e+00
2.577828669087801838e+00
2.577828669087801838e+00
2.587203955198828176e+00
2.587203955198828176e+00
2.558890591143528681e+00
2.527764641254921063e+00
2.527764641254921063e+00
2.496638691366313889e+00
2.496638691366313889e+00
2.487263405255287552e+00
2.473762993255409270e+00
2.473762993255409270e+00
2.460825098422192880e+00
2.460825098422192880e+00
2.465137730033265306e+00
2.461387615588854771e+00
2.461387615588854771e+00
2.458012512588885201e+00
2.458012512588885201e+00
2.505451460310678335e+00
2.530389721366008260e+00
2.530389721366008260e+00
2.546140202032532773e+00
2.546140202032532773e+00
2.570890957365642215e+00
2.552140385143589540e+00
2.552140385143589540e+00
2.528327158421582510e+00
2.507139011810663121e+00
2.507139011810663121e+00
2.485013336588640875e+00
2.485013336588640875e+00
2.496638691366313889e+00
2.485200842310861358e+00
2.485200842310861358e+00
2.463262672811060039e+00
2.463262672811060039e+00
2.469262855922116806e+00
2.451449812311166987e+00
2.451449812311166987e+00
2.467012787255470574e+00
2.467012787255470574e+00
2.515951780755027567e+00
2.541077547532578418e+00
2.541077547532578418e+00
2.556078005310220558e+00
2.556078005310220558e+00
2.572766014587847927e+00
2.543515121921445576e+00
2.543515121921445576e+00
2.503576403088473068e+00
2.479200659199805035e+00
2.479200659199805035e+00
2.467200292977691056e+00
2.467200292977691056e+00
2.476388073366496911e+00
2.480513199255348411e+00
2.480513199255348411e+00
2.478450636310922661e+00
2.478450636310922661e+00
2.481638233588671305e+00
2.465887752922147680e+00
2.465887752922147680e+00
2.479950682088686964e+00
2.479950682088686964e+00
2.531702261421552080e+00
2.548952787865840897e+00
2.548952787865840897e+00
2.563578234199041628e+00
2.563578234199041628e+00
2.548390270699179450e+00
2.511451643421735547e+00
2.511451643421735547e+00
2.486138370921964214e+00
2.483888302255317981e+00
2.483888302255317981e+00
2.473575487533188788e+00
2.473575487533188788e+00
2.484075807977538464e+00
2.492513565477461945e+00
2.492513565477461945e+00
2.489888485366374749e+00
2.489888485366374749e+00
2.475638050477614982e+00
2.473762993255409270e+00
2.473762993255409270e+00
2.507326517532883603e+00
2.507326517532883603e+00
2.535639881588183542e+00
2.545015167699209435e+00
2.545015167699209435e+00
2.574641071810052750e+00
2.574641071810052750e+00
2.557953062532425825e+00
2.525514572588274831e+00
2.525514572588274831e+00
2.492326059755241463e+00
2.492326059755241463e+00
2.471700430310983521e+00
2.464950224311044824e+00
2.464950224311044824e+00
2.475075533310953091e+00
2.470387890255439700e+00
2.470387890255439700e+00
2.461387615588854771e+00
2.461387615588854771e+00
2.445449629200109776e+00
2.442637043366802097e+00
2.442637043366802097e+00
2.500763817255165389e+00
2.500763817255165389e+00
2.524014526810510528e+00
2.548577776421399932e+00
2.548577776421399932e+00
2.569953428754539804e+00
2.556828028199102931e+00
2.521014435254982367e+00
2.521014435254982367e+00
2.511076631977294138e+00
2.495513657032990551e+00
2.495513657032990551e+00
2.480888210699789376e+00
2.480888210699789376e+00
2.479013153477584552e+00
2.465700247199926753e+00
2.465700247199926753e+00
2.456324961088900860e+00
2.456324961088900860e+00
2.446387157811212187e+00
2.469450361644337288e+00
2.469450361644337288e+00
2.506013977477339782e+00
2.506013977477339782e+00
2.527389629810480098e+00
2.557765556810205343e+00
2.557765556810205343e+00
2.577266151921139947e+00
2.556453016754661967e+00
2.556453016754661967e+00
2.515951780755027567e+00
2.515951780755027567e+00
2.499076265755180604e+00
2.501513840144047762e+00
2.501513840144047762e+00
2.482200750755333196e+00
2.482200750755333196e+00
2.470200384533219218e+00
2.475638050477614982e+00
2.475638050477614982e+00
2.470762901699881109e+00
2.470762901699881109e+00
2.465887752922147680e+00
2.491576036866359534e+00
2.491576036866359534e+00
2.527577135532700581e+00
2.527577135532700581e+00
2.539765007477034597e+00
2.567703360087893572e+00
2.567703360087893572e+00
2.567703360087893572e+00
2.544827661976988953e+00
2.544827661976988953e+00
2.520639423810540958e+00
2.520639423810540958e+00
2.499638782921842051e+00
2.481638233588671305e+00
2.481638233588671305e+00
2.472075441755424485e+00
2.472075441755424485e+00
2.465325235755485789e+00
2.451824823755607952e+00
2.451824823755607952e+00
2.435324320200201509e+00
2.435324320200201509e+00
2.432511734366893830e+00
2.491013519699698087e+00
2.491013519699698087e+00
2.526639606921598169e+00
2.526639606921598169e+00
2.537514938810388809e+00
2.568078371532334536e+00
2.568078371532334536e+00
2.564140751365703075e+00
2.531702261421552080e+00
2.531702261421552080e+00
2.512201666310617476e+00
2.512201666310617476e+00
2.488950956755272337e+00
2.490826013977477604e+00
2.490826013977477604e+00
2.481825739310891787e+00
2.481825739310891787e+00
2.477888119144261214e+00
2.484263313699758946e+00
2.484263313699758946e+00
2.472450453199865894e+00
2.472450453199865894e+00
2.486888393810846587e+00
2.526639606921598169e+00
2.526639606921598169e+00
2.530764732810449669e+00
2.530764732810449669e+00
2.534889858699301168e+00
2.555890499588000075e+00
2.555890499588000075e+00
2.543702627643666059e+00
2.543702627643666059e+00
2.497951231421857266e+00
2.486325876644184696e+00
2.486325876644184696e+00
2.479575670644245999e+00
2.483888302255317981e+00
2.483888302255317981e+00
2.486888393810846587e+00
2.486888393810846587e+00
2.490263496810816157e+00
2.482200750755333196e+00
2.482200750755333196e+00
2.459887569811090469e+00
2.459887569811090469e+00
2.479200659199805035e+00
2.514639240699484635e+00
2.514639240699484635e+00
2.536764915921506436e+00
2.536764915921506436e+00
2.550265327921384717e+00
2.560765648365733949e+00
2.560765648365733949e+00
2.533014801477095901e+00
2.533014801477095901e+00
2.508076540421765976e+00
2.496076174199651998e+00
2.496076174199651998e+00
2.488388439588610446e+00
2.472262947477644968e+00
2.472262947477644968e+00
2.464575212866603859e+00
2.464575212866603859e+00
2.468137821588793912e+00
2.470200384533219218e+00
2.470200384533219218e+00
2.466262764366588645e+00
2.466262764366588645e+00
2.504513931699575480e+00
2.531702261421552080e+00
2.531702261421552080e+00
2.535639881588183542e+00
2.551015350810266202e+00
2.551015350810266202e+00
2.536202398754844989e+00
2.521014435254982367e+00
2.521014435254982367e+00
2.507326517532883603e+00
2.491201025421918569e+00
2.491201025421918569e+00
2.482763267921994643e+00
2.482763267921994643e+00
2.488950956755272337e+00
2.485763359477523249e+00
2.485763359477523249e+00
2.481450727866450823e+00
2.465887752922147680e+00
2.465887752922147680e+00
2.465512741477706271e+00
2.465512741477706271e+00
2.508639057588427423e+00
2.532077272865993045e+00
2.532077272865993045e+00
2.545765190588091809e+00
2.545765190588091809e+00
2.560203131199072502e+00
2.543890133365886541e+00
2.543890133365886541e+00
2.505638966032898818e+00
2.505638966032898818e+00
2.496451185644092963e+00
2.484075807977538464e+00
2.484075807977538464e+00
2.487075899533067069e+00
2.487075899533067069e+00
2.476013061922055947e+00
2.468137821588793912e+00
2.468137821588793912e+00
2.472825464644306859e+00
2.472825464644306859e+00
2.465137730033265306e+00
2.479763176366466482e+00
2.479763176366466482e+00
2.526452101199377687e+00
2.538827478865932186e+00
2.538827478865932186e+00
2.550640339365825238e+00
2.550640339365825238e+00
2.557953062532425825e+00
2.530014709921567295e+00
2.530014709921567295e+00
2.494013611255226248e+00
2.494013611255226248e+00
2.490263496810816157e+00
2.487075899533067069e+00
2.487075899533067069e+00
2.478638142033143144e+00
2.478638142033143144e+00
2.474138004699850679e+00
2.477138096255378841e+00
2.477138096255378841e+00
2.476763084810937876e+00
2.471137913144322074e+00
2.471137913144322074e+00
2.505076448866237371e+00
2.505076448866237371e+00
2.531702261421552080e+00
2.539765007477034597e+00
2.539765007477034597e+00
2.566203314310129269e+00
2.566203314310129269e+00
2.555702993865779593e+00
2.523639515366069563e+00
2.523639515366069563e+00
2.496263679921872480e+00
2.496263679921872480e+00
2.479388164922025517e+00
2.481638233588671305e+00
2.481638233588671305e+00
2.479388164922025517e+00
2.479388164922025517e+00
2.474700521866512126e+00
2.472450453199865894e+00
2.472450453199865894e+00
2.464950224311044824e+00
2.464762718588824342e+00
2.464762718588824342e+00
2.505263954588457853e+00
2.505263954588457853e+00
2.533014801477095901e+00
2.545202673421430362e+00
2.545202673421430362e+00
2.567515854365672645e+00
2.567515854365672645e+00
2.557015533921323414e+00
2.516326792199468976e+00
2.516326792199468976e+00
2.497013702810754854e+00
2.497013702810754854e+00
2.483138279366435608e+00
2.480888210699789376e+00
2.480888210699789376e+00
2.469450361644337288e+00
2.469450361644337288e+00
2.453324869533372254e+00
2.467762810144352947e+00
2.467762810144352947e+00
2.457825006866664719e+00
2.473012970366527341e+00
2.473012970366527341e+00
2.527014618366038690e+00
2.527014618366038690e+00
2.540327524643696488e+00
2.563953245643482592e+00
2.563953245643482592e+00
2.577266151921139947e+00
2.577266151921139947e+00
2.547827753532517558e+00
2.506201483199560265e+00
2.506201483199560265e+00
2.494951139866329104e+00
2.494951139866329104e+00
2.482388256477553679e+00
2.480138187810907002e+00
2.480138187810907002e+00
2.467762810144352947e+00
2.467762810144352947e+00
2.460825098422192880e+00
2.446012146366771223e+00
2.446012146366771223e+00
2.445824640644550740e+00
2.486700888088625661e+00
2.486700888088625661e+00
2.536202398754844989e+00
2.536202398754844989e+00
2.543890133365886541e+00
2.564328257087923557e+00
2.570140934476760286e+00
2.570140934476760286e+00
2.535827387310404024e+00
2.515576769310586602e+00
2.515576769310586602e+00
2.502076357310709209e+00
2.502076357310709209e+00
2.488013428144169481e+00
2.472075441755424485e+00
2.472075441755424485e+00
2.447137180700094561e+00
2.447137180700094561e+00
2.459137546922208095e+00
2.450887295144505096e+00
2.450887295144505096e+00
2.460637592699972398e+00
2.460637592699972398e+00
2.503201391644032547e+00
2.531139744254890633e+00
2.531139744254890633e+00
2.540890041810357936e+00
2.540890041810357936e+00
2.559640614032411055e+00
2.560578142643513466e+00
2.560578142643513466e+00
2.530389721366008260e+00
2.504326425977354997e+00
2.504326425977354997e+00
2.486700888088625661e+00
2.486700888088625661e+00
2.487825922421948999e+00
2.479950682088686964e+00
2.479950682088686964e+00
2.469075350199895880e+00
2.469075350199895880e+00
2.462512649922177665e+00
2.451824823755607952e+00
2.451824823755607952e+00
2.459325052644428578e+00
2.459325052644428578e+00
2.511826654866176511e+00
2.533577318643757348e+00
2.533577318643757348e+00
2.556453016754661967e+00
2.556453016754661967e+00
2.575016083254493715e+00
2.551390362254707167e+00
2.551390362254707167e+00
2.514826746421705117e+00
2.514826746421705117e+00
2.503388897366253030e+00
2.485200842310861358e+00
2.485200842310861358e+00
2.489138462477492819e+00
2.482013245033112270e+00
2.482013245033112270e+00
2.472825464644306859e+00
2.468887844477675397e+00
2.455574938200018487e+00
2.478638142033143144e+00
2.478638142033143144e+00
2.522889492477187634e+00
2.537139927365947845e+00
2.537139927365947845e+00
2.558140568254646752e+00
2.569015900143436948e+00
2.569015900143436948e+00
2.544827661976988953e+00
2.544827661976988953e+00
2.508076540421765976e+00
2.486888393810846587e+00
2.486888393810846587e+00
2.474513016144291644e+00
2.474513016144291644e+00
2.468512833033234433e+00
2.470387890255439700e+00
2.470387890255439700e+00
2.470575395977660182e+00
2.470575395977660182e+00
2.462137638477736701e+00
2.455199926755577522e+00
2.455199926755577522e+00
2.498513748588519157e+00
2.537139927365947845e+00
2.537139927365947845e+00
2.548390270699179450e+00
2.548390270699179450e+00
2.575203588976714197e+00
2.560203131199072502e+00
2.560203131199072502e+00
2.525139561143833866e+00
2.525139561143833866e+00
2.503576403088473068e+00
2.487263405255287552e+00
2.487263405255287552e+00
2.482575762199774161e+00
2.484450819421979428e+00
2.484450819421979428e+00
2.465512741477706271e+00
2.465512741477706271e+00
2.463825189977721486e+00
2.455387432477798004e+00
2.455387432477798004e+00
2.462887661366619074e+00
2.462887661366619074e+00
2.503201391644032547e+00
2.526639606921598169e+00
2.526639606921598169e+00
2.539765007477034597e+00
2.539765007477034597e+00
2.567328348643452163e+00
2.539765007477034597e+00
2.539765007477034597e+00
2.521014435254982367e+00
2.521014435254982367e+00
2.509014069032868388e+00
2.490826013977477604e+00
2.490826013977477604e+00
2.485950865199743731e+00
2.481450727866450823e+00
2.481450727866450823e+00
2.477700613422040732e+00
2.477700613422040732e+00
2.473950498977630197e+00
2.466637775811029609e+00
2.466637775811029609e+00
2.476388073366496911e+00
2.515764275032807085e+00
2.515764275032807085e+00
2.525514572588274831e+00
2.525514572588274831e+00
2.537702444532609292e+00
2.551202856532486685e+00
2.551202856532486685e+00
2.537514938810388809e+00
2.537514938810388809e+00
2.508639057588427423e+00
2.498326242866298674e+00
2.498326242866298674e+00
2.484825830866420393e+00
2.484825830866420393e+00
2.484263313699758946e+00
2.476388073366496911e+00
2.476388073366496911e+00
2.475263039033173573e+00
2.473387981810968306e+00
2.473387981810968306e+00
2.465512741477706271e+00
2.465512741477706271e+00
2.489513473921933784e+00
2.522701986754967152e+00
2.522701986754967152e+00
2.535264870143742133e+00
2.535264870143742133e+00
2.557015533921323414e+00
2.556453016754661967e+00
2.556453016754661967e+00
