2.544640156254768470e+00
2.575203588976714197e+00
2.575203588976714197e+00
2.575203588976714197e+00
2.599954344309823639e+00
2.599954344309823639e+00
2.599954344309823639e+00
2.599954344309823639e+00
2.578578691976683768e+00
2.578578691976683768e+00
2.578578691976683768e+00
2.535077364421521651e+00
2.535077364421521651e+00
2.535077364421521651e+00
2.508076540421765976e+00
2.508076540421765976e+00
2.508076540421765976e+00
2.508076540421765976e+00
2.470012878810998735e+00
2.470012878810998735e+00
2.470012878810998735e+00
2.488013428144169481e+00
2.488013428144169481e+00
2.488013428144169481e+00
2.488013428144169481e+00
2.506013977477339782e+00
2.506013977477339782e+00
2.506013977477339782e+00
2.480138187810907002e+00
2.480138187810907002e+00
2.480138187810907002e+00
2.480138187810907002e+00
2.439074434644612044e+00
2.439074434644612044e+00
2.439074434644612044e+00
2.437949400311288706e+00
2.437949400311288706e+00
2.437949400311288706e+00
2.457637501144443792e+00
2.457637501144443792e+00
2.457637501144443792e+00
2.457637501144443792e+00
2.467387798699911539e+00
2.467387798699911539e+00
2.467387798699911539e+00
2.455949949644459451e+00
2.455949949644459451e+00
2.455949949644459451e+00
2.455949949644459451e+00
2.496263679921872480e+00
2.496263679921872480e+00
2.496263679921872480e+00
2.584391369365520497e+00
2.584391369365520497e+00
2.584391369365520497e+00
2.557390545365764378e+00
2.557390545365764378e+00
2.557390545365764378e+00
2.557390545365764378e+00
2.540140018921475562e+00
2.540140018921475562e+00
2.540140018921475562e+00
2.545765190588091809e+00
2.545765190588091809e+00
2.545765190588091809e+00
2.545765190588091809e+00
2.529077181310464884e+00
2.529077181310464884e+00
2.529077181310464884e+00
2.512764183477279367e+00
2.512764183477279367e+00
2.512764183477279367e+00
2.512764183477279367e+00
2.513139194921720332e+00
2.513139194921720332e+00
2.513139194921720332e+00
2.507514023255104085e+00
2.507514023255104085e+00
2.507514023255104085e+00
2.498513748588519157e+00
2.498513748588519157e+00
2.498513748588519157e+00
2.498513748588519157e+00
2.478450636310922661e+00
2.478450636310922661e+00
2.478450636310922661e+00
2.433261757255775315e+00
2.433261757255775315e+00
2.433261757255775315e+00
2.433261757255775315e+00
2.459887569811090469e+00
2.459887569811090469e+00
2.459887569811090469e+00
2.483888302255317981e+00
2.483888302255317981e+00
2.483888302255317981e+00
2.564140751365703075e+00
2.564140751365703075e+00
2.564140751365703075e+00
2.604454481643116548e+00
2.604454481643116548e+00
2.604454481643116548e+00
2.607267067476424671e+00
2.607267067476424671e+00
2.607267067476424671e+00
2.563390728476821145e+00
2.563390728476821145e+00
2.563390728476821145e+00
2.563390728476821145e+00
2.509576586199530279e+00
2.509576586199530279e+00
2.509576586199530279e+00
2.466262764366588645e+00
2.466262764366588645e+00
2.466262764366588645e+00
2.466262764366588645e+00
2.432886745811334794e+00
2.432886745811334794e+00
2.432886745811334794e+00
2.420323862422559369e+00
2.420323862422559369e+00
2.420323862422559369e+00
2.436074343089083438e+00
2.436074343089083438e+00
2.436074343089083438e+00
2.436074343089083438e+00
2.475825556199835464e+00
2.475825556199835464e+00
2.475825556199835464e+00
2.478263130588702179e+00
2.478263130588702179e+00
2.478263130588702179e+00
2.538452467421491221e+00
2.538452467421491221e+00
2.538452467421491221e+00
2.538452467421491221e+00
2.568640888698995983e+00
2.568640888698995983e+00
2.545765190588091809e+00
2.545765190588091809e+00
2.545765190588091809e+00
2.545765190588091809e+00
2.594516678365428763e+00
2.594516678365428763e+00
2.594516678365428763e+00
2.599016815698721228e+00
2.599016815698721228e+00
2.599016815698721228e+00
2.551577867976928093e+00
2.551577867976928093e+00
2.551577867976928093e+00
2.551577867976928093e+00
2.520076906643879511e+00
2.520076906643879511e+00
2.520076906643879511e+00
2.482013245033112270e+00
2.482013245033112270e+00
2.482013245033112270e+00
2.482013245033112270e+00
2.493638599810785283e+00
2.493638599810785283e+00
2.493638599810785283e+00
2.501701345866268245e+00
2.501701345866268245e+00
2.501701345866268245e+00
2.501701345866268245e+00
2.469075350199895880e+00
2.469075350199895880e+00
2.469075350199895880e+00
2.440386974700155864e+00
2.440386974700155864e+00
2.440386974700155864e+00
2.431011688589129527e+00
2.431011688589129527e+00
2.431011688589129527e+00
2.431011688589129527e+00
2.432699240089114312e+00
2.432699240089114312e+00
2.432699240089114312e+00
2.476388073366496911e+00
2.476388073366496911e+00
2.476388073366496911e+00
2.476388073366496911e+00
2.525327066866054349e+00
2.525327066866054349e+00
2.525327066866054349e+00
2.579141209143345659e+00
2.579141209143345659e+00
2.579141209143345659e+00
2.576891140476698983e+00
2.576891140476698983e+00
2.576891140476698983e+00
2.576891140476698983e+00
2.574828577532273233e+00
2.574828577532273233e+00
2.574828577532273233e+00
2.550077822199164235e+00
2.550077822199164235e+00
2.550077822199164235e+00
2.550077822199164235e+00
2.534514847254860204e+00
2.534514847254860204e+00
2.534514847254860204e+00
2.513701712088381779e+00
2.513701712088381779e+00
2.513701712088381779e+00
2.479200659199805035e+00
2.479200659199805035e+00
2.479200659199805035e+00
2.479200659199805035e+00
2.435324320200201509e+00
2.435324320200201509e+00
2.435324320200201509e+00
2.448262215033417899e+00
2.448262215033417899e+00
2.448262215033417899e+00
2.448262215033417899e+00
2.477513107699820250e+00
2.477513107699820250e+00
2.477513107699820250e+00
2.509201574755088870e+00
2.509201574755088870e+00
2.509201574755088870e+00
2.545577684865871326e+00
2.545577684865871326e+00
2.545577684865871326e+00
2.545577684865871326e+00
2.578578691976683768e+00
2.578578691976683768e+00
2.578578691976683768e+00
2.530389721366008260e+00
2.530389721366008260e+00
2.530389721366008260e+00
2.530389721366008260e+00
2.533389812921536866e+00
2.533389812921536866e+00
2.533389812921536866e+00
2.562453199865718290e+00
2.562453199865718290e+00
2.562453199865718290e+00
2.562453199865718290e+00
2.513889217810602261e+00
2.513889217810602261e+00
2.513889217810602261e+00
2.468512833033234433e+00
2.468512833033234433e+00
2.468512833033234433e+00
2.439636951811273491e+00
2.439636951811273491e+00
2.439636951811273491e+00
2.439636951811273491e+00
2.438886928922391562e+00
2.438886928922391562e+00
2.438886928922391562e+00
2.461012604144413807e+00
2.461012604144413807e+00
2.461012604144413807e+00
2.461012604144413807e+00
2.460262581255531433e+00
2.460262581255531433e+00
2.460262581255531433e+00
2.480138187810907002e+00
2.480138187810907002e+00
2.480138187810907002e+00
2.495513657032990551e+00
2.495513657032990551e+00
2.495513657032990551e+00
2.495513657032990551e+00
2.493076082644123392e+00
2.493076082644123392e+00
2.493076082644123392e+00
2.516889309366130423e+00
2.516889309366130423e+00
2.516889309366130423e+00
2.516889309366130423e+00
2.521951963866084778e+00
2.521951963866084778e+00
2.521951963866084778e+00
2.535639881588183542e+00
2.535639881588183542e+00
2.535639881588183542e+00
2.571828485976745071e+00
2.571828485976745071e+00
2.571828485976745071e+00
2.571828485976745071e+00
2.566765831476790716e+00
2.566765831476790716e+00
2.566765831476790716e+00
2.553265419476912879e+00
2.553265419476912879e+00
2.553265419476912879e+00
2.553265419476912879e+00
2.541827570421460791e+00
2.541827570421460791e+00
2.541827570421460791e+00
2.495513657032990551e+00
2.495513657032990551e+00
2.495513657032990551e+00
2.462700155644398592e+00
2.462700155644398592e+00
2.462700155644398592e+00
2.462700155644398592e+00
2.489138462477492819e+00
2.489138462477492819e+00
2.489138462477492819e+00
2.527577135532700581e+00
2.527577135532700581e+00
2.527577135532700581e+00
2.527577135532700581e+00
2.497763725699636783e+00
2.497763725699636783e+00
2.497763725699636783e+00
2.463450178533280521e+00
2.463450178533280521e+00
2.463450178533280521e+00
2.463450178533280521e+00
2.451637318033387469e+00
2.451637318033387469e+00
2.451637318033387469e+00
2.507701528977324568e+00
2.507701528977324568e+00
2.507701528977324568e+00
2.515576769310586602e+00
2.515576769310586602e+00
2.515576769310586602e+00
2.515576769310586602e+00
2.533389812921536866e+00
2.533389812921536866e+00
2.533389812921536866e+00
2.513326700643940814e+00
2.513326700643940814e+00
2.513326700643940814e+00
2.513326700643940814e+00
2.539202490310373150e+00
2.539202490310373150e+00
2.539202490310373150e+00
2.549890316476943308e+00
2.549890316476943308e+00
2.549890316476943308e+00
2.532077272865993045e+00
2.532077272865993045e+00
2.532077272865993045e+00
2.532077272865993045e+00
2.492326059755241463e+00
2.492326059755241463e+00
2.492326059755241463e+00
2.455574938200018487e+00
2.455574938200018487e+00
2.455574938200018487e+00
2.455574938200018487e+00
2.469450361644337288e+00
2.469450361644337288e+00
2.469450361644337288e+00
2.467575304422132465e+00
2.467575304422132465e+00
2.467575304422132465e+00
2.501513840144047762e+00
2.501513840144047762e+00
2.501513840144047762e+00
2.501513840144047762e+00
2.503388897366253030e+00
2.503388897366253030e+00
2.503388897366253030e+00
2.504888943144016888e+00
2.504888943144016888e+00
2.504888943144016888e+00
2.504888943144016888e+00
2.515389263588366120e+00
2.515389263588366120e+00
2.515389263588366120e+00
2.507326517532883603e+00
2.507326517532883603e+00
2.507326517532883603e+00
2.507326517532883603e+00
2.549327799310281861e+00
2.549327799310281861e+00
2.549327799310281861e+00
2.598079287087618372e+00
2.598079287087618372e+00
2.598079287087618372e+00
2.560203131199072502e+00
2.560203131199072502e+00
2.560203131199072502e+00
2.560203131199072502e+00
2.500763817255165389e+00
2.500763817255165389e+00
2.500763817255165389e+00
2.487638416699728516e+00
2.487638416699728516e+00
2.487638416699728516e+00
2.487638416699728516e+00
2.488013428144169481e+00
2.488013428144169481e+00
2.488013428144169481e+00
2.451824823755607952e+00
2.451824823755607952e+00
2.451824823755607952e+00
2.451824823755607952e+00
2.477138096255378841e+00
2.477138096255378841e+00
2.477138096255378841e+00
2.490451002533036640e+00
2.490451002533036640e+00
2.490451002533036640e+00
2.467762810144352947e+00
2.467762810144352947e+00
2.467762810144352947e+00
2.467762810144352947e+00
2.473012970366527341e+00
2.473012970366527341e+00
2.473012970366527341e+00
2.507889034699545494e+00
2.507889034699545494e+00
2.507889034699545494e+00
2.507889034699545494e+00
2.543515121921445576e+00
2.543515121921445576e+00
2.543515121921445576e+00
2.546515213476973738e+00
2.546515213476973738e+00
2.546515213476973738e+00
2.533389812921536866e+00
2.533389812921536866e+00
2.533389812921536866e+00
2.553077913754691952e+00
2.553077913754691952e+00
2.553077913754691952e+00
2.553077913754691952e+00
2.554765465254677181e+00
2.554765465254677181e+00
2.554765465254677181e+00
2.532264778588213971e+00
2.532264778588213971e+00
2.532264778588213971e+00
2.516889309366130423e+00
2.516889309366130423e+00
2.516889309366130423e+00
2.516889309366130423e+00
2.498513748588519157e+00
2.498513748588519157e+00
2.498513748588519157e+00
2.506576494644001674e+00
2.506576494644001674e+00
2.506576494644001674e+00
2.506576494644001674e+00
2.457637501144443792e+00
2.457637501144443792e+00
2.457637501144443792e+00
2.440949491866817311e+00
2.440949491866817311e+00
2.440949491866817311e+00
2.434199285866878171e+00
2.434199285866878171e+00
2.434199285866878171e+00
2.434199285866878171e+00
2.445262123477889293e+00
2.445262123477889293e+00
2.445262123477889293e+00
2.490451002533036640e+00
2.490451002533036640e+00
2.490451002533036640e+00
2.490451002533036640e+00
2.546890224921415147e+00
2.546890224921415147e+00
2.546890224921415147e+00
2.583078829309976676e+00
2.583078829309976676e+00
2.583078829309976676e+00
2.615517319254127671e+00
2.615517319254127671e+00
2.615517319254127671e+00
2.615517319254127671e+00
2.569015900143436948e+00
2.569015900143436948e+00
2.569015900143436948e+00
2.480325693533127485e+00
2.480325693533127485e+00
2.480325693533127485e+00
2.480325693533127485e+00
2.496826197088534371e+00
2.496826197088534371e+00
2.496826197088534371e+00
2.440199468977935382e+00
2.440199468977935382e+00
2.440199468977935382e+00
2.440199468977935382e+00
2.469637867366557771e+00
2.469637867366557771e+00
2.469637867366557771e+00
2.488200933866389963e+00
2.488200933866389963e+00
2.488200933866389963e+00
2.513139194921720332e+00
2.513139194921720332e+00
2.513139194921720332e+00
2.513139194921720332e+00
2.491763542588580016e+00
2.491763542588580016e+00
2.491763542588580016e+00
2.475450544755394056e+00
2.475450544755394056e+00
2.475450544755394056e+00
2.475450544755394056e+00
2.484450819421979428e+00
2.484450819421979428e+00
2.484450819421979428e+00
2.534514847254860204e+00
2.534514847254860204e+00
2.534514847254860204e+00
2.531702261421552080e+00
2.531702261421552080e+00
2.531702261421552080e+00
2.531702261421552080e+00
2.556640522476882449e+00
2.556640522476882449e+00
2.556640522476882449e+00
2.573516037476729856e+00
2.573516037476729856e+00
2.573516037476729856e+00
2.573516037476729856e+00
2.559453108310190128e+00
2.559453108310190128e+00
2.559453108310190128e+00
2.527202124088259172e+00
2.527202124088259172e+00
2.527202124088259172e+00
2.527202124088259172e+00
2.485388348033082284e+00
2.485388348033082284e+00
2.485388348033082284e+00
2.470200384533219218e+00
2.470200384533219218e+00
2.470200384533219218e+00
2.463262672811060039e+00
2.463262672811060039e+00
2.463262672811060039e+00
2.463262672811060039e+00
2.475075533310953091e+00
2.475075533310953091e+00
2.475075533310953091e+00
2.495888668477431516e+00
2.495888668477431516e+00
2.495888668477431516e+00
2.495888668477431516e+00
2.493263588366343875e+00
2.493263588366343875e+00
2.493263588366343875e+00
2.442824549089022579e+00
2.442824549089022579e+00
2.442824549089022579e+00
2.454074892422254184e+00
2.454074892422254184e+00
2.454074892422254184e+00
2.454074892422254184e+00
2.498326242866298674e+00
2.498326242866298674e+00
2.498326242866298674e+00
2.561515671254616322e+00
2.561515671254616322e+00
2.561515671254616322e+00
2.561515671254616322e+00
2.578203680532242803e+00
2.578203680532242803e+00
2.578203680532242803e+00
2.586078920865504838e+00
2.586078920865504838e+00
2.586078920865504838e+00
2.588141483809930588e+00
2.588141483809930588e+00
2.588141483809930588e+00
2.588141483809930588e+00
2.527952146977141545e+00
2.527952146977141545e+00
2.527952146977141545e+00
2.492326059755241463e+00
2.492326059755241463e+00
2.492326059755241463e+00
2.492326059755241463e+00
2.492513565477461945e+00
2.492513565477461945e+00
2.492513565477461945e+00
2.525139561143833866e+00
2.525139561143833866e+00
2.525139561143833866e+00
2.525139561143833866e+00
2.482388256477553679e+00
2.482388256477553679e+00
2.482388256477553679e+00
2.421823908200323228e+00
2.421823908200323228e+00
2.421823908200323228e+00
2.421823908200323228e+00
2.447887203588976490e+00
2.447887203588976490e+00
2.447887203588976490e+00
2.467012787255470574e+00
2.467012787255470574e+00
2.467012787255470574e+00
2.456324961088900860e+00
2.456324961088900860e+00
2.456324961088900860e+00
2.456324961088900860e+00
2.473387981810968306e+00
2.473387981810968306e+00
2.473387981810968306e+00
2.519889400921659028e+00
2.519889400921659028e+00
2.519889400921659028e+00
2.519889400921659028e+00
2.583641346476638123e+00
2.583641346476638123e+00
2.583641346476638123e+00
2.609142124698629495e+00
2.609142124698629495e+00
2.609142124698629495e+00
2.584953886532181944e+00
2.584953886532181944e+00
2.584953886532181944e+00
2.584953886532181944e+00
2.532452284310434454e+00
2.532452284310434454e+00
2.532452284310434454e+00
2.519139378032776655e+00
2.519139378032776655e+00
2.519139378032776655e+00
2.519139378032776655e+00
2.530952238532670151e+00
2.530952238532670151e+00
2.530952238532670151e+00
2.502638874477370656e+00
2.502638874477370656e+00
2.502638874477370656e+00
2.502638874477370656e+00
2.441887020477920167e+00
2.441887020477920167e+00
2.441887020477920167e+00
2.441887020477920167e+00
2.441887020477920167e+00
2.441887020477920167e+00
2.431574205755790974e+00
2.431574205755790974e+00
2.431574205755790974e+00
2.431574205755790974e+00
2.478450636310922661e+00
2.478450636310922661e+00
2.478450636310922661e+00
2.515764275032807085e+00
2.515764275032807085e+00
2.515764275032807085e+00
2.515764275032807085e+00
2.491763542588580016e+00
2.491763542588580016e+00
2.491763542588580016e+00
2.544640156254768470e+00
2.544640156254768470e+00
2.544640156254768470e+00
2.603516953032014136e+00
2.603516953032014136e+00
2.603516953032014136e+00
2.603516953032014136e+00
2.600704367198706013e+00
2.600704367198706013e+00
2.600704367198706013e+00
2.560953154087954431e+00
2.560953154087954431e+00
2.560953154087954431e+00
2.560953154087954431e+00
2.530014709921567295e+00
2.530014709921567295e+00
2.530014709921567295e+00
2.517264320810571387e+00
2.517264320810571387e+00
2.517264320810571387e+00
2.517264320810571387e+00
2.447324686422315043e+00
2.447324686422315043e+00
2.447324686422315043e+00
2.426136539811395654e+00
2.426136539811395654e+00
2.426136539811395654e+00
2.487263405255287552e+00
2.487263405255287552e+00
2.487263405255287552e+00
2.487263405255287552e+00
2.502076357310709209e+00
2.502076357310709209e+00
2.502076357310709209e+00
2.464950224311044824e+00
2.464950224311044824e+00
2.464950224311044824e+00
2.464950224311044824e+00
2.437949400311288706e+00
2.437949400311288706e+00
2.437949400311288706e+00
2.512764183477279367e+00
2.512764183477279367e+00
2.512764183477279367e+00
2.551765373699148576e+00
2.551765373699148576e+00
2.551765373699148576e+00
2.551765373699148576e+00
2.521201940977202849e+00
2.521201940977202849e+00
2.521201940977202849e+00
2.509389080477309353e+00
2.509389080477309353e+00
2.509389080477309353e+00
2.535452375865963059e+00
2.535452375865963059e+00
2.535452375865963059e+00
2.535452375865963059e+00
2.517076815088350905e+00
2.517076815088350905e+00
2.517076815088350905e+00
2.525139561143833866e+00
2.525139561143833866e+00
2.525139561143833866e+00
2.525139561143833866e+00
2.512014160588396994e+00
2.512014160588396994e+00
2.512014160588396994e+00
2.526639606921598169e+00
2.526639606921598169e+00
2.526639606921598169e+00
2.534889858699301168e+00
2.534889858699301168e+00
2.534889858699301168e+00
2.534889858699301168e+00
2.468887844477675397e+00
2.468887844477675397e+00
2.468887844477675397e+00
2.478450636310922661e+00
2.478450636310922661e+00
2.478450636310922661e+00
2.478450636310922661e+00
2.504513931699575480e+00
2.504513931699575480e+00
2.504513931699575480e+00
2.541452558977019383e+00
2.541452558977019383e+00
2.541452558977019383e+00
2.541452558977019383e+00
2.539577501754814115e+00
2.539577501754814115e+00
2.539577501754814115e+00
2.476575579088717394e+00
2.476575579088717394e+00
2.476575579088717394e+00
2.424261482589190386e+00
2.424261482589190386e+00
2.424261482589190386e+00
2.424261482589190386e+00
2.485013336588640875e+00
2.485013336588640875e+00
2.485013336588640875e+00
2.515764275032807085e+00
2.515764275032807085e+00
2.515764275032807085e+00
2.515764275032807085e+00
2.543890133365886541e+00
2.543890133365886541e+00
2.543890133365886541e+00
2.530014709921567295e+00
2.530014709921567295e+00
2.530014709921567295e+00
2.466825281533250092e+00
2.466825281533250092e+00
2.466825281533250092e+00
2.466825281533250092e+00
2.479013153477584552e+00
2.479013153477584552e+00
2.479013153477584552e+00
2.463262672811060039e+00
2.463262672811060039e+00
2.463262672811060039e+00
2.463262672811060039e+00
2.447699697866756008e+00
2.447699697866756008e+00
2.447699697866756008e+00
2.425574022644734207e+00
2.425574022644734207e+00
2.425574022644734207e+00
2.464012695699941968e+00
2.464012695699941968e+00
2.464012695699941968e+00
2.464012695699941968e+00
2.516139286477248493e+00
2.516139286477248493e+00
2.516139286477248493e+00
2.602204412976470316e+00
2.602204412976470316e+00
2.602204412976470316e+00
2.602204412976470316e+00
2.607079561754204189e+00
2.607079561754204189e+00
2.607079561754204189e+00
2.599766838587603157e+00
2.599766838587603157e+00
2.599766838587603157e+00
2.599766838587603157e+00
2.592079103976562049e+00
2.592079103976562049e+00
2.592079103976562049e+00
2.543140110477004168e+00
2.543140110477004168e+00
2.543140110477004168e+00
2.506201483199560265e+00
2.506201483199560265e+00
2.506201483199560265e+00
2.506201483199560265e+00
2.505263954588457853e+00
2.505263954588457853e+00
2.505263954588457853e+00
2.494201116977446731e+00
2.494201116977446731e+00
2.494201116977446731e+00
2.494201116977446731e+00
2.442262031922361132e+00
2.442262031922361132e+00
2.442262031922361132e+00
2.507326517532883603e+00
2.507326517532883603e+00
2.507326517532883603e+00
2.443574571977904952e+00
2.443574571977904952e+00
2.443574571977904952e+00
2.443574571977904952e+00
2.396885647144993747e+00
2.396885647144993747e+00
2.396885647144993747e+00
2.451637318033387469e+00
2.451637318033387469e+00
2.451637318033387469e+00
2.451637318033387469e+00
2.517264320810571387e+00
2.517264320810571387e+00
2.517264320810571387e+00
2.589641529587694890e+00
2.589641529587694890e+00
2.589641529587694890e+00
2.598641804254280263e+00
2.598641804254280263e+00
2.598641804254280263e+00
2.598641804254280263e+00
2.596579241309854513e+00
2.596579241309854513e+00
2.596579241309854513e+00
2.545015167699209435e+00
2.545015167699209435e+00
2.545015167699209435e+00
2.545015167699209435e+00
2.564703268532364966e+00
2.564703268532364966e+00
2.564703268532364966e+00
2.561703176976836804e+00
2.561703176976836804e+00
2.561703176976836804e+00
2.499263771477401086e+00
2.499263771477401086e+00
2.499263771477401086e+00
2.499263771477401086e+00
2.491763542588580016e+00
2.491763542588580016e+00
2.491763542588580016e+00
2.521014435254982367e+00
2.521014435254982367e+00
2.521014435254982367e+00
2.521014435254982367e+00
2.427261574144718992e+00
2.427261574144718992e+00
2.427261574144718992e+00
2.378510086367381593e+00
2.378510086367381593e+00
2.378510086367381593e+00
2.457637501144443792e+00
2.457637501144443792e+00
2.457637501144443792e+00
2.457637501144443792e+00
2.470762901699881109e+00
2.470762901699881109e+00
2.470762901699881109e+00
2.548952787865840897e+00
2.548952787865840897e+00
2.548952787865840897e+00
2.548952787865840897e+00
2.611767204809717136e+00
2.611767204809717136e+00
2.611767204809717136e+00
2.616079836420789118e+00
2.616079836420789118e+00
2.616079836420789118e+00
2.593954161198767316e+00
2.593954161198767316e+00
2.593954161198767316e+00
2.593954161198767316e+00
2.537139927365947845e+00
2.537139927365947845e+00
2.537139927365947845e+00
2.443387066255684470e+00
2.443387066255684470e+00
2.443387066255684470e+00
2.443387066255684470e+00
2.339883907589953349e+00
2.339883907589953349e+00
2.339883907589953349e+00
2.389760429700613198e+00
2.389760429700613198e+00
2.389760429700613198e+00
2.389760429700613198e+00
2.453137363811151772e+00
2.453137363811151772e+00
2.453137363811151772e+00
2.530764732810449669e+00
2.530764732810449669e+00
2.530764732810449669e+00
2.530014709921567295e+00
2.530014709921567295e+00
2.530014709921567295e+00
2.530014709921567295e+00
2.556453016754661967e+00
2.556453016754661967e+00
2.556453016754661967e+00
2.530764732810449669e+00
2.530764732810449669e+00
2.530764732810449669e+00
2.530764732810449669e+00
2.526827112643818651e+00
2.526827112643818651e+00
2.526827112643818651e+00
2.509951597643971244e+00
2.509951597643971244e+00
2.509951597643971244e+00
2.487450910977508034e+00
2.487450910977508034e+00
2.487450910977508034e+00
2.487450910977508034e+00
2.501138828699606353e+00
2.501138828699606353e+00
2.501138828699606353e+00
2.562640705587938772e+00
2.562640705587938772e+00
2.562640705587938772e+00
2.562640705587938772e+00
2.576141117587817053e+00
2.576141117587817053e+00
2.576141117587817053e+00
2.539577501754814115e+00
2.539577501754814115e+00
2.539577501754814115e+00
2.539577501754814115e+00
2.520826929532761884e+00
2.520826929532761884e+00
2.520826929532761884e+00
2.522326975310525743e+00
2.522326975310525743e+00
2.522326975310525743e+00
2.439074434644612044e+00
2.439074434644612044e+00
2.439074434644612044e+00
2.439074434644612044e+00
2.436449354533524403e+00
2.436449354533524403e+00
2.436449354533524403e+00
2.409823541978209693e+00
2.409823541978209693e+00
2.409823541978209693e+00
2.409823541978209693e+00
2.422761436811426083e+00
2.422761436811426083e+00
2.422761436811426083e+00
2.512764183477279367e+00
2.512764183477279367e+00
2.512764183477279367e+00
2.542952604754783685e+00
2.542952604754783685e+00
2.542952604754783685e+00
2.542952604754783685e+00
2.548577776421399932e+00
2.548577776421399932e+00
2.548577776421399932e+00
2.537702444532609292e+00
2.537702444532609292e+00
2.537702444532609292e+00
2.587391460921048658e+00
2.587391460921048658e+00
2.587391460921048658e+00
2.587391460921048658e+00
2.607454573198645154e+00
2.607454573198645154e+00
2.607454573198645154e+00
2.532077272865993045e+00
2.532077272865993045e+00
2.532077272865993045e+00
2.532077272865993045e+00
2.523827021088290046e+00
2.523827021088290046e+00
2.523827021088290046e+00
2.539389996032593633e+00
2.539389996032593633e+00
2.539389996032593633e+00
2.539389996032593633e+00
2.475450544755394056e+00
2.475450544755394056e+00
2.475450544755394056e+00
2.480700704977568893e+00
2.480700704977568893e+00
2.480700704977568893e+00
2.464575212866603859e+00
2.464575212866603859e+00
2.464575212866603859e+00
2.464575212866603859e+00
2.445074617755668811e+00
2.445074617755668811e+00
2.445074617755668811e+00
2.375509994811853431e+00
2.375509994811853431e+00
2.375509994811853431e+00
2.375509994811853431e+00
2.444699606311227846e+00
2.444699606311227846e+00
2.444699606311227846e+00
2.540327524643696488e+00
2.540327524643696488e+00
2.540327524643696488e+00
2.535077364421521651e+00
2.535077364421521651e+00
2.535077364421521651e+00
2.535077364421521651e+00
2.552327890865810023e+00
2.552327890865810023e+00
2.552327890865810023e+00
2.566578325754570233e+00
2.566578325754570233e+00
2.566578325754570233e+00
2.566578325754570233e+00
2.504513931699575480e+00
2.504513931699575480e+00
2.504513931699575480e+00
2.496638691366313889e+00
2.496638691366313889e+00
2.496638691366313889e+00
2.496638691366313889e+00
2.506764000366222156e+00
2.506764000366222156e+00
2.506764000366222156e+00
2.504888943144016888e+00
2.504888943144016888e+00
2.504888943144016888e+00
2.512951689199499850e+00
2.512951689199499850e+00
2.512951689199499850e+00
2.512951689199499850e+00
2.527577135532700581e+00
2.527577135532700581e+00
2.527577135532700581e+00
2.534327341532639721e+00
2.534327341532639721e+00
2.534327341532639721e+00
2.534327341532639721e+00
2.534514847254860204e+00
2.534514847254860204e+00
2.534514847254860204e+00
2.481450727866450823e+00
2.481450727866450823e+00
2.481450727866450823e+00
2.409261024811548246e+00
2.409261024811548246e+00
2.409261024811548246e+00
2.409261024811548246e+00
2.470950407422101591e+00
2.470950407422101591e+00
2.470950407422101591e+00
2.500201300088503942e+00
2.500201300088503942e+00
2.500201300088503942e+00
2.500201300088503942e+00
2.557578051087984861e+00
2.557578051087984861e+00
2.557578051087984861e+00
2.614017273476363368e+00
2.614017273476363368e+00
2.614017273476363368e+00
2.614017273476363368e+00
2.592454115421003014e+00
2.592454115421003014e+00
2.592454115421003014e+00
2.567515854365672645e+00
2.567515854365672645e+00
2.567515854365672645e+00
2.524764549699392902e+00
2.524764549699392902e+00
2.524764549699392902e+00
2.524764549699392902e+00
2.470950407422101591e+00
2.470950407422101591e+00
2.470950407422101591e+00
2.426886562700277583e+00
2.426886562700277583e+00
2.426886562700277583e+00
2.426886562700277583e+00
2.420511368144779851e+00
2.420511368144779851e+00
2.420511368144779851e+00
2.428574114200262368e+00
2.428574114200262368e+00
2.428574114200262368e+00
2.411323587755973996e+00
2.411323587755973996e+00
2.411323587755973996e+00
2.411323587755973996e+00
2.356384411145359792e+00
2.356384411145359792e+00
2.356384411145359792e+00
2.494763634144108178e+00
2.494763634144108178e+00
2.494763634144108178e+00
2.494763634144108178e+00
2.647768303476058183e+00
2.647768303476058183e+00
2.647768303476058183e+00
2.679081759086886283e+00
2.679081759086886283e+00
2.679081759086886283e+00
2.679081759086886283e+00
2.694644734031189870e+00
2.694644734031189870e+00
2.694644734031189870e+00
2.653018463698233020e+00
2.653018463698233020e+00
2.653018463698233020e+00
2.571640980254524589e+00
2.571640980254524589e+00
2.571640980254524589e+00
2.571640980254524589e+00
2.490075991088595231e+00
2.490075991088595231e+00
2.490075991088595231e+00
2.365197180089724238e+00
2.365197180089724238e+00
2.365197180089724238e+00
2.365197180089724238e+00
2.270506790368358452e+00
2.270506790368358452e+00
2.270506790368358452e+00
2.395760612811670409e+00
2.395760612811670409e+00
2.395760612811670409e+00
2.444887112033448329e+00
2.444887112033448329e+00
2.444887112033448329e+00
2.444887112033448329e+00
2.454449903866695148e+00
2.454449903866695148e+00
2.454449903866695148e+00
2.557390545365764378e+00
2.557390545365764378e+00
2.557390545365764378e+00
2.557390545365764378e+00
2.590391552476577264e+00
2.590391552476577264e+00
2.590391552476577264e+00
2.606517044587542742e+00
2.606517044587542742e+00
2.606517044587542742e+00
2.606517044587542742e+00
2.566953337199011198e+00
2.566953337199011198e+00
2.566953337199011198e+00
2.527952146977141545e+00
2.527952146977141545e+00
2.527952146977141545e+00
2.470575395977660182e+00
2.470575395977660182e+00
2.470575395977660182e+00
2.470575395977660182e+00
2.511451643421735547e+00
2.511451643421735547e+00
2.511451643421735547e+00
2.503576403088473068e+00
2.503576403088473068e+00
2.503576403088473068e+00
2.503576403088473068e+00
2.490638508255257122e+00
2.490638508255257122e+00
2.490638508255257122e+00
2.553452925199133361e+00
2.553452925199133361e+00
2.553452925199133361e+00
2.519139378032776655e+00
2.519139378032776655e+00
2.519139378032776655e+00
2.519139378032776655e+00
2.528514664143802992e+00
2.528514664143802992e+00
2.528514664143802992e+00
2.521576952421643814e+00
2.521576952421643814e+00
2.521576952421643814e+00
2.521576952421643814e+00
2.511451643421735547e+00
2.511451643421735547e+00
2.511451643421735547e+00
2.449574755088961275e+00
2.449574755088961275e+00
2.449574755088961275e+00
2.402323313089388623e+00
2.402323313089388623e+00
2.402323313089388623e+00
2.402323313089388623e+00
2.489700979644154266e+00
2.489700979644154266e+00
2.489700979644154266e+00
2.565078279976805931e+00
2.565078279976805931e+00
2.565078279976805931e+00
2.565078279976805931e+00
2.538827478865932186e+00
2.538827478865932186e+00
2.538827478865932186e+00
2.571640980254524589e+00
2.571640980254524589e+00
2.571640980254524589e+00
2.557578051087984861e+00
2.557578051087984861e+00
2.557578051087984861e+00
2.557578051087984861e+00
2.577266151921139947e+00
2.577266151921139947e+00
2.577266151921139947e+00
2.552327890865810023e+00
2.552327890865810023e+00
2.552327890865810023e+00
2.552327890865810023e+00
2.480700704977568893e+00
2.480700704977568893e+00
2.480700704977568893e+00
2.448074709311197417e+00
2.448074709311197417e+00
2.448074709311197417e+00
2.448074709311197417e+00
2.468137821588793912e+00
2.468137821588793912e+00
2.468137821588793912e+00
2.510326609088412209e+00
2.510326609088412209e+00
2.510326609088412209e+00
2.507139011810663121e+00
2.507139011810663121e+00
2.507139011810663121e+00
2.507139011810663121e+00
2.379822626422925413e+00
2.379822626422925413e+00
2.379822626422925413e+00
2.313445600756859122e+00
2.313445600756859122e+00
2.313445600756859122e+00
2.313445600756859122e+00
2.460450086977751916e+00
2.460450086977751916e+00
2.460450086977751916e+00
2.501701345866268245e+00
2.501701345866268245e+00
2.501701345866268245e+00
2.565078279976805931e+00
2.565078279976805931e+00
2.565078279976805931e+00
2.603141941587572727e+00
2.603141941587572727e+00
2.603141941587572727e+00
2.603141941587572727e+00
2.597329264198736443e+00
2.597329264198736443e+00
2.597329264198736443e+00
2.572015991698965554e+00
2.572015991698965554e+00
2.572015991698965554e+00
2.572015991698965554e+00
2.569390911587878357e+00
2.569390911587878357e+00
2.569390911587878357e+00
2.539014984588152668e+00
2.539014984588152668e+00
2.539014984588152668e+00
2.490263496810816157e+00
2.490263496810816157e+00
2.490263496810816157e+00
2.490263496810816157e+00
2.515764275032807085e+00
2.515764275032807085e+00
2.515764275032807085e+00
2.485950865199743731e+00
2.485950865199743731e+00
2.485950865199743731e+00
2.485950865199743731e+00
2.408886013367107282e+00
2.408886013367107282e+00
2.408886013367107282e+00
2.268069215979491737e+00
2.268069215979491737e+00
2.268069215979491737e+00
2.268069215979491737e+00
2.398198187200537124e+00
2.398198187200537124e+00
2.398198187200537124e+00
2.536389904477065471e+00
2.536389904477065471e+00
2.536389904477065471e+00
2.682081850642414445e+00
2.682081850642414445e+00
2.682081850642414445e+00
2.682081850642414445e+00
2.689769585253456441e+00
2.689769585253456441e+00
2.689769585253456441e+00
2.720145512253181685e+00
2.720145512253181685e+00
2.720145512253181685e+00
2.720145512253181685e+00
2.589829035309915373e+00
2.589829035309915373e+00
2.589829035309915373e+00
2.478263130588702179e+00
2.478263130588702179e+00
2.478263130588702179e+00
2.490263496810816157e+00
2.490263496810816157e+00
2.490263496810816157e+00
2.490263496810816157e+00
2.381885189367351607e+00
2.381885189367351607e+00
2.381885189367351607e+00
2.367259743034150432e+00
2.367259743034150432e+00
2.367259743034150432e+00
2.367259743034150432e+00
2.406635944700461049e+00
2.406635944700461049e+00
2.406635944700461049e+00
2.439449446089053009e+00
2.439449446089053009e+00
2.439449446089053009e+00
2.508076540421765976e+00
2.508076540421765976e+00
2.508076540421765976e+00
2.508076540421765976e+00
2.532077272865993045e+00
2.532077272865993045e+00
2.532077272865993045e+00
2.512389172032837958e+00
2.512389172032837958e+00
2.512389172032837958e+00
2.512389172032837958e+00
2.527577135532700581e+00
2.527577135532700581e+00
2.527577135532700581e+00
2.572015991698965554e+00
2.572015991698965554e+00
2.572015991698965554e+00
2.572015991698965554e+00
2.605954527420880851e+00
2.605954527420880851e+00
2.605954527420880851e+00
2.620204962309641061e+00
2.620204962309641061e+00
2.620204962309641061e+00
2.546515213476973738e+00
2.546515213476973738e+00
2.546515213476973738e+00
2.546515213476973738e+00
2.482013245033112270e+00
2.482013245033112270e+00
2.482013245033112270e+00
2.517076815088350905e+00
2.517076815088350905e+00
2.517076815088350905e+00
2.517076815088350905e+00
2.476763084810937876e+00
2.476763084810937876e+00
2.476763084810937876e+00
2.454637409588916075e+00
2.454637409588916075e+00
2.454637409588916075e+00
2.483700796533097499e+00
2.483700796533097499e+00
2.483700796533097499e+00
2.483700796533097499e+00
2.439449446089053009e+00
2.439449446089053009e+00
2.439449446089053009e+00
2.405135898922696747e+00
2.405135898922696747e+00
2.405135898922696747e+00
2.405135898922696747e+00
2.428949125644703777e+00
2.428949125644703777e+00
2.428949125644703777e+00
2.548390270699179450e+00
2.548390270699179450e+00
2.548390270699179450e+00
2.548390270699179450e+00
2.542390087588122238e+00
2.542390087588122238e+00
2.542390087588122238e+00
2.546890224921415147e+00
2.546890224921415147e+00
2.546890224921415147e+00
2.622267525254066367e+00
2.622267525254066367e+00
2.622267525254066367e+00
2.622267525254066367e+00
2.461762627033295736e+00
2.461762627033295736e+00
2.461762627033295736e+00
2.461012604144413807e+00
2.461012604144413807e+00
2.461012604144413807e+00
2.461012604144413807e+00
2.515576769310586602e+00
2.515576769310586602e+00
2.515576769310586602e+00
2.553827936643574326e+00
2.553827936643574326e+00
2.553827936643574326e+00
2.596954252754295922e+00
2.596954252754295922e+00
2.596954252754295922e+00
2.596954252754295922e+00
2.526452101199377687e+00
2.526452101199377687e+00
2.526452101199377687e+00
2.478450636310922661e+00
2.478450636310922661e+00
2.478450636310922661e+00
2.478450636310922661e+00
2.416948759422589799e+00
2.416948759422589799e+00
2.416948759422589799e+00
2.453512375255592737e+00
2.453512375255592737e+00
2.453512375255592737e+00
2.453512375255592737e+00
2.516514297921689458e+00
2.516514297921689458e+00
2.516514297921689458e+00
2.461762627033295736e+00
2.461762627033295736e+00
2.461762627033295736e+00
2.507139011810663121e+00
2.507139011810663121e+00
2.507139011810663121e+00
2.507139011810663121e+00
2.582703817865535711e+00
2.582703817865535711e+00
2.582703817865535711e+00
2.627892696920682614e+00
2.627892696920682614e+00
2.627892696920682614e+00
2.627892696920682614e+00
2.576516129032258018e+00
2.576516129032258018e+00
2.576516129032258018e+00
2.449012237922299828e+00
2.449012237922299828e+00
2.449012237922299828e+00
2.459887569811090469e+00
2.459887569811090469e+00
2.459887569811090469e+00
2.459887569811090469e+00
2.455012421033357040e+00
2.455012421033357040e+00
2.455012421033357040e+00
2.531327249977111116e+00
2.531327249977111116e+00
2.531327249977111116e+00
2.531327249977111116e+00
2.548952787865840897e+00
2.548952787865840897e+00
2.548952787865840897e+00
2.580453749198889035e+00
2.580453749198889035e+00
2.580453749198889035e+00
2.506764000366222156e+00
2.506764000366222156e+00
2.506764000366222156e+00
2.506764000366222156e+00
2.527577135532700581e+00
2.527577135532700581e+00
2.527577135532700581e+00
2.574266060365611786e+00
2.574266060365611786e+00
2.574266060365611786e+00
2.574266060365611786e+00
2.605579515976439886e+00
2.605579515976439886e+00
2.605579515976439886e+00
2.481638233588671305e+00
2.481638233588671305e+00
2.481638233588671305e+00
2.481638233588671305e+00
2.460825098422192880e+00
2.460825098422192880e+00
2.460825098422192880e+00
2.495513657032990551e+00
2.495513657032990551e+00
2.495513657032990551e+00
2.406635944700461049e+00
2.406635944700461049e+00
2.406635944700461049e+00
2.406635944700461049e+00
2.544640156254768470e+00
2.544640156254768470e+00
2.544640156254768470e+00
2.532827295754875419e+00
2.532827295754875419e+00
2.532827295754875419e+00
2.532827295754875419e+00
2.493263588366343875e+00
2.493263588366343875e+00
2.493263588366343875e+00
2.465512741477706271e+00
2.465512741477706271e+00
2.465512741477706271e+00
2.465512741477706271e+00
2.460075075533310951e+00
2.460075075533310951e+00
2.460075075533310951e+00
2.568828394421216466e+00
2.568828394421216466e+00
2.568828394421216466e+00
2.462325144199957183e+00
2.462325144199957183e+00
2.462325144199957183e+00
2.462325144199957183e+00
2.439449446089053009e+00
2.439449446089053009e+00
2.439449446089053009e+00
2.483138279366435608e+00
2.483138279366435608e+00
2.483138279366435608e+00
2.483138279366435608e+00
2.523639515366069563e+00
2.523639515366069563e+00
2.523639515366069563e+00
2.514076723532822744e+00
2.514076723532822744e+00
2.514076723532822744e+00
2.607642078920865636e+00
2.607642078920865636e+00
2.678144230475783871e+00
2.678144230475783871e+00
2.678144230475783871e+00
2.513889217810602261e+00
2.513889217810602261e+00
2.513889217810602261e+00
2.513889217810602261e+00
2.432324228644673347e+00
2.432324228644673347e+00
2.432324228644673347e+00
2.405885921811578676e+00
2.405885921811578676e+00
2.405885921811578676e+00
2.405885921811578676e+00
2.555702993865779593e+00
2.555702993865779593e+00
2.555702993865779593e+00
2.612517227698599065e+00
2.612517227698599065e+00
2.612517227698599065e+00
2.608204596087527527e+00
2.608204596087527527e+00
2.608204596087527527e+00
2.608204596087527527e+00
2.463825189977721486e+00
2.463825189977721486e+00
2.463825189977721486e+00
2.393885555589465142e+00
2.393885555589465142e+00
2.393885555589465142e+00
2.393885555589465142e+00
2.420511368144779851e+00
2.420511368144779851e+00
2.420511368144779851e+00
2.492701071199682428e+00
2.492701071199682428e+00
2.492701071199682428e+00
2.417323770867030763e+00
2.417323770867030763e+00
2.417323770867030763e+00
2.417323770867030763e+00
2.488200933866389963e+00
2.488200933866389963e+00
2.488200933866389963e+00
2.662393749809259358e+00
2.662393749809259358e+00
2.662393749809259358e+00
2.662393749809259358e+00
2.643830683309427609e+00
2.643830683309427609e+00
2.643830683309427609e+00
2.573891048921170377e+00
2.573891048921170377e+00
2.573891048921170377e+00
2.549515305032502344e+00
2.549515305032502344e+00
2.549515305032502344e+00
2.549515305032502344e+00
2.542202581865901756e+00
2.542202581865901756e+00
2.542202581865901756e+00
2.555890499588000075e+00
2.555890499588000075e+00
2.555890499588000075e+00
2.555890499588000075e+00
2.449387249366740793e+00
2.449387249366740793e+00
2.449387249366740793e+00
2.384885280922879769e+00
2.384885280922879769e+00
2.384885280922879769e+00
2.371947386089663379e+00
2.371947386089663379e+00
2.371947386089663379e+00
2.371947386089663379e+00
2.404948393200476264e+00
2.404948393200476264e+00
2.404948393200476264e+00
2.511826654866176511e+00
2.511826654866176511e+00
2.511826654866176511e+00
2.511826654866176511e+00
2.613079744865260956e+00
2.613079744865260956e+00
2.613079744865260956e+00
2.634455397198400828e+00
2.634455397198400828e+00
2.634455397198400828e+00
2.634455397198400828e+00
2.677769219031342907e+00
2.677769219031342907e+00
2.677769219031342907e+00
2.566953337199011198e+00
2.566953337199011198e+00
2.566953337199011198e+00
2.470762901699881109e+00
2.470762901699881109e+00
2.470762901699881109e+00
2.470762901699881109e+00
2.340258919034394314e+00
2.340258919034394314e+00
2.340258919034394314e+00
2.324508438367870244e+00
2.324508438367870244e+00
2.324508438367870244e+00
2.324508438367870244e+00
2.486700888088625661e+00
2.486700888088625661e+00
2.486700888088625661e+00
2.471512924588763038e+00
2.471512924588763038e+00
2.471512924588763038e+00
2.454074892422254184e+00
2.454074892422254184e+00
2.454074892422254184e+00
2.462325144199957183e+00
2.462325144199957183e+00
2.462325144199957183e+00
2.435324320200201509e+00
2.435324320200201509e+00
2.435324320200201509e+00
2.435324320200201509e+00
2.483138279366435608e+00
2.483138279366435608e+00
2.483138279366435608e+00
2.608017090365306601e+00
2.608017090365306601e+00
2.608017090365306601e+00
2.682644367809076336e+00
2.682644367809076336e+00
2.682644367809076336e+00
2.682644367809076336e+00
2.679831781975768212e+00
2.679831781975768212e+00
2.679831781975768212e+00
2.599016815698721228e+00
2.599016815698721228e+00
2.599016815698721228e+00
2.582703817865535711e+00
2.582703817865535711e+00
2.582703817865535711e+00
2.582703817865535711e+00
2.508264046143986459e+00
2.508264046143986459e+00
2.508264046143986459e+00
2.517076815088350905e+00
2.517076815088350905e+00
2.517076815088350905e+00
2.379072603534043484e+00
2.379072603534043484e+00
2.379072603534043484e+00
2.379072603534043484e+00
2.428199102755821404e+00
2.428199102755821404e+00
2.428199102755821404e+00
2.434011780144657688e+00
2.434011780144657688e+00
2.434011780144657688e+00
2.434011780144657688e+00
2.420136356700338887e+00
2.420136356700338887e+00
2.420136356700338887e+00
2.537514938810388809e+00
2.537514938810388809e+00
2.537514938810388809e+00
2.579703726310007106e+00
2.579703726310007106e+00
2.579703726310007106e+00
2.579703726310007106e+00
2.506764000366222156e+00
2.506764000366222156e+00
2.506764000366222156e+00
2.532827295754875419e+00
2.532827295754875419e+00
2.532827295754875419e+00
2.625642628254035937e+00
2.625642628254035937e+00
2.625642628254035937e+00
2.625642628254035937e+00
2.621142490920743473e+00
2.621142490920743473e+00
2.621142490920743473e+00
2.556078005310220558e+00
2.556078005310220558e+00
2.556078005310220558e+00
2.556078005310220558e+00
2.388447889645069822e+00
2.388447889645069822e+00
2.388447889645069822e+00
2.372509903256325270e+00
2.372509903256325270e+00
2.372509903256325270e+00
2.446762169255653596e+00
2.446762169255653596e+00
2.446762169255653596e+00
2.446762169255653596e+00
2.467200292977691056e+00
2.467200292977691056e+00
2.467200292977691056e+00
2.655081026642659214e+00
2.655081026642659214e+00
2.655081026642659214e+00
2.655081026642659214e+00
2.580828760643330444e+00
2.580828760643330444e+00
2.580828760643330444e+00
2.493638599810785283e+00
2.493638599810785283e+00
2.493638599810785283e+00
2.443574571977904952e+00
2.443574571977904952e+00
2.443574571977904952e+00
2.443574571977904952e+00
2.293757499923703591e+00
2.293757499923703591e+00
2.293757499923703591e+00
2.453324869533372254e+00
2.453324869533372254e+00
2.453324869533372254e+00
2.453324869533372254e+00
2.544640156254768470e+00
2.544640156254768470e+00
2.544640156254768470e+00
2.560765648365733949e+00
2.560765648365733949e+00
2.560765648365733949e+00
2.743958738975188716e+00
2.743958738975188716e+00
2.743958738975188716e+00
2.743958738975188716e+00
2.759521713919492303e+00
2.759521713919492303e+00
2.759521713919492303e+00
2.538452467421491221e+00
2.538452467421491221e+00
2.538452467421491221e+00
2.538452467421491221e+00
2.477700613422040732e+00
2.477700613422040732e+00
2.477700613422040732e+00
2.446387157811212187e+00
2.446387157811212187e+00
2.446387157811212187e+00
2.446387157811212187e+00
2.338196356089969008e+00
2.338196356089969008e+00
2.338196356089969008e+00
2.411886104922635443e+00
2.411886104922635443e+00
2.411886104922635443e+00
2.387135349589526001e+00
2.387135349589526001e+00
2.387135349589526001e+00
2.387135349589526001e+00
2.537702444532609292e+00
2.537702444532609292e+00
2.537702444532609292e+00
2.604829493087557513e+00
2.604829493087557513e+00
2.604829493087557513e+00
2.604829493087557513e+00
2.512951689199499850e+00
2.512951689199499850e+00
2.512951689199499850e+00
2.576328623310037536e+00
2.576328623310037536e+00
2.576328623310037536e+00
2.528702169866023475e+00
2.528702169866023475e+00
2.528702169866023475e+00
2.528702169866023475e+00
2.314570635090182460e+00
2.314570635090182460e+00
2.314570635090182460e+00
2.502451368755150174e+00
2.502451368755150174e+00
2.502451368755150174e+00
2.658081118198186932e+00
2.658081118198186932e+00
2.658081118198186932e+00
2.658081118198186932e+00
2.693332193975646049e+00
2.693332193975646049e+00
2.693332193975646049e+00
2.627330179754020723e+00
2.627330179754020723e+00
2.627330179754020723e+00
2.553827936643574326e+00
2.553827936643574326e+00
2.553827936643574326e+00
2.553827936643574326e+00
2.389197912533951751e+00
2.389197912533951751e+00
2.389197912533951751e+00
2.360322031311990809e+00
2.360322031311990809e+00
2.360322031311990809e+00
2.360322031311990809e+00
2.466637775811029609e+00
2.466637775811029609e+00
2.466637775811029609e+00
2.524014526810510528e+00
2.524014526810510528e+00
2.524014526810510528e+00
2.543702627643666059e+00
2.543702627643666059e+00
2.543702627643666059e+00
2.543702627643666059e+00
2.508639057588427423e+00
2.508639057588427423e+00
2.508639057588427423e+00
2.581953794976653338e+00
2.581953794976653338e+00
2.581953794976653338e+00
2.581953794976653338e+00
2.556640522476882449e+00
2.556640522476882449e+00
2.556640522476882449e+00
2.441887020477920167e+00
2.441887020477920167e+00
2.441887020477920167e+00
2.441887020477920167e+00
2.443012054811243061e+00
2.443012054811243061e+00
2.443012054811243061e+00
2.463075167088839557e+00
2.463075167088839557e+00
2.463075167088839557e+00
2.697644825586718476e+00
2.697644825586718476e+00
2.697644825586718476e+00
2.697644825586718476e+00
2.740771141697439628e+00
2.740771141697439628e+00
2.740771141697439628e+00
2.630142765587328846e+00
2.630142765587328846e+00
2.630142765587328846e+00
2.630142765587328846e+00
2.603141941587572727e+00
2.603141941587572727e+00
2.603141941587572727e+00
2.346071596423230599e+00
2.346071596423230599e+00
2.346071596423230599e+00
2.248006103701895242e+00
2.248006103701895242e+00
2.248006103701895242e+00
2.248006103701895242e+00
2.364822168645283273e+00
2.364822168645283273e+00
2.364822168645283273e+00
2.387697866756187448e+00
2.387697866756187448e+00
2.387697866756187448e+00
2.387697866756187448e+00
2.406823450422681532e+00
2.406823450422681532e+00
2.406823450422681532e+00
2.413198644978179264e+00
2.413198644978179264e+00
2.413198644978179264e+00
2.413198644978179264e+00
2.534327341532639721e+00
2.534327341532639721e+00
2.534327341532639721e+00
2.667643910031433752e+00
2.667643910031433752e+00
2.667643910031433752e+00
2.708520157475509116e+00
2.708520157475509116e+00
2.708520157475509116e+00
2.708520157475509116e+00
2.636705465865047060e+00
2.636705465865047060e+00
2.636705465865047060e+00
2.505451460310678335e+00
2.505451460310678335e+00
2.505451460310678335e+00
2.505451460310678335e+00
2.350196722312082542e+00
2.350196722312082542e+00
2.350196722312082542e+00
2.434574297311319135e+00
2.434574297311319135e+00
2.434574297311319135e+00
2.434574297311319135e+00
2.512389172032837958e+00
2.512389172032837958e+00
2.512389172032837958e+00
2.513889217810602261e+00
2.513889217810602261e+00
2.513889217810602261e+00
2.494201116977446731e+00
2.494201116977446731e+00
2.494201116977446731e+00
2.494201116977446731e+00
2.384135258033997840e+00
2.384135258033997840e+00
2.384135258033997840e+00
2.452387340922269399e+00
2.452387340922269399e+00
2.452387340922269399e+00
2.452387340922269399e+00
2.548390270699179450e+00
2.548390270699179450e+00
2.548390270699179450e+00
2.575766106143375644e+00
2.575766106143375644e+00
2.575766106143375644e+00
2.739271095919675325e+00
2.739271095919675325e+00
2.739271095919675325e+00
2.739271095919675325e+00
2.550077822199164235e+00
2.550077822199164235e+00
2.550077822199164235e+00
2.416011230811487387e+00
2.416011230811487387e+00
2.416011230811487387e+00
2.416011230811487387e+00
2.485950865199743731e+00
2.485950865199743731e+00
2.485950865199743731e+00
2.669331461531418537e+00
2.669331461531418537e+00
2.669331461531418537e+00
2.689582079531235959e+00
2.689582079531235959e+00
2.689582079531235959e+00
2.689582079531235959e+00
2.593204138309884943e+00
2.593204138309884943e+00
2.593204138309884943e+00
2.468137821588793912e+00
2.468137821588793912e+00
2.468137821588793912e+00
2.468137821588793912e+00
2.454262398144474666e+00
2.454262398144474666e+00
2.454262398144474666e+00
2.403260841700491479e+00
2.403260841700491479e+00
2.403260841700491479e+00
2.292069948423719250e+00
2.292069948423719250e+00
2.292069948423719250e+00
2.292069948423719250e+00
2.346821619312112972e+00
2.346821619312112972e+00
2.346821619312112972e+00
2.367634754478591397e+00
2.367634754478591397e+00
2.367634754478591397e+00
2.367634754478591397e+00
2.478638142033143144e+00
2.478638142033143144e+00
2.478638142033143144e+00
2.739458601641895807e+00
2.739458601641895807e+00
2.739458601641895807e+00
2.739458601641895807e+00
2.639893063142796148e+00
2.639893063142796148e+00
2.639893063142796148e+00
2.586828943754386767e+00
2.586828943754386767e+00
2.586828943754386767e+00
2.473387981810968306e+00
2.473387981810968306e+00
2.473387981810968306e+00
2.473387981810968306e+00
2.369884823145237629e+00
2.369884823145237629e+00
2.369884823145237629e+00
2.285694753868221074e+00
2.285694753868221074e+00
2.285694753868221074e+00
2.285694753868221074e+00
2.531889767143772563e+00
2.531889767143772563e+00
2.531889767143772563e+00
2.618704916531876759e+00
2.618704916531876759e+00
2.618704916531876759e+00
2.371009857478560967e+00
2.371009857478560967e+00
2.371009857478560967e+00
2.371009857478560967e+00
2.598641804254280263e+00
2.598641804254280263e+00
2.598641804254280263e+00
2.591141575365459193e+00
2.591141575365459193e+00
2.591141575365459193e+00
2.591141575365459193e+00
2.604454481643116548e+00
2.604454481643116548e+00
2.604454481643116548e+00
2.572953520310068409e+00
2.572953520310068409e+00
2.572953520310068409e+00
2.572953520310068409e+00
2.479013153477584552e+00
2.479013153477584552e+00
2.479013153477584552e+00
2.532452284310434454e+00
2.532452284310434454e+00
2.532452284310434454e+00
2.635392925809503240e+00
2.635392925809503240e+00
2.635392925809503240e+00
2.635392925809503240e+00
2.557390545365764378e+00
2.557390545365764378e+00
2.557390545365764378e+00
2.439449446089053009e+00
2.439449446089053009e+00
2.439449446089053009e+00
2.439449446089053009e+00
2.426136539811395654e+00
2.426136539811395654e+00
2.426136539811395654e+00
2.479200659199805035e+00
2.479200659199805035e+00
2.479200659199805035e+00
2.678519241920224836e+00
2.678519241920224836e+00
2.678519241920224836e+00
2.678519241920224836e+00
2.756709128086184180e+00
2.756709128086184180e+00
2.756709128086184180e+00
2.452199835200048916e+00
2.452199835200048916e+00
2.452199835200048916e+00
2.452199835200048916e+00
2.473200476088747823e+00
2.473200476088747823e+00
2.473200476088747823e+00
2.377010040589617734e+00
2.377010040589617734e+00
2.377010040589617734e+00
2.377010040589617734e+00
2.216692648091067142e+00
2.216692648091067142e+00
2.216692648091067142e+00
2.164941068758201581e+00
2.164941068758201581e+00
2.164941068758201581e+00
2.313070589312418157e+00
2.313070589312418157e+00
2.313070589312418157e+00
2.313070589312418157e+00
2.523639515366069563e+00
2.523639515366069563e+00
2.523639515366069563e+00
2.787272560808129906e+00
2.787272560808129906e+00
2.787272560808129906e+00
2.794772789696951421e+00
2.794772789696951421e+00
2.794772789696951421e+00
2.794772789696951421e+00
2.732145878475295220e+00
2.732145878475295220e+00
2.732145878475295220e+00
2.729145786919766614e+00
2.729145786919766614e+00
2.729145786919766614e+00
2.729145786919766614e+00
2.508639057588427423e+00
2.508639057588427423e+00
2.508639057588427423e+00
2.412261116367076408e+00
2.412261116367076408e+00
2.412261116367076408e+00
2.412261116367076408e+00
2.470950407422101591e+00
2.470950407422101591e+00
2.470950407422101591e+00
2.377760063478499664e+00
2.377760063478499664e+00
2.377760063478499664e+00
2.204504776146733125e+00
2.204504776146733125e+00
2.204504776146733125e+00
2.204504776146733125e+00
2.374759971922971058e+00
2.374759971922971058e+00
2.374759971922971058e+00
2.550452833643604755e+00
2.550452833643604755e+00
2.550452833643604755e+00
2.550452833643604755e+00
2.637830500198370398e+00
2.637830500198370398e+00
2.637830500198370398e+00
2.670831507309182840e+00
2.670831507309182840e+00
2.670831507309182840e+00
2.670831507309182840e+00
2.642143131809442824e+00
2.642143131809442824e+00
2.642143131809442824e+00
2.677206701864681015e+00
2.677206701864681015e+00
2.677206701864681015e+00
2.590391552476577264e+00
2.590391552476577264e+00
2.590391552476577264e+00
2.590391552476577264e+00
2.307257911923581428e+00
2.307257911923581428e+00
2.307257911923581428e+00
2.446199652088991705e+00
2.446199652088991705e+00
2.446199652088991705e+00
2.446199652088991705e+00
2.300507705923642732e+00
2.300507705923642732e+00
2.300507705923642732e+00
2.251568712424085295e+00
2.251568712424085295e+00
2.251568712424085295e+00
2.332008667256691314e+00
2.332008667256691314e+00
2.332008667256691314e+00
2.332008667256691314e+00
2.591141575365459193e+00
2.591141575365459193e+00
2.591141575365459193e+00
2.741333658864101075e+00
2.741333658864101075e+00
2.741333658864101075e+00
2.741333658864101075e+00
2.610642170476393797e+00
2.610642170476393797e+00
2.610642170476393797e+00
2.670456495864741875e+00
2.670456495864741875e+00
2.670456495864741875e+00
2.670456495864741875e+00
2.698394848475600405e+00
2.698394848475600405e+00
2.698394848475600405e+00
2.637642994476149916e+00
2.637642994476149916e+00
2.637642994476149916e+00
2.548202764976958523e+00
2.548202764976958523e+00
2.548202764976958523e+00
2.548202764976958523e+00
2.462512649922177665e+00
2.462512649922177665e+00
2.462512649922177665e+00
2.536202398754844989e+00
2.536202398754844989e+00
2.536202398754844989e+00
2.536202398754844989e+00
2.503576403088473068e+00
2.503576403088473068e+00
2.503576403088473068e+00
2.559453108310190128e+00
2.559453108310190128e+00
2.559453108310190128e+00
2.559453108310190128e+00
2.485013336588640875e+00
2.485013336588640875e+00
2.485013336588640875e+00
2.402885830256050514e+00
2.402885830256050514e+00
2.402885830256050514e+00
2.233943174535355514e+00
2.233943174535355514e+00
2.233943174535355514e+00
2.233943174535355514e+00
2.225317911313211550e+00
2.225317911313211550e+00
2.225317911313211550e+00
2.461575121311075254e+00
2.461575121311075254e+00
2.461575121311075254e+00
2.461575121311075254e+00
2.715832880642109259e+00
2.715832880642109259e+00
2.715832880642109259e+00
2.662206244087038876e+00
2.662206244087038876e+00
2.662206244087038876e+00
2.532639790032654936e+00
2.532639790032654936e+00
2.532639790032654936e+00
2.532639790032654936e+00
2.455762443922238969e+00
2.455762443922238969e+00
2.455762443922238969e+00
2.523639515366069563e+00
2.523639515366069563e+00
2.523639515366069563e+00
2.523639515366069563e+00
2.597141758476516404e+00
2.597141758476516404e+00
2.597141758476516404e+00
2.539014984588152668e+00
2.539014984588152668e+00
2.539014984588152668e+00
2.320570818201239227e+00
2.320570818201239227e+00
2.320570818201239227e+00
2.320570818201239227e+00
2.263569078646198829e+00
2.263569078646198829e+00
2.263569078646198829e+00
2.611204687643055244e+00
2.611204687643055244e+00
2.611204687643055244e+00
2.611204687643055244e+00
2.623392559587389705e+00
2.623392559587389705e+00
2.623392559587389705e+00
2.761209265419477088e+00
2.761209265419477088e+00
2.761209265419477088e+00
2.615517319254127671e+00
2.615517319254127671e+00
2.615517319254127671e+00
2.615517319254127671e+00
2.443574571977904952e+00
2.443574571977904952e+00
2.443574571977904952e+00
2.284382213812677254e+00
2.284382213812677254e+00
2.284382213812677254e+00
2.284382213812677254e+00
2.303320291756950855e+00
2.303320291756950855e+00
2.303320291756950855e+00
2.603329447309793654e+00
2.603329447309793654e+00
2.603329447309793654e+00
2.603329447309793654e+00
2.398385692922757606e+00
2.398385692922757606e+00
2.398385692922757606e+00
2.473950498977630197e+00
2.473950498977630197e+00
2.473950498977630197e+00
2.668206427198095643e+00
2.668206427198095643e+00
2.668206427198095643e+00
2.668206427198095643e+00
2.768146977141636711e+00
2.768146977141636711e+00
2.768146977141636711e+00
2.531327249977111116e+00
2.531327249977111116e+00
2.531327249977111116e+00
2.531327249977111116e+00
2.390697958311716054e+00
2.390697958311716054e+00
2.390697958311716054e+00
2.261506515701773079e+00
2.261506515701773079e+00
2.261506515701773079e+00
2.443199560533463544e+00
2.443199560533463544e+00
2.443199560533463544e+00
2.443199560533463544e+00
2.541077547532578418e+00
2.541077547532578418e+00
2.541077547532578418e+00
2.531139744254890633e+00
2.531139744254890633e+00
2.531139744254890633e+00
2.531139744254890633e+00
2.580266243476668553e+00
2.580266243476668553e+00
2.580266243476668553e+00
2.396323129978331856e+00
2.396323129978331856e+00
2.396323129978331856e+00
2.396323129978331856e+00
2.453137363811151772e+00
2.453137363811151772e+00
2.453137363811151772e+00
2.661268715475936020e+00
2.661268715475936020e+00
2.661268715475936020e+00
2.683956907864619712e+00
2.683956907864619712e+00
2.683956907864619712e+00
2.683956907864619712e+00
2.660893704031495055e+00
2.660893704031495055e+00
2.660893704031495055e+00
2.707770134586626742e+00
2.707770134586626742e+00
2.707770134586626742e+00
2.707770134586626742e+00
2.566015808587908342e+00
2.566015808587908342e+00
2.566015808587908342e+00
2.422761436811426083e+00
2.422761436811426083e+00
2.422761436811426083e+00
2.372697408978545752e+00
2.372697408978545752e+00
2.372697408978545752e+00
2.372697408978545752e+00
2.369509811700796664e+00
2.369509811700796664e+00
2.369509811700796664e+00
2.387135349589526001e+00
2.387135349589526001e+00
2.387135349589526001e+00
2.387135349589526001e+00
2.356384411145359792e+00
2.356384411145359792e+00
2.356384411145359792e+00
2.437011871700186294e+00
2.437011871700186294e+00
2.437011871700186294e+00
2.437011871700186294e+00
2.511076631977294138e+00
2.511076631977294138e+00
2.511076631977294138e+00
2.519139378032776655e+00
2.519139378032776655e+00
2.519139378032776655e+00
2.763459334086123320e+00
2.763459334086123320e+00
2.763459334086123320e+00
2.763459334086123320e+00
2.775272194586016372e+00
2.775272194586016372e+00
2.775272194586016372e+00
2.615892330698568635e+00
2.615892330698568635e+00
2.507701528977324568e+00
2.507701528977324568e+00
2.507701528977324568e+00
2.380010132145145896e+00
2.380010132145145896e+00
2.380010132145145896e+00
2.416198736533707869e+00
2.416198736533707869e+00
2.416198736533707869e+00
2.416198736533707869e+00
2.484075807977538464e+00
2.484075807977538464e+00
2.484075807977538464e+00
2.492513565477461945e+00
2.492513565477461945e+00
2.492513565477461945e+00
2.492513565477461945e+00
2.302195257423627517e+00
2.302195257423627517e+00
2.302195257423627517e+00
2.566578325754570233e+00
2.566578325754570233e+00
2.566578325754570233e+00
2.519326883754997581e+00
2.519326883754997581e+00
2.519326883754997581e+00
2.519326883754997581e+00
2.404760887478255782e+00
2.404760887478255782e+00
2.404760887478255782e+00
2.479388164922025517e+00
2.479388164922025517e+00
2.479388164922025517e+00
2.479388164922025517e+00
2.667831415753654234e+00
2.667831415753654234e+00
2.667831415753654234e+00
2.596579241309854513e+00
2.596579241309854513e+00
2.596579241309854513e+00
2.596579241309854513e+00
2.508639057588427423e+00
2.508639057588427423e+00
2.508639057588427423e+00
2.504513931699575480e+00
2.504513931699575480e+00
2.504513931699575480e+00
2.543327616199224650e+00
2.543327616199224650e+00
2.543327616199224650e+00
2.543327616199224650e+00
2.513701712088381779e+00
2.513701712088381779e+00
2.513701712088381779e+00
2.526639606921598169e+00
2.526639606921598169e+00
2.526639606921598169e+00
2.526639606921598169e+00
2.596204229865413549e+00
2.596204229865413549e+00
2.596204229865413549e+00
2.557578051087984861e+00
2.557578051087984861e+00
2.557578051087984861e+00
2.557578051087984861e+00
2.051500106814783120e+00
2.051500106814783120e+00
2.051500106814783120e+00
2.198692098757896396e+00
2.198692098757896396e+00
2.198692098757896396e+00
2.493263588366343875e+00
2.493263588366343875e+00
2.493263588366343875e+00
2.493263588366343875e+00
2.492138554033020981e+00
2.492138554033020981e+00
2.492138554033020981e+00
2.760459242530595159e+00
2.760459242530595159e+00
2.760459242530595159e+00
2.760459242530595159e+00
2.678519241920224836e+00
2.678519241920224836e+00
2.678519241920224836e+00
2.537702444532609292e+00
2.537702444532609292e+00
2.537702444532609292e+00
2.488763451033051854e+00
2.488763451033051854e+00
2.488763451033051854e+00
2.488763451033051854e+00
2.528702169866023475e+00
2.528702169866023475e+00
2.528702169866023475e+00
2.577078646198919465e+00
2.577078646198919465e+00
2.577078646198919465e+00
2.577078646198919465e+00
2.498888760032960121e+00
2.498888760032960121e+00
2.498888760032960121e+00
2.477888119144261214e+00
2.477888119144261214e+00
2.477888119144261214e+00
2.535639881588183542e+00
2.535639881588183542e+00
2.535639881588183542e+00
2.535639881588183542e+00
2.558140568254646752e+00
2.558140568254646752e+00
2.558140568254646752e+00
2.526264595477157204e+00
2.526264595477157204e+00
2.526264595477157204e+00
2.409448530533769173e+00
2.409448530533769173e+00
2.409448530533769173e+00
2.280632099368266719e+00
2.280632099368266719e+00
2.280632099368266719e+00
2.407573473311563461e+00
2.407573473311563461e+00
2.407573473311563461e+00
2.407573473311563461e+00
2.816148442030091292e+00
2.816148442030091292e+00
2.816148442030091292e+00
2.526639606921598169e+00
2.526639606921598169e+00
2.526639606921598169e+00
2.596954252754295922e+00
2.596954252754295922e+00
2.596954252754295922e+00
2.596954252754295922e+00
2.523639515366069563e+00
2.523639515366069563e+00
2.523639515366069563e+00
2.515951780755027567e+00
2.515951780755027567e+00
2.515951780755027567e+00
2.515951780755027567e+00
2.606142033143101333e+00
2.606142033143101333e+00
2.606142033143101333e+00
2.553640430921353843e+00
2.553640430921353843e+00
2.553640430921353843e+00
2.398385692922757606e+00
2.398385692922757606e+00
2.398385692922757606e+00
2.398385692922757606e+00
2.457449995422223310e+00
2.457449995422223310e+00
2.457449995422223310e+00
2.532077272865993045e+00
2.532077272865993045e+00
2.532077272865993045e+00
2.532077272865993045e+00
2.558328073976867234e+00
2.558328073976867234e+00
2.558328073976867234e+00
2.522326975310525743e+00
2.522326975310525743e+00
2.522326975310525743e+00
2.456512466811120898e+00
2.456512466811120898e+00
2.456512466811120898e+00
2.456512466811120898e+00
2.254568803979613900e+00
2.254568803979613900e+00
2.254568803979613900e+00
2.266569170201727434e+00
2.266569170201727434e+00
2.266569170201727434e+00
2.266569170201727434e+00
2.357696951200903612e+00
2.357696951200903612e+00
2.357696951200903612e+00
2.679081759086886283e+00
2.679081759086886283e+00
2.679081759086886283e+00
2.651518417920468718e+00
2.651518417920468718e+00
2.651518417920468718e+00
2.651518417920468718e+00
2.502076357310709209e+00
2.502076357310709209e+00
2.502076357310709209e+00
2.515014252143925599e+00
2.515014252143925599e+00
2.515014252143925599e+00
2.515014252143925599e+00
2.553077913754691952e+00
2.553077913754691952e+00
2.553077913754691952e+00
2.585141392254402426e+00
2.585141392254402426e+00
2.585141392254402426e+00
2.585141392254402426e+00
2.503388897366253030e+00
2.503388897366253030e+00
2.503388897366253030e+00
2.565265785699026413e+00
2.565265785699026413e+00
2.565265785699026413e+00
2.645705740531632433e+00
2.645705740531632433e+00
2.645705740531632433e+00
2.645705740531632433e+00
2.494951139866329104e+00
2.494951139866329104e+00
2.494951139866329104e+00
2.393885555589465142e+00
2.393885555589465142e+00
2.393885555589465142e+00
2.393885555589465142e+00
2.568078371532334536e+00
2.568078371532334536e+00
2.568078371532334536e+00
2.602766930143131763e+00
2.602766930143131763e+00
2.602766930143131763e+00
2.602766930143131763e+00
2.569015900143436948e+00
2.569015900143436948e+00
2.569015900143436948e+00
2.729333292641987541e+00
2.729333292641987541e+00
2.729333292641987541e+00
2.554577959532456255e+00
2.554577959532456255e+00
2.554577959532456255e+00
2.554577959532456255e+00
2.461012604144413807e+00
2.461012604144413807e+00
2.461012604144413807e+00
2.248006103701895242e+00
2.248006103701895242e+00
2.248006103701895242e+00
2.248006103701895242e+00
2.222692831202123909e+00
2.222692831202123909e+00
2.222692831202123909e+00
2.337633838923307117e+00
2.337633838923307117e+00
2.437199377422406776e+00
2.437199377422406776e+00
2.610642170476393797e+00
2.610642170476393797e+00
2.663331278420362214e+00
2.537139927365947845e+00
2.537139927365947845e+00
2.393510544145024177e+00
2.393510544145024177e+00
2.488013428144169481e+00
2.630142765587328846e+00
2.630142765587328846e+00
2.708332651753288634e+00
2.618892422254097241e+00
2.618892422254097241e+00
2.493076082644123392e+00
2.493076082644123392e+00
2.302945280312509890e+00
2.489325968199713301e+00
2.489325968199713301e+00
2.442824549089022579e+00
2.526452101199377687e+00
2.526452101199377687e+00
2.583641346476638123e+00
2.583641346476638123e+00
2.560953154087954431e+00
2.626767662587359276e+00
2.626767662587359276e+00
2.468512833033234433e+00
2.468512833033234433e+00
2.501888851588488727e+00
2.483513290810876573e+00
2.483513290810876573e+00
2.511826654866176511e+00
2.511826654866176511e+00
2.541827570421460791e+00
2.582328806421094747e+00
2.582328806421094747e+00
2.527014618366038690e+00
2.534702352977080686e+00
2.534702352977080686e+00
2.482575762199774161e+00
2.482575762199774161e+00
2.416948759422589799e+00
2.493826105533005766e+00
2.493826105533005766e+00
2.375885006256294396e+00
2.375885006256294396e+00
2.525327066866054349e+00
2.531514755699331598e+00
2.531514755699331598e+00
2.464200201422162451e+00
2.464200201422162451e+00
2.379447614978484449e+00
2.418636310922574584e+00
2.418636310922574584e+00
2.572766014587847927e+00
2.572766014587847927e+00
2.672519058809167625e+00
2.516889309366130423e+00
2.516889309366130423e+00
2.512951689199499850e+00
2.579891232032227588e+00
2.579891232032227588e+00
2.574641071810052750e+00
2.574641071810052750e+00
2.476388073366496911e+00
2.537889950254829774e+00
2.537889950254829774e+00
2.385635303811762142e+00
2.385635303811762142e+00
2.298257637256996500e+00
2.248381115146336207e+00
2.248381115146336207e+00
2.489888485366374749e+00
2.489888485366374749e+00
2.678144230475783871e+00
2.535827387310404024e+00
2.535827387310404024e+00
2.457262489700002828e+00
2.695394756920072243e+00
2.695394756920072243e+00
2.754646565141758430e+00
2.754646565141758430e+00
2.556265511032441040e+00
2.425386516922513280e+00
2.425386516922513280e+00
2.427261574144718992e+00
2.427261574144718992e+00
2.479763176366466482e+00
2.506013977477339782e+00
2.506013977477339782e+00
2.543890133365886541e+00
2.543890133365886541e+00
2.555140476699118146e+00
2.486513382366405178e+00
2.486513382366405178e+00
2.432136722922452865e+00
2.432136722922452865e+00
2.526452101199377687e+00
2.510889126255073656e+00
2.510889126255073656e+00
2.632767845698416043e+00
2.590954069643238711e+00
2.590954069643238711e+00
2.516514297921689458e+00
2.516514297921689458e+00
2.555327982421338628e+00
2.357321939756462204e+00
2.357321939756462204e+00
2.472450453199865894e+00
2.472450453199865894e+00
2.563765739921262110e+00
2.521576952421643814e+00
2.521576952421643814e+00
2.410573564867091623e+00
2.410573564867091623e+00
2.381135166478469234e+00
2.435511825922421991e+00
2.435511825922421991e+00
2.488200933866389963e+00
2.472825464644306859e+00
2.472825464644306859e+00
2.486513382366405178e+00
2.486513382366405178e+00
2.559078096865749163e+00
2.598079287087618372e+00
2.598079287087618372e+00
2.642143131809442824e+00
2.642143131809442824e+00
2.635955442976165131e+00
2.461950132755516218e+00
2.461950132755516218e+00
2.474325510422071162e+00
2.474325510422071162e+00
2.519514389477218064e+00
2.642330637531663307e+00
2.642330637531663307e+00
2.576516129032258018e+00
2.400823267311624321e+00
2.400823267311624321e+00
2.337258827478866152e+00
2.337258827478866152e+00
2.265069124423963132e+00
2.315695669423505798e+00
2.315695669423505798e+00
2.525889584032716240e+00
2.525889584032716240e+00
2.763646839808343803e+00
2.712082766197699168e+00
2.712082766197699168e+00
2.665393841364787963e+00
2.690707113864559297e+00
2.690707113864559297e+00
2.593579149754326352e+00
2.593579149754326352e+00
2.385260292367321178e+00
2.339321390423291458e+00
2.339321390423291458e+00
2.354134342478713116e+00
2.354134342478713116e+00
2.259818964201788294e+00
2.305382854701376161e+00
2.305382854701376161e+00
2.501513840144047762e+00
2.501513840144047762e+00
2.726708212530899900e+00
2.623767571031830670e+00
2.623767571031830670e+00
2.534889858699301168e+00
2.534889858699301168e+00
2.681706839197973480e+00
2.730458326975310435e+00
2.730458326975310435e+00
2.529827204199346813e+00
2.529827204199346813e+00
2.479950682088686964e+00
2.463075167088839557e+00
2.463075167088839557e+00
2.382260200811792572e+00
2.308570451979125249e+00
2.308570451979125249e+00
2.506951506088442638e+00
2.506951506088442638e+00
2.741708670308542040e+00
2.739833613086336772e+00
2.739833613086336772e+00
2.509389080477309353e+00
2.509389080477309353e+00
2.374759971922971058e+00
2.424448988311410869e+00
2.424448988311410869e+00
2.358634479812006024e+00
2.358634479812006024e+00
2.518201849421674243e+00
2.685456953642384015e+00
2.685456953642384015e+00
2.703645008697775243e+00
2.703645008697775243e+00
2.469825373088778253e+00
2.452574846644489881e+00
2.452574846644489881e+00
2.424261482589190386e+00
2.393885555589465142e+00
2.393885555589465142e+00
2.405698416089358194e+00
2.405698416089358194e+00
2.313070589312418157e+00
2.465325235755485789e+00
2.465325235755485789e+00
2.524577043977172419e+00
2.524577043977172419e+00
2.642330637531663307e+00
2.569765923032319321e+00
2.569765923032319321e+00
2.546890224921415147e+00
2.668393932920316125e+00
2.668393932920316125e+00
2.620204962309641061e+00
2.620204962309641061e+00
2.461200109866634289e+00
2.372134891811884305e+00
2.372134891811884305e+00
2.364072145756401344e+00
2.364072145756401344e+00
2.430636677144688562e+00
2.417136265144810281e+00
2.417136265144810281e+00
2.480325693533127485e+00
2.480325693533127485e+00
2.539765007477034597e+00
2.548015259254738041e+00
2.548015259254738041e+00
2.500201300088503942e+00
2.542015076143681274e+00
2.542015076143681274e+00
2.584766380809961461e+00
2.584766380809961461e+00
2.631455305642872666e+00
2.767584459974974820e+00
2.767584459974974820e+00
2.584203863643300014e+00
2.584203863643300014e+00
2.373072420422986717e+00
2.489888485366374749e+00
2.489888485366374749e+00
2.567328348643452163e+00
2.567328348643452163e+00
2.608954618976409012e+00
2.542202581865901756e+00
2.542202581865901756e+00
2.449199743644520311e+00
2.449199743644520311e+00
2.402135807367168141e+00
2.387697866756187448e+00
2.387697866756187448e+00
2.354321848200934042e+00
2.322258369701224012e+00
2.322258369701224012e+00
2.426324045533616136e+00
2.426324045533616136e+00
2.607079561754204189e+00
2.686956999420148318e+00
2.686956999420148318e+00
2.561140659810174913e+00
2.561140659810174913e+00
2.640830591753899004e+00
2.620579973754082026e+00
2.620579973754082026e+00
2.520076906643879511e+00
2.520076906643879511e+00
2.506388988921781191e+00
2.461950132755516218e+00
2.461950132755516218e+00
2.435886837366862956e+00
2.435886837366862956e+00
2.439449446089053009e+00
2.426136539811395654e+00
2.426136539811395654e+00
2.490638508255257122e+00
2.473012970366527341e+00
2.473012970366527341e+00
2.677019196142460533e+00
2.677019196142460533e+00
2.589829035309915373e+00
2.398385692922757606e+00
2.398385692922757606e+00
2.481825739310891787e+00
2.481825739310891787e+00
2.485013336588640875e+00
2.500013794366283459e+00
2.500013794366283459e+00
2.571453474532304107e+00
2.522514481032746669e+00
2.522514481032746669e+00
2.540327524643696488e+00
2.540327524643696488e+00
2.589079012421033443e+00
2.332946195867793726e+00
2.332946195867793726e+00
2.461575121311075254e+00
2.461575121311075254e+00
2.518389355143894726e+00
2.437574388866847741e+00
2.437574388866847741e+00
2.483700796533097499e+00
2.483700796533097499e+00
2.527014618366038690e+00
2.637267983031708951e+00
2.637267983031708951e+00
2.595454206976531619e+00
2.595454206976531619e+00
2.587391460921048658e+00
2.565453291421246895e+00
2.565453291421246895e+00
2.502638874477370656e+00
2.450699789422284613e+00
2.450699789422284613e+00
2.411136082033753514e+00
2.411136082033753514e+00
2.353759331034272151e+00
2.411136082033753514e+00
2.411136082033753514e+00
2.650393383587145824e+00
2.650393383587145824e+00
2.521951963866084778e+00
2.521014435254982367e+00
2.521014435254982367e+00
2.521576952421643814e+00
2.521576952421643814e+00
2.512951689199499850e+00
2.547077730643635629e+00
2.547077730643635629e+00
2.643643177587206683e+00
2.643643177587206683e+00
2.628455214087344061e+00
2.619829950865200097e+00
2.619829950865200097e+00
2.525139561143833866e+00
2.525139561143833866e+00
2.397260658589434712e+00
2.385635303811762142e+00
2.385635303811762142e+00
2.339696401867732423e+00
2.393698049867244659e+00
2.393698049867244659e+00
2.502638874477370656e+00
2.502638874477370656e+00
2.563015717032380181e+00
2.583078829309976676e+00
2.583078829309976676e+00
2.741708670308542040e+00
2.741708670308542040e+00
2.494013611255226248e+00
2.420698873867000778e+00
2.420698873867000778e+00
2.497201208532975336e+00
2.497201208532975336e+00
2.344571550645466296e+00
2.622830042420728258e+00
2.622830042420728258e+00
2.629017731254005508e+00
2.515389263588366120e+00
2.515389263588366120e+00
2.508451551866206941e+00
2.508451551866206941e+00
2.363322122867518971e+00
2.387322855311746483e+00
2.387322855311746483e+00
2.452949858088931290e+00
2.452949858088931290e+00
2.583266335032197158e+00
2.663518784142582696e+00
2.663518784142582696e+00
2.581391277809991891e+00
2.581391277809991891e+00
2.570328440198980768e+00
2.551952879421369058e+00
2.551952879421369058e+00
2.523076998199408116e+00
2.523076998199408116e+00
2.420136356700338887e+00
2.459325052644428578e+00
2.459325052644428578e+00
2.521764458143864296e+00
2.506013977477339782e+00
2.506013977477339782e+00
2.440199468977935382e+00
2.440199468977935382e+00
2.438699423200171079e+00
2.459700064088869986e+00
2.459700064088869986e+00
2.480325693533127485e+00
2.480325693533127485e+00
2.596204229865413549e+00
2.603891964476455101e+00
2.603891964476455101e+00
2.569015900143436948e+00
2.569015900143436948e+00
2.568265877254555019e+00
2.561515671254616322e+00
2.561515671254616322e+00
2.495701162755211033e+00
2.295820062868129341e+00
2.295820062868129341e+00
2.446199652088991705e+00
2.446199652088991705e+00
2.539389996032593633e+00
2.619829950865200097e+00
2.619829950865200097e+00
2.548952787865840897e+00
2.548952787865840897e+00
2.488763451033051854e+00
2.471137913144322074e+00
2.471137913144322074e+00
2.416011230811487387e+00
2.416011230811487387e+00
2.445824640644550740e+00
2.622642536698507332e+00
2.622642536698507332e+00
2.617767387920773903e+00
2.603141941587572727e+00
2.603141941587572727e+00
2.489325968199713301e+00
2.489325968199713301e+00
2.424448988311410869e+00
2.508264046143986459e+00
2.508264046143986459e+00
2.470387890255439700e+00
2.470387890255439700e+00
2.511451643421735547e+00
2.540140018921475562e+00
2.540140018921475562e+00
2.539577501754814115e+00
2.539577501754814115e+00
2.464387707144383377e+00
2.421448896755882263e+00
2.421448896755882263e+00
2.500763817255165389e+00
2.491388531144139051e+00
2.491388531144139051e+00
2.514076723532822744e+00
2.514076723532822744e+00
2.551765373699148576e+00
2.529264687032685366e+00
2.529264687032685366e+00
2.555327982421338628e+00
2.555327982421338628e+00
2.559453108310190128e+00
2.517076815088350905e+00
2.517076815088350905e+00
2.515201757866145638e+00
2.515201757866145638e+00
2.536764915921506436e+00
2.529077181310464884e+00
2.529077181310464884e+00
2.456512466811120898e+00
2.456512466811120898e+00
2.436636860255744885e+00
2.430824182866909045e+00
2.430824182866909045e+00
2.488200933866389963e+00
2.488200933866389963e+00
2.427074068422498510e+00
2.470762901699881109e+00
2.470762901699881109e+00
2.691082125308999817e+00
2.682644367809076336e+00
2.682644367809076336e+00
2.591141575365459193e+00
2.591141575365459193e+00
2.524202032532731454e+00
2.439449446089053009e+00
2.439449446089053009e+00
2.358634479812006024e+00
2.358634479812006024e+00
2.361259559923093665e+00
2.415636219367045978e+00
2.415636219367045978e+00
2.432511734366893830e+00
2.432511734366893830e+00
2.476013061922055947e+00
2.660518692587054090e+00
2.660518692587054090e+00
2.679269264809107209e+00
2.627142674031800240e+00
2.627142674031800240e+00
2.497951231421857266e+00
2.497951231421857266e+00
2.474700521866512126e+00
2.573703543198950339e+00
2.573703543198950339e+00
2.507889034699545494e+00
2.555515488143559111e+00
2.555515488143559111e+00
2.506201483199560265e+00
2.506201483199560265e+00
2.497013702810754854e+00
2.492888576921902910e+00
2.492888576921902910e+00
2.461200109866634289e+00
2.461200109866634289e+00
2.447512192144535526e+00
2.513326700643940814e+00
2.513326700643940814e+00
2.479763176366466482e+00
2.479763176366466482e+00
2.572766014587847927e+00
2.574266060365611786e+00
2.574266060365611786e+00
2.568828394421216466e+00
2.568828394421216466e+00
2.535639881588183542e+00
2.487450910977508034e+00
2.487450910977508034e+00
2.480138187810907002e+00
2.480138187810907002e+00
2.490638508255257122e+00
2.473762993255409270e+00
2.473762993255409270e+00
2.479388164922025517e+00
2.472825464644306859e+00
2.472825464644306859e+00
2.479763176366466482e+00
2.479763176366466482e+00
2.537139927365947845e+00
2.566578325754570233e+00
2.566578325754570233e+00
2.470012878810998735e+00
2.470012878810998735e+00
2.557578051087984861e+00
2.544077639088107023e+00
2.544077639088107023e+00
2.507326517532883603e+00
2.507326517532883603e+00
2.505076448866237371e+00
2.566578325754570233e+00
2.566578325754570233e+00
2.533952330088198757e+00
2.533952330088198757e+00
2.469450361644337288e+00
2.502451368755150174e+00
2.502451368755150174e+00
2.319070772423474924e+00
2.247443586535233351e+00
2.247443586535233351e+00
2.457825006866664719e+00
2.457825006866664719e+00
2.613829767754142885e+00
2.629392742698446916e+00
2.629392742698446916e+00
2.677581713309121980e+00
2.677581713309121980e+00
2.638580523087252327e+00
2.548952787865840897e+00
2.548952787865840897e+00
2.499451277199621568e+00
2.499451277199621568e+00
2.518201849421674243e+00
2.494388622699667213e+00
2.494388622699667213e+00
2.410198553422650658e+00
2.437386883144627259e+00
2.437386883144627259e+00
2.547452742088076594e+00
2.547452742088076594e+00
2.471700430310983521e+00
2.393135532700583212e+00
2.393135532700583212e+00
2.496076174199651998e+00
2.496076174199651998e+00
2.571828485976745071e+00
2.527577135532700581e+00
2.527577135532700581e+00
2.553265419476912879e+00
2.553265419476912879e+00
2.607642078920865636e+00
2.544265144810327506e+00
2.544265144810327506e+00
2.369322305978576182e+00
2.369322305978576182e+00
2.508076540421765976e+00
2.553827936643574326e+00
2.553827936643574326e+00
2.522514481032746669e+00
2.522514481032746669e+00
2.464950224311044824e+00
2.497013702810754854e+00
2.497013702810754854e+00
2.467575304422132465e+00
2.452762352366710363e+00
2.452762352366710363e+00
2.557765556810205343e+00
2.557765556810205343e+00
2.620954985198522547e+00
2.563203222754600663e+00
2.563203222754600663e+00
2.606142033143101333e+00
2.606142033143101333e+00
2.686206976531266388e+00
2.607454573198645154e+00
2.607454573198645154e+00
2.515764275032807085e+00
2.515764275032807085e+00
2.409448530533769173e+00
2.342321481978820064e+00
2.342321481978820064e+00
2.396698141422773265e+00
2.441324503311258276e+00
2.441324503311258276e+00
2.383760246589556875e+00
2.383760246589556875e+00
2.370822351756340485e+00
2.459512558366649504e+00
2.459512558366649504e+00
2.517639332255012796e+00
2.517639332255012796e+00
2.601829401532029351e+00
2.631267799920652184e+00
2.631267799920652184e+00
2.634267891476180345e+00
2.634267891476180345e+00
2.617392376476332938e+00
2.555890499588000075e+00
2.555890499588000075e+00
2.541077547532578418e+00
2.541077547532578418e+00
2.540140018921475562e+00
2.507326517532883603e+00
2.507326517532883603e+00
2.478075624866481697e+00
2.463075167088839557e+00
2.463075167088839557e+00
2.467012787255470574e+00
2.467012787255470574e+00
2.360322031311990809e+00
2.395010589922788480e+00
2.395010589922788480e+00
2.500951322977385871e+00
2.500951322977385871e+00
2.418261299478133619e+00
2.503013885921811621e+00
2.503013885921811621e+00
2.673644093142490963e+00
2.673644093142490963e+00
2.759521713919492303e+00
2.572953520310068409e+00
2.572953520310068409e+00
2.420886379589221260e+00
2.420886379589221260e+00
2.428949125644703777e+00
2.457637501144443792e+00
2.457637501144443792e+00
2.514451734977264152e+00
2.540327524643696488e+00
2.540327524643696488e+00
2.488575945310831372e+00
2.488575945310831372e+00
2.482575762199774161e+00
2.532452284310434454e+00
2.532452284310434454e+00
2.571265968810083624e+00
2.571265968810083624e+00
2.532639790032654936e+00
2.533577318643757348e+00
2.533577318643757348e+00
2.565640797143467378e+00
2.565640797143467378e+00
2.510514114810632691e+00
2.501138828699606353e+00
2.501138828699606353e+00
2.534702352977080686e+00
2.534702352977080686e+00
2.507889034699545494e+00
2.410948576311533031e+00
2.410948576311533031e+00
2.428761619922483295e+00
2.409448530533769173e+00
2.409448530533769173e+00
2.426324045533616136e+00
2.426324045533616136e+00
2.497951231421857266e+00
2.567703360087893572e+00
2.567703360087893572e+00
2.575391094698934680e+00
2.575391094698934680e+00
2.570703451643421733e+00
2.584203863643300014e+00
2.584203863643300014e+00
2.647205786309396736e+00
2.647205786309396736e+00
2.519139378032776655e+00
2.378135074922940628e+00
2.378135074922940628e+00
2.383572740867336393e+00
2.449012237922299828e+00
2.545390179143650844e+00
2.545390179143650844e+00
2.564890774254585448e+00
2.564890774254585448e+00
2.551952879421369058e+00
2.449762260811182202e+00
2.449762260811182202e+00
2.457262489700002828e+00
2.457262489700002828e+00
2.558140568254646752e+00
2.545390179143650844e+00
2.545390179143650844e+00
2.539014984588152668e+00
2.539014984588152668e+00
2.624330088198492561e+00
2.617392376476332938e+00
2.617392376476332938e+00
2.551390362254707167e+00
2.529452192754905848e+00
2.529452192754905848e+00
2.504138920255134515e+00
2.504138920255134515e+00
2.444137089144566399e+00
2.399510727256080500e+00
2.399510727256080500e+00
2.451449812311166987e+00
2.451449812311166987e+00
2.474700521866512126e+00
2.369884823145237629e+00
2.369884823145237629e+00
2.491388531144139051e+00
2.491388531144139051e+00
2.483138279366435608e+00
2.535264870143742133e+00
2.535264870143742133e+00
2.548577776421399932e+00
2.548577776421399932e+00
2.548202764976958523e+00
2.605767021698660368e+00
2.605767021698660368e+00
2.576516129032258018e+00
2.576516129032258018e+00
2.523264503921628599e+00
2.509389080477309353e+00
2.509389080477309353e+00
2.522514481032746669e+00
2.511264137699515064e+00
2.511264137699515064e+00
2.464950224311044824e+00
2.464950224311044824e+00
2.484450819421979428e+00
2.410761070589312105e+00
2.410761070589312105e+00
2.533014801477095901e+00
2.512389172032837958e+00
2.512389172032837958e+00
2.511451643421735547e+00
2.597516769920956925e+00
2.597516769920956925e+00
2.530389721366008260e+00
2.530389721366008260e+00
2.533202307199316383e+00
2.537327433088168327e+00
2.537327433088168327e+00
2.543702627643666059e+00
2.543702627643666059e+00
2.515201757866145638e+00
2.474700521866512126e+00
2.474700521866512126e+00
2.461012604144413807e+00
2.469075350199895880e+00
2.469075350199895880e+00
2.464575212866603859e+00
2.464575212866603859e+00
2.455949949644459451e+00
2.456324961088900860e+00
2.456324961088900860e+00
2.617017365031891973e+00
2.617017365031891973e+00
2.598079287087618372e+00
2.554577959532456255e+00
2.554577959532456255e+00
2.507514023255104085e+00
2.507514023255104085e+00
2.469825373088778253e+00
2.503388897366253030e+00
2.503388897366253030e+00
2.538264961699270739e+00
2.502263863032929692e+00
2.502263863032929692e+00
2.525139561143833866e+00
2.525139561143833866e+00
2.525139561143833866e+00
2.406448438978240567e+00
2.406448438978240567e+00
2.411136082033753514e+00
2.411136082033753514e+00
2.469262855922116806e+00
2.472637958922086376e+00
2.472637958922086376e+00
2.554015442365794808e+00
2.554015442365794808e+00
2.578578691976683768e+00
2.579703726310007106e+00
2.579703726310007106e+00
2.593391644032105425e+00
2.593391644032105425e+00
2.569578417310098839e+00
2.582516312143315229e+00
2.582516312143315229e+00
2.510701620532853173e+00
2.474138004699850679e+00
2.474138004699850679e+00
2.485575853755302767e+00
2.485575853755302767e+00
2.472450453199865894e+00
2.398385692922757606e+00
2.398385692922757606e+00
2.457449995422223310e+00
2.457449995422223310e+00
2.448074709311197417e+00
2.553827936643574326e+00
2.553827936643574326e+00
2.549515305032502344e+00
2.549515305032502344e+00
2.497763725699636783e+00
2.583453840754417641e+00
2.583453840754417641e+00
2.545765190588091809e+00
2.545765190588091809e+00
2.463450178533280521e+00
2.517639332255012796e+00
2.517639332255012796e+00
2.584766380809961461e+00
2.543327616199224650e+00
2.543327616199224650e+00
2.509764091921750762e+00
2.509764091921750762e+00
2.377197546311838217e+00
2.362009582811975594e+00
2.362009582811975594e+00
2.442637043366802097e+00
2.442637043366802097e+00
2.481638233588671305e+00
2.559453108310190128e+00
2.559453108310190128e+00
2.551390362254707167e+00
2.555890499588000075e+00
2.555890499588000075e+00
2.600891872920926495e+00
2.600891872920926495e+00
2.588328989532151070e+00
2.527577135532700581e+00
2.527577135532700581e+00
2.503013885921811621e+00
2.503013885921811621e+00
2.504888943144016888e+00
2.505451460310678335e+00
2.505451460310678335e+00
2.524389538254951937e+00
2.524389538254951937e+00
2.537889950254829774e+00
2.464950224311044824e+00
2.464950224311044824e+00
2.464387707144383377e+00
2.464387707144383377e+00
2.378322580645161111e+00
2.375885006256294396e+00
2.375885006256294396e+00
2.522701986754967152e+00
2.536202398754844989e+00
2.536202398754844989e+00
2.615892330698568635e+00
2.615892330698568635e+00
2.608392101809748009e+00
2.581766289254432856e+00
2.581766289254432856e+00
2.547640247810297076e+00
2.547640247810297076e+00
2.501888851588488727e+00
2.498888760032960121e+00
2.498888760032960121e+00
2.469075350199895880e+00
2.469075350199895880e+00
2.461200109866634289e+00
2.428949125644703777e+00
2.428949125644703777e+00
2.439261940366832526e+00
2.439261940366832526e+00
2.471887936033204003e+00
2.524577043977172419e+00
2.524577043977172419e+00
2.585141392254402426e+00
2.585141392254402426e+00
2.615892330698568635e+00
2.619267433698538206e+00
2.619267433698538206e+00
2.589266518143253926e+00
2.543890133365886541e+00
2.543890133365886541e+00
2.513514206366161297e+00
2.513514206366161297e+00
2.501326334421826836e+00
2.459325052644428578e+00
2.459325052644428578e+00
2.411511093478194478e+00
2.411511093478194478e+00
2.389572923978392716e+00
2.417698782311472172e+00
2.417698782311472172e+00
2.462512649922177665e+00
2.462512649922177665e+00
2.560203131199072502e+00
2.550452833643604755e+00
2.550452833643604755e+00
2.539202490310373150e+00
2.539202490310373150e+00
2.552515396588030505e+00
2.448637226477858864e+00
2.448637226477858864e+00
2.488388439588610446e+00
2.592079103976562049e+00
2.592079103976562049e+00
2.554390453810235773e+00
2.554390453810235773e+00
2.538452467421491221e+00
2.470012878810998735e+00
2.470012878810998735e+00
2.449574755088961275e+00
2.449574755088961275e+00
2.484638325144199911e+00
2.468137821588793912e+00
2.468137821588793912e+00
2.417698782311472172e+00
2.417698782311472172e+00
2.503576403088473068e+00
2.553827936643574326e+00
2.553827936643574326e+00
2.586641438032166285e+00
2.586641438032166285e+00
2.610267159031952833e+00
2.578578691976683768e+00
2.578578691976683768e+00
2.530014709921567295e+00
2.530014709921567295e+00
2.547077730643635629e+00
2.489700979644154266e+00
2.489700979644154266e+00
2.487638416699728516e+00
2.464950224311044824e+00
2.464950224311044824e+00
2.409823541978209693e+00
2.267881710257271255e+00
2.267881710257271255e+00
2.430261665700247153e+00
2.430261665700247153e+00
2.619079927976317723e+00
2.691082125308999817e+00
2.691082125308999817e+00
2.671956541642506178e+00
2.671956541642506178e+00
2.596016724143193066e+00
2.518014343699453761e+00
2.518014343699453761e+00
2.461575121311075254e+00
2.443949583422345917e+00
2.443949583422345917e+00
2.434199285866878171e+00
2.434199285866878171e+00
2.482200750755333196e+00
2.497576219977416301e+00
2.497576219977416301e+00
2.500951322977385871e+00
2.500951322977385871e+00
2.469637867366557771e+00
2.433261757255775315e+00
2.433261757255775315e+00
2.496076174199651998e+00
2.531139744254890633e+00
2.531139744254890633e+00
2.538077455977050256e+00
2.538077455977050256e+00
2.545577684865871326e+00
2.565453291421246895e+00
2.565453291421246895e+00
2.555890499588000075e+00
2.555890499588000075e+00
2.543515121921445576e+00
2.525889584032716240e+00
2.525889584032716240e+00
2.542765099032563203e+00
2.542765099032563203e+00
2.447324686422315043e+00
2.412636127811517817e+00
2.412636127811517817e+00
2.479950682088686964e+00
2.453887386700033701e+00
2.453887386700033701e+00
2.479575670644245999e+00
2.479575670644245999e+00
2.481263222144230340e+00
2.492513565477461945e+00
2.492513565477461945e+00
2.506951506088442638e+00
2.506951506088442638e+00
2.571078463087863142e+00
2.588891506698812961e+00
2.588891506698812961e+00
2.576516129032258018e+00
2.576516129032258018e+00
2.559078096865749163e+00
2.487825922421948999e+00
2.487825922421948999e+00
2.447699697866756008e+00
2.447699697866756008e+00
2.471137913144322074e+00
2.479763176366466482e+00
2.479763176366466482e+00
2.506951506088442638e+00
2.471887936033204003e+00
2.471887936033204003e+00
2.426136539811395654e+00
2.426136539811395654e+00
2.523076998199408116e+00
2.551390362254707167e+00
2.551390362254707167e+00
2.583266335032197158e+00
2.583266335032197158e+00
2.620579973754082026e+00
2.558703085421308199e+00
2.558703085421308199e+00
2.570515945921201251e+00
2.570515945921201251e+00
2.547265236365856111e+00
2.506764000366222156e+00
2.506764000366222156e+00
2.457262489700002828e+00
2.457262489700002828e+00
2.399698232978301426e+00
2.463450178533280521e+00
2.463450178533280521e+00
2.499451277199621568e+00
2.462512649922177665e+00
2.462512649922177665e+00
2.515014252143925599e+00
2.515014252143925599e+00
2.586078920865504838e+00
2.604454481643116548e+00
2.604454481643116548e+00
2.607079561754204189e+00
2.607079561754204189e+00
2.526827112643818651e+00
2.499638782921842051e+00
2.499638782921842051e+00
2.415073702200384531e+00
2.415073702200384531e+00
2.406448438978240567e+00
2.466637775811029609e+00
2.466637775811029609e+00
2.503388897366253030e+00
2.551390362254707167e+00
2.551390362254707167e+00
2.509201574755088870e+00
2.509201574755088870e+00
2.491201025421918569e+00
2.477700613422040732e+00
2.477700613422040732e+00
2.500388805810724424e+00
2.500388805810724424e+00
2.528139652699362028e+00
2.484825830866420393e+00
2.484825830866420393e+00
2.534889858699301168e+00
2.534889858699301168e+00
2.617017365031891973e+00
2.581953794976653338e+00
2.581953794976653338e+00
2.537889950254829774e+00
2.537889950254829774e+00
2.488763451033051854e+00
2.470200384533219218e+00
2.470200384533219218e+00
2.518764366588335690e+00
2.508451551866206941e+00
2.508451551866206941e+00
2.474700521866512126e+00
2.474700521866512126e+00
2.473575487533188788e+00
2.440011963255714900e+00
2.440011963255714900e+00
2.478075624866481697e+00
2.478075624866481697e+00
2.514076723532822744e+00
2.538077455977050256e+00
2.538077455977050256e+00
2.564890774254585448e+00
2.564890774254585448e+00
2.579703726310007106e+00
2.534889858699301168e+00
2.534889858699301168e+00
2.495326151310770069e+00
2.485763359477523249e+00
2.485763359477523249e+00
2.425199011200292798e+00
2.410386059144871140e+00
2.410386059144871140e+00
2.407385967589342979e+00
2.528889675588243957e+00
2.528889675588243957e+00
2.591329081087679675e+00
2.557953062532425825e+00
2.557953062532425825e+00
2.523076998199408116e+00
2.523076998199408116e+00
2.546702719199194664e+00
2.481450727866450823e+00
2.481450727866450823e+00
2.522514481032746669e+00
2.522514481032746669e+00
2.543140110477004168e+00
2.571640980254524589e+00
2.571640980254524589e+00
2.524952055421613384e+00
2.524952055421613384e+00
2.472262947477644968e+00
2.496451185644092963e+00
2.496451185644092963e+00
2.468137821588793912e+00
2.468137821588793912e+00
2.436074343089083438e+00
2.485763359477523249e+00
2.485763359477523249e+00
2.478075624866481697e+00
2.496076174199651998e+00
2.496076174199651998e+00
2.546890224921415147e+00
2.546890224921415147e+00
2.564515762810144484e+00
2.581203772087771409e+00
2.581203772087771409e+00
2.572203497421186036e+00
2.572203497421186036e+00
2.572391003143406518e+00
2.480325693533127485e+00
2.480325693533127485e+00
2.481075716422009858e+00
2.481075716422009858e+00
2.425574022644734207e+00
2.426699056978057101e+00
2.426699056978057101e+00
2.473012970366527341e+00
2.473012970366527341e+00
2.506201483199560265e+00
2.490826013977477604e+00
2.490826013977477604e+00
2.461200109866634289e+00
2.487638416699728516e+00
2.487638416699728516e+00
2.542202581865901756e+00
2.554202948088015290e+00
2.554202948088015290e+00
2.585328897976622908e+00
2.585328897976622908e+00
2.561890682699057287e+00
2.482388256477553679e+00
2.482388256477553679e+00
2.506013977477339782e+00
2.495888668477431516e+00
2.495888668477431516e+00
2.470387890255439700e+00
2.470387890255439700e+00
2.492138554033020981e+00
2.479200659199805035e+00
2.479200659199805035e+00
2.501888851588488727e+00
2.501888851588488727e+00
2.480138187810907002e+00
2.471700430310983521e+00
2.471700430310983521e+00
2.517076815088350905e+00
2.517076815088350905e+00
2.557578051087984861e+00
2.580828760643330444e+00
2.580828760643330444e+00
2.601454390087587942e+00
2.574266060365611786e+00
2.574266060365611786e+00
2.524202032532731454e+00
2.524202032532731454e+00
2.504513931699575480e+00
2.476763084810937876e+00
2.476763084810937876e+00
2.454824915311136557e+00
2.454824915311136557e+00
2.485388348033082284e+00
2.475450544755394056e+00
2.475450544755394056e+00
2.482388256477553679e+00
2.482388256477553679e+00
2.431761711478011456e+00
2.449387249366740793e+00
2.449387249366740793e+00
2.527764641254921063e+00
2.582703817865535711e+00
2.582703817865535711e+00
2.588328989532151070e+00
2.588328989532151070e+00
2.578203680532242803e+00
2.537327433088168327e+00
2.537327433088168327e+00
2.500576311532944906e+00
2.500576311532944906e+00
2.516514297921689458e+00
2.522889492477187634e+00
2.522889492477187634e+00
2.496263679921872480e+00
2.496263679921872480e+00
2.496076174199651998e+00
2.479763176366466482e+00
2.479763176366466482e+00
2.489700979644154266e+00
2.464012695699941968e+00
2.464012695699941968e+00
2.486513382366405178e+00
2.486513382366405178e+00
2.540515030365916971e+00
2.500951322977385871e+00
2.500951322977385871e+00
2.510139103366191726e+00
2.510139103366191726e+00
2.561328165532395840e+00
2.568828394421216466e+00
2.568828394421216466e+00
2.594704184087649246e+00
2.594704184087649246e+00
2.524577043977172419e+00
2.468887844477675397e+00
2.468887844477675397e+00
2.431386700033570492e+00
2.424636494033631351e+00
2.424636494033631351e+00
2.473762993255409270e+00
2.473762993255409270e+00
2.511639149143956029e+00
2.499826288644062977e+00
2.499826288644062977e+00
2.501888851588488727e+00
2.501888851588488727e+00
2.512576677755058441e+00
2.531327249977111116e+00
2.531327249977111116e+00
2.541452558977019383e+00
2.541452558977019383e+00
2.550265327921384717e+00
2.529077181310464884e+00
2.529077181310464884e+00
2.527014618366038690e+00
2.527014618366038690e+00
2.554015442365794808e+00
2.508639057588427423e+00
2.508639057588427423e+00
2.478825647755364070e+00
2.499263771477401086e+00
2.499263771477401086e+00
2.494201116977446731e+00
2.494201116977446731e+00
2.459700064088869986e+00
2.456137455366679934e+00
2.456137455366679934e+00
2.520264412366099993e+00
2.520264412366099993e+00
2.532827295754875419e+00
2.522139469588305261e+00
2.522139469588305261e+00
2.563578234199041628e+00
2.563578234199041628e+00
2.549702810754722826e+00
2.509951597643971244e+00
2.509951597643971244e+00
2.500951322977385871e+00
2.500951322977385871e+00
2.486700888088625661e+00
2.473762993255409270e+00
2.473762993255409270e+00
2.430636677144688562e+00
2.430636677144688562e+00
2.450699789422284613e+00
2.488013428144169481e+00
2.488013428144169481e+00
2.494388622699667213e+00
2.501701345866268245e+00
2.501701345866268245e+00
2.560953154087954431e+00
2.560953154087954431e+00
2.590954069643238711e+00
2.583078829309976676e+00
2.583078829309976676e+00
2.605954527420880851e+00
2.605954527420880851e+00
2.581766289254432856e+00
2.519326883754997581e+00
2.519326883754997581e+00
2.449199743644520311e+00
2.364447157200842309e+00
2.364447157200842309e+00
2.410198553422650658e+00
2.410198553422650658e+00
2.490075991088595231e+00
2.511076631977294138e+00
2.511076631977294138e+00
2.473012970366527341e+00
2.473012970366527341e+00
2.450887295144505096e+00
2.471512924588763038e+00
2.471512924588763038e+00
2.534702352977080686e+00
2.534702352977080686e+00
2.591704092532120640e+00
2.599766838587603157e+00
2.599766838587603157e+00
2.587391460921048658e+00
2.587391460921048658e+00
2.553452925199133361e+00
2.556265511032441040e+00
2.556265511032441040e+00
2.528327158421582510e+00
2.488200933866389963e+00
2.488200933866389963e+00
2.487075899533067069e+00
2.487075899533067069e+00
2.465325235755485789e+00
2.449574755088961275e+00
2.449574755088961275e+00
2.444887112033448329e+00
2.444887112033448329e+00
2.467012787255470574e+00
2.485950865199743731e+00
2.485950865199743731e+00
2.523076998199408116e+00
2.523076998199408116e+00
2.550265327921384717e+00
2.560765648365733949e+00
2.560765648365733949e+00
2.562453199865718290e+00
2.562453199865718290e+00
2.522889492477187634e+00
2.521201940977202849e+00
2.521201940977202849e+00
2.476200567644276429e+00
2.455949949644459451e+00
2.455949949644459451e+00
2.488013428144169481e+00
2.488013428144169481e+00
2.494201116977446731e+00
2.511451643421735547e+00
2.511451643421735547e+00
2.497013702810754854e+00
2.497013702810754854e+00
2.474888027588732609e+00
2.497576219977416301e+00
2.497576219977416301e+00
2.542765099032563203e+00
2.542765099032563203e+00
2.566765831476790716e+00
2.571078463087863142e+00
2.571078463087863142e+00
2.537514938810388809e+00
2.537514938810388809e+00
2.521764458143864296e+00
2.563765739921262110e+00
2.563765739921262110e+00
2.480888210699789376e+00
2.440574480422376347e+00
2.440574480422376347e+00
2.413761162144840711e+00
2.413761162144840711e+00
2.470387890255439700e+00
2.494013611255226248e+00
2.494013611255226248e+00
2.458762535477767130e+00
2.499263771477401086e+00
2.499263771477401086e+00
2.556078005310220558e+00
2.556078005310220558e+00
2.545015167699209435e+00
2.539952513199255080e+00
2.539952513199255080e+00
2.580453749198889035e+00
2.580453749198889035e+00
2.594516678365428763e+00
2.574266060365611786e+00
2.574266060365611786e+00
2.542390087588122238e+00
2.542390087588122238e+00
2.525702078310495757e+00
2.485013336588640875e+00
2.485013336588640875e+00
2.443387066255684470e+00
2.443387066255684470e+00
2.420323862422559369e+00
2.430824182866909045e+00
2.430824182866909045e+00
2.460637592699972398e+00
2.460637592699972398e+00
2.467762810144352947e+00
2.479200659199805035e+00
2.479200659199805035e+00
2.502263863032929692e+00
2.566203314310129269e+00
2.566203314310129269e+00
2.600704367198706013e+00
2.600704367198706013e+00
2.552140385143589540e+00
2.540327524643696488e+00
2.540327524643696488e+00
2.537889950254829774e+00
2.537889950254829774e+00
2.518951872310556173e+00
2.518951872310556173e+00
2.518951872310556173e+00
2.491763542588580016e+00
2.491763542588580016e+00
2.465887752922147680e+00
2.462887661366619074e+00
2.462887661366619074e+00
2.458012512588885201e+00
2.458012512588885201e+00
2.503951414532914033e+00
2.532827295754875419e+00
2.532827295754875419e+00
2.552702902310250987e+00
2.552702902310250987e+00
2.568265877254555019e+00
2.546890224921415147e+00
2.546890224921415147e+00
2.512014160588396994e+00
2.498701254310739639e+00
2.498701254310739639e+00
2.507139011810663121e+00
2.507139011810663121e+00
2.504513931699575480e+00
2.493076082644123392e+00
2.493076082644123392e+00
2.466450270088809127e+00
2.466450270088809127e+00
2.461762627033295736e+00
2.427636585589159957e+00
2.427636585589159957e+00
2.455574938200018487e+00
2.455574938200018487e+00
2.535264870143742133e+00
2.587203955198828176e+00
2.587203955198828176e+00
2.592454115421003014e+00
2.592454115421003014e+00
2.578203680532242803e+00
2.545577684865871326e+00
2.545577684865871326e+00
2.503013885921811621e+00
2.475263039033173573e+00
2.475263039033173573e+00
2.429699148533585706e+00
2.429699148533585706e+00
2.484075807977538464e+00
2.481450727866450823e+00
2.481450727866450823e+00
2.479388164922025517e+00
2.479388164922025517e+00
2.504326425977354997e+00
2.480138187810907002e+00
2.480138187810907002e+00
2.498701254310739639e+00
2.498701254310739639e+00
2.531889767143772563e+00
2.539202490310373150e+00
2.539202490310373150e+00
2.578578691976683768e+00
2.578578691976683768e+00
2.580266243476668553e+00
2.553827936643574326e+00
2.553827936643574326e+00
2.537139927365947845e+00
2.537139927365947845e+00
2.528702169866023475e+00
2.515764275032807085e+00
2.515764275032807085e+00
2.508826563310647906e+00
2.484450819421979428e+00
2.484450819421979428e+00
2.451824823755607952e+00
2.451824823755607952e+00
2.436824365977965812e+00
2.435886837366862956e+00
2.435886837366862956e+00
2.476013061922055947e+00
2.476013061922055947e+00
2.475450544755394056e+00
2.521389446699423331e+00
2.521389446699423331e+00
2.617204870754112456e+00
2.603891964476455101e+00
2.603891964476455101e+00
2.575578600421155162e+00
2.575578600421155162e+00
2.536577410199285953e+00
2.516701803643909940e+00
2.516701803643909940e+00
2.507889034699545494e+00
2.507889034699545494e+00
2.467200292977691056e+00
2.420136356700338887e+00
2.420136356700338887e+00
2.398385692922757606e+00
2.398385692922757606e+00
2.365009674367503756e+00
2.422948942533646566e+00
2.422948942533646566e+00
2.546702719199194664e+00
2.570140934476760286e+00
2.570140934476760286e+00
2.583266335032197158e+00
2.583266335032197158e+00
2.613267250587481438e+00
2.586266426587725320e+00
2.586266426587725320e+00
2.547077730643635629e+00
2.547077730643635629e+00
2.508264046143986459e+00
2.481638233588671305e+00
2.481638233588671305e+00
2.506576494644001674e+00
2.506576494644001674e+00
2.489138462477492819e+00
2.479200659199805035e+00
2.479200659199805035e+00
2.457262489700002828e+00
2.457262489700002828e+00
2.440386974700155864e+00
2.463450178533280521e+00
2.463450178533280521e+00
2.520451918088320475e+00
2.520451918088320475e+00
2.512389172032837958e+00
2.534702352977080686e+00
2.534702352977080686e+00
2.591141575365459193e+00
2.596954252754295922e+00
2.596954252754295922e+00
2.527389629810480098e+00
2.527389629810480098e+00
2.485950865199743731e+00
2.500576311532944906e+00
2.500576311532944906e+00
2.512014160588396994e+00
2.512014160588396994e+00
2.490263496810816157e+00
2.473762993255409270e+00
2.473762993255409270e+00
2.450137272255623166e+00
2.450137272255623166e+00
2.455012421033357040e+00
2.470200384533219218e+00
2.470200384533219218e+00
2.526452101199377687e+00
2.580828760643330444e+00
2.580828760643330444e+00
2.609517136143070459e+00
2.609517136143070459e+00
2.595829218420972584e+00
2.547452742088076594e+00
2.547452742088076594e+00
2.533577318643757348e+00
2.533577318643757348e+00
2.513701712088381779e+00
2.495888668477431516e+00
2.495888668477431516e+00
2.468512833033234433e+00
2.468512833033234433e+00
2.465512741477706271e+00
2.450512283700064131e+00
2.450512283700064131e+00
2.419948850978118404e+00
2.419948850978118404e+00
2.435324320200201509e+00
2.468325327311013950e+00
2.468325327311013950e+00
2.521389446699423331e+00
2.538452467421491221e+00
2.538452467421491221e+00
2.549702810754722826e+00
2.549702810754722826e+00
2.552515396588030505e+00
2.527577135532700581e+00
2.527577135532700581e+00
2.528702169866023475e+00
2.528702169866023475e+00
2.510889126255073656e+00
2.486888393810846587e+00
2.486888393810846587e+00
2.481263222144230340e+00
2.481263222144230340e+00
2.492138554033020981e+00
2.468137821588793912e+00
2.468137821588793912e+00
2.467012787255470574e+00
2.480513199255348411e+00
2.480513199255348411e+00
2.520826929532761884e+00
2.520826929532761884e+00
2.535827387310404024e+00
2.555515488143559111e+00
2.555515488143559111e+00
2.577266151921139947e+00
2.577266151921139947e+00
2.549327799310281861e+00
2.533952330088198757e+00
2.533952330088198757e+00
2.515764275032807085e+00
2.515764275032807085e+00
2.472450453199865894e+00
2.496638691366313889e+00
2.496638691366313889e+00
2.499826288644062977e+00
2.497201208532975336e+00
2.497201208532975336e+00
2.513701712088381779e+00
2.513701712088381779e+00
2.453699880977813219e+00
2.446762169255653596e+00
2.446762169255653596e+00
2.537139927365947845e+00
2.537139927365947845e+00
2.584766380809961461e+00
2.556265511032441040e+00
2.556265511032441040e+00
2.515951780755027567e+00
2.515951780755027567e+00
2.507139011810663121e+00
2.506388988921781191e+00
2.506388988921781191e+00
2.520826929532761884e+00
2.514639240699484635e+00
2.514639240699484635e+00
2.470200384533219218e+00
2.470200384533219218e+00
2.440949491866817311e+00
2.453887386700033701e+00
2.453887386700033701e+00
2.458200018311105683e+00
2.458200018311105683e+00
2.474138004699850679e+00
2.517076815088350905e+00
2.517076815088350905e+00
2.550452833643604755e+00
2.550452833643604755e+00
2.562828211310159254e+00
2.571265968810083624e+00
2.571265968810083624e+00
2.555140476699118146e+00
2.550077822199164235e+00
2.550077822199164235e+00
2.528139652699362028e+00
2.528139652699362028e+00
2.490263496810816157e+00
2.485388348033082284e+00
2.485388348033082284e+00
2.471700430310983521e+00
2.471700430310983521e+00
2.467012787255470574e+00
2.458387524033326166e+00
2.458387524033326166e+00
2.459887569811090469e+00
2.459887569811090469e+00
2.450699789422284613e+00
2.478450636310922661e+00
2.478450636310922661e+00
2.535452375865963059e+00
2.535452375865963059e+00
2.553077913754691952e+00
2.545577684865871326e+00
2.545577684865871326e+00
2.544452650532547988e+00
2.544452650532547988e+00
2.526827112643818651e+00
2.530577227088229186e+00
2.530577227088229186e+00
2.501513840144047762e+00
2.509201574755088870e+00
2.509201574755088870e+00
2.505638966032898818e+00
2.505638966032898818e+00
2.466825281533250092e+00
2.477888119144261214e+00
2.477888119144261214e+00
2.483888302255317981e+00
2.483888302255317981e+00
2.500201300088503942e+00
2.536764915921506436e+00
2.536764915921506436e+00
2.537889950254829774e+00
2.537889950254829774e+00
2.519139378032776655e+00
2.535452375865963059e+00
2.535452375865963059e+00
2.552515396588030505e+00
2.552515396588030505e+00
2.527577135532700581e+00
2.512951689199499850e+00
2.512951689199499850e+00
2.514451734977264152e+00
2.514451734977264152e+00
2.519514389477218064e+00
2.499263771477401086e+00
2.499263771477401086e+00
2.484638325144199911e+00
2.461762627033295736e+00
2.461762627033295736e+00
2.462887661366619074e+00
2.462887661366619074e+00
2.505638966032898818e+00
2.537889950254829774e+00
2.537889950254829774e+00
2.503013885921811621e+00
2.503013885921811621e+00
2.530764732810449669e+00
2.534139835810419239e+00
2.534139835810419239e+00
2.520639423810540958e+00
2.510326609088412209e+00
2.510326609088412209e+00
2.518576860866115208e+00
2.518576860866115208e+00
2.535077364421521651e+00
2.528327158421582510e+00
2.528327158421582510e+00
2.503013885921811621e+00
2.503013885921811621e+00
2.485013336588640875e+00
2.445074617755668811e+00
2.445074617755668811e+00
2.410573564867091623e+00
2.410573564867091623e+00
2.451637318033387469e+00
2.477325601977599767e+00
2.477325601977599767e+00
2.512201666310617476e+00
2.512201666310617476e+00
2.583078829309976676e+00
2.602391918698690798e+00
2.602391918698690798e+00
2.598641804254280263e+00
2.542952604754783685e+00
2.542952604754783685e+00
2.486138370921964214e+00
2.486138370921964214e+00
2.456887478255561863e+00
2.485950865199743731e+00
2.485950865199743731e+00
2.473575487533188788e+00
2.473575487533188788e+00
2.471137913144322074e+00
2.468137821588793912e+00
2.468137821588793912e+00
2.478638142033143144e+00
2.478638142033143144e+00
2.533764824365978274e+00
2.540890041810357936e+00
2.540890041810357936e+00
2.563578234199041628e+00
2.563578234199041628e+00
2.597141758476516404e+00
2.572203497421186036e+00
2.572203497421186036e+00
2.526452101199377687e+00
2.525889584032716240e+00
2.525889584032716240e+00
2.482763267921994643e+00
2.482763267921994643e+00
2.479200659199805035e+00
2.465887752922147680e+00
2.465887752922147680e+00
2.434761803033539618e+00
2.434761803033539618e+00
2.462325144199957183e+00
2.455949949644459451e+00
2.455949949644459451e+00
2.489513473921933784e+00
2.542952604754783685e+00
2.542952604754783685e+00
2.547077730643635629e+00
2.547077730643635629e+00
2.587578966643269140e+00
2.573141026032288892e+00
2.573141026032288892e+00
2.535452375865963059e+00
2.535452375865963059e+00
2.501888851588488727e+00
2.466637775811029609e+00
2.466637775811029609e+00
2.480888210699789376e+00
2.480888210699789376e+00
2.482388256477553679e+00
2.468512833033234433e+00
2.468512833033234433e+00
2.470200384533219218e+00
2.470200384533219218e+00
2.467575304422132465e+00
2.444512100589007364e+00
2.444512100589007364e+00
2.508826563310647906e+00
2.508826563310647906e+00
2.552515396588030505e+00
2.563015717032380181e+00
2.563015717032380181e+00
2.582516312143315229e+00
2.573891048921170377e+00
2.573891048921170377e+00
2.545952696310312291e+00
2.545952696310312291e+00
2.517826837977233279e+00
2.493638599810785283e+00
2.493638599810785283e+00
2.462887661366619074e+00
2.462887661366619074e+00
2.451637318033387469e+00
2.445262123477889293e+00
2.445262123477889293e+00
2.463075167088839557e+00
2.463075167088839557e+00
2.440574480422376347e+00
2.456887478255561863e+00
2.456887478255561863e+00
2.524202032532731454e+00
2.539952513199255080e+00
2.539952513199255080e+00
2.530389721366008260e+00
2.530389721366008260e+00
2.572203497421186036e+00
2.561140659810174913e+00
2.561140659810174913e+00
2.562828211310159254e+00
2.562828211310159254e+00
2.565265785699026413e+00
2.528702169866023475e+00
2.528702169866023475e+00
2.522889492477187634e+00
2.484075807977538464e+00
2.484075807977538464e+00
2.440011963255714900e+00
2.440011963255714900e+00
2.472075441755424485e+00
2.455199926755577522e+00
2.455199926755577522e+00
2.450887295144505096e+00
2.450887295144505096e+00
2.490451002533036640e+00
2.533764824365978274e+00
2.533764824365978274e+00
2.586266426587725320e+00
2.586266426587725320e+00
2.598454298532059781e+00
2.551765373699148576e+00
2.551765373699148576e+00
2.499826288644062977e+00
2.480888210699789376e+00
2.480888210699789376e+00
2.467387798699911539e+00
2.467387798699911539e+00
2.474888027588732609e+00
2.479200659199805035e+00
2.479200659199805035e+00
2.479013153477584552e+00
2.479013153477584552e+00
2.457074983977782345e+00
2.456887478255561863e+00
2.456887478255561863e+00
2.502638874477370656e+00
2.502638874477370656e+00
2.561140659810174913e+00
2.564890774254585448e+00
2.564890774254585448e+00
2.584016357921079532e+00
2.584016357921079532e+00
2.592454115421003014e+00
2.564515762810144484e+00
2.564515762810144484e+00
2.536389904477065471e+00
2.504513931699575480e+00
2.504513931699575480e+00
2.470762901699881109e+00
2.470762901699881109e+00
2.466450270088809127e+00
2.472075441755424485e+00
2.472075441755424485e+00
2.472075441755424485e+00
2.472075441755424485e+00
2.457262489700002828e+00
2.460075075533310951e+00
2.460075075533310951e+00
2.506951506088442638e+00
2.506951506088442638e+00
2.507889034699545494e+00
2.533577318643757348e+00
2.533577318643757348e+00
2.581391277809991891e+00
2.581391277809991891e+00
2.580078737754448071e+00
2.525327066866054349e+00
2.525327066866054349e+00
2.496076174199651998e+00
2.473387981810968306e+00
2.473387981810968306e+00
2.476950590533158358e+00
2.476950590533158358e+00
2.489888485366374749e+00
2.469637867366557771e+00
2.469637867366557771e+00
2.461950132755516218e+00
2.451074800866725578e+00
2.487450910977508034e+00
2.487450910977508034e+00
2.519139378032776655e+00
2.519139378032776655e+00
2.529639698477126331e+00
2.557953062532425825e+00
2.557953062532425825e+00
2.596016724143193066e+00
2.596016724143193066e+00
2.565828302865687860e+00
2.537139927365947845e+00
2.537139927365947845e+00
2.530389721366008260e+00
2.530389721366008260e+00
2.504513931699575480e+00
2.508076540421765976e+00
2.508076540421765976e+00
2.486138370921964214e+00
2.464012695699941968e+00
2.464012695699941968e+00
2.442074526200140649e+00
2.442074526200140649e+00
2.427074068422498510e+00
2.457074983977782345e+00
2.457074983977782345e+00
2.504326425977354997e+00
2.504326425977354997e+00
2.521576952421643814e+00
2.545015167699209435e+00
2.545015167699209435e+00
2.572766014587847927e+00
2.572766014587847927e+00
2.558328073976867234e+00
2.527014618366038690e+00
2.527014618366038690e+00
2.506201483199560265e+00
2.506201483199560265e+00
2.514639240699484635e+00
2.512389172032837958e+00
2.512389172032837958e+00
2.484450819421979428e+00
2.482388256477553679e+00
2.482388256477553679e+00
2.468512833033234433e+00
2.468512833033234433e+00
2.446199652088991705e+00
2.478075624866481697e+00
2.478075624866481697e+00
2.514451734977264152e+00
2.514451734977264152e+00
2.542202581865901756e+00
2.582891323587756194e+00
2.582891323587756194e+00
2.581203772087771409e+00
2.548015259254738041e+00
2.548015259254738041e+00
2.522514481032746669e+00
2.503951414532914033e+00
2.503951414532914033e+00
2.503013885921811621e+00
2.503013885921811621e+00
2.481263222144230340e+00
2.458575029755546648e+00
2.458575029755546648e+00
2.438136906033509188e+00
2.438136906033509188e+00
2.436636860255744885e+00
2.462325144199957183e+00
2.462325144199957183e+00
2.535264870143742133e+00
2.535264870143742133e+00
2.548952787865840897e+00
2.551577867976928093e+00
2.551577867976928093e+00
2.574641071810052750e+00
2.560953154087954431e+00
2.560953154087954431e+00
2.529452192754905848e+00
2.529452192754905848e+00
2.519326883754997581e+00
2.516701803643909940e+00
2.516701803643909940e+00
2.501888851588488727e+00
2.501888851588488727e+00
2.489700979644154266e+00
2.467575304422132465e+00
2.467575304422132465e+00
2.449199743644520311e+00
2.439824457533493973e+00
2.439824457533493973e+00
2.445824640644550740e+00
2.445824640644550740e+00
2.497951231421857266e+00
2.547452742088076594e+00
2.547452742088076594e+00
2.584016357921079532e+00
2.584016357921079532e+00
2.587391460921048658e+00
2.547827753532517558e+00
2.547827753532517558e+00
2.508451551866206941e+00
2.508451551866206941e+00
2.501701345866268245e+00
2.494388622699667213e+00
2.494388622699667213e+00
2.513326700643940814e+00
2.493076082644123392e+00
2.493076082644123392e+00
2.482763267921994643e+00
2.482763267921994643e+00
2.472075441755424485e+00
2.458950041199987613e+00
2.458950041199987613e+00
2.486513382366405178e+00
2.486513382366405178e+00
2.526639606921598169e+00
2.534514847254860204e+00
2.534514847254860204e+00
2.567515854365672645e+00
2.567515854365672645e+00
2.556453016754661967e+00
2.527014618366038690e+00
2.527014618366038690e+00
2.510514114810632691e+00
2.510514114810632691e+00
2.496076174199651998e+00
2.477513107699820250e+00
2.477513107699820250e+00
2.455574938200018487e+00
2.471325418866542556e+00
2.471325418866542556e+00
2.484075807977538464e+00
2.484075807977538464e+00
2.480138187810907002e+00
2.463825189977721486e+00
2.463825189977721486e+00
2.503763908810693550e+00
2.537139927365947845e+00
2.537139927365947845e+00
2.561703176976836804e+00
2.561703176976836804e+00
2.582703817865535711e+00
2.558703085421308199e+00
2.558703085421308199e+00
2.529827204199346813e+00
2.529827204199346813e+00
2.524014526810510528e+00
2.496638691366313889e+00
2.496638691366313889e+00
2.486700888088625661e+00
2.486700888088625661e+00
2.487638416699728516e+00
2.462325144199957183e+00
2.462325144199957183e+00
2.470387890255439700e+00
2.470387890255439700e+00
2.453324869533372254e+00
2.479763176366466482e+00
2.479763176366466482e+00
2.547452742088076594e+00
2.547452742088076594e+00
2.547640247810297076e+00
2.537327433088168327e+00
2.537327433088168327e+00
2.545952696310312291e+00
2.529639698477126331e+00
2.529639698477126331e+00
2.508076540421765976e+00
2.508076540421765976e+00
2.500013794366283459e+00
2.486700888088625661e+00
2.486700888088625661e+00
2.515951780755027567e+00
2.515951780755027567e+00
2.489325968199713301e+00
2.481825739310891787e+00
2.481825739310891787e+00
2.457825006866664719e+00
2.457825006866664719e+00
2.448637226477858864e+00
2.464950224311044824e+00
2.464950224311044824e+00
2.509951597643971244e+00
2.509951597643971244e+00
2.538639973143711703e+00
2.579516220587786623e+00
2.579516220587786623e+00
2.581016266365550926e+00
2.545577684865871326e+00
2.545577684865871326e+00
2.514076723532822744e+00
2.514076723532822744e+00
2.501326334421826836e+00
2.496076174199651998e+00
2.496076174199651998e+00
2.500763817255165389e+00
2.500763817255165389e+00
2.490826013977477604e+00
2.493263588366343875e+00
2.493263588366343875e+00
2.488013428144169481e+00
2.488013428144169481e+00
2.465887752922147680e+00
2.481263222144230340e+00
2.481263222144230340e+00
2.519139378032776655e+00
2.519139378032776655e+00
2.545390179143650844e+00
2.581391277809991891e+00
2.581391277809991891e+00
2.577078646198919465e+00
2.537327433088168327e+00
2.537327433088168327e+00
2.508451551866206941e+00
2.508451551866206941e+00
2.491013519699698087e+00
2.483888302255317981e+00
2.483888302255317981e+00
2.489138462477492819e+00
2.489138462477492819e+00
2.475825556199835464e+00
2.479200659199805035e+00
2.479200659199805035e+00
2.456887478255561863e+00
2.456887478255561863e+00
2.448824732200079346e+00
2.494951139866329104e+00
2.494951139866329104e+00
2.538264961699270739e+00
2.546890224921415147e+00
2.546890224921415147e+00
2.557390545365764378e+00
2.557390545365764378e+00
2.536202398754844989e+00
2.513326700643940814e+00
2.513326700643940814e+00
2.503576403088473068e+00
2.503576403088473068e+00
2.489513473921933784e+00
2.490075991088595231e+00
2.490075991088595231e+00
2.488575945310831372e+00
2.488575945310831372e+00
2.475263039033173573e+00
2.470387890255439700e+00
2.470387890255439700e+00
2.438886928922391562e+00
2.438886928922391562e+00
2.474700521866512126e+00
2.531889767143772563e+00
2.531889767143772563e+00
2.545015167699209435e+00
