2.519701895199438546e+00
2.519701895199438546e+00
2.519701895199438546e+00
2.525702078310495757e+00
2.525702078310495757e+00
2.525702078310495757e+00
2.465887752922147680e+00
2.465887752922147680e+00
2.465887752922147680e+00
2.465887752922147680e+00
2.426699056978057101e+00
2.426699056978057101e+00
2.426699056978057101e+00
2.443012054811243061e+00
2.443012054811243061e+00
2.443012054811243061e+00
2.443012054811243061e+00
2.486325876644184696e+00
2.486325876644184696e+00
2.486325876644184696e+00
2.501513840144047762e+00
2.501513840144047762e+00
2.501513840144047762e+00
2.501513840144047762e+00
2.563015717032380181e+00
2.563015717032380181e+00
2.563015717032380181e+00
2.589641529587694890e+00
2.589641529587694890e+00
2.589641529587694890e+00
2.549702810754722826e+00
2.549702810754722826e+00
2.549702810754722826e+00
2.549702810754722826e+00
2.537514938810388809e+00
2.537514938810388809e+00
2.537514938810388809e+00
2.524014526810510528e+00
2.524014526810510528e+00
2.524014526810510528e+00
2.524014526810510528e+00
2.501513840144047762e+00
2.501513840144047762e+00
2.501513840144047762e+00
2.498138737144077748e+00
2.498138737144077748e+00
2.498138737144077748e+00
2.498138737144077748e+00
2.477513107699820250e+00
2.477513107699820250e+00
2.477513107699820250e+00
2.482388256477553679e+00
2.482388256477553679e+00
2.482388256477553679e+00
2.461012604144413807e+00
2.461012604144413807e+00
2.461012604144413807e+00
2.461012604144413807e+00
2.494951139866329104e+00
2.494951139866329104e+00
2.494951139866329104e+00
2.540702536088137453e+00
2.540702536088137453e+00
2.540702536088137453e+00
2.540702536088137453e+00
2.513139194921720332e+00
2.513139194921720332e+00
2.513139194921720332e+00
2.499076265755180604e+00
2.499076265755180604e+00
2.499076265755180604e+00
2.499076265755180604e+00
2.527202124088259172e+00
2.527202124088259172e+00
2.527202124088259172e+00
2.569390911587878357e+00
2.569390911587878357e+00
2.569390911587878357e+00
2.569390911587878357e+00
2.531139744254890633e+00
2.531139744254890633e+00
2.531139744254890633e+00
2.474700521866512126e+00
2.474700521866512126e+00
2.474700521866512126e+00
2.474325510422071162e+00
2.474325510422071162e+00
2.474325510422071162e+00
2.456699972533341381e+00
2.456699972533341381e+00
2.456699972533341381e+00
2.477138096255378841e+00
2.477138096255378841e+00
2.477138096255378841e+00
2.477325601977599767e+00
2.477325601977599767e+00
2.477325601977599767e+00
2.477325601977599767e+00
2.468137821588793912e+00
2.468137821588793912e+00
2.468137821588793912e+00
2.500951322977385871e+00
2.500951322977385871e+00
2.500951322977385871e+00
2.549327799310281861e+00
2.549327799310281861e+00
2.549327799310281861e+00
2.549327799310281861e+00
2.558515579699087716e+00
2.558515579699087716e+00
2.558515579699087716e+00
2.538264961699270739e+00
2.538264961699270739e+00
2.538264961699270739e+00
2.538264961699270739e+00
2.542952604754783685e+00
2.542952604754783685e+00
2.542952604754783685e+00
2.505638966032898818e+00
2.505638966032898818e+00
2.505638966032898818e+00
2.501888851588488727e+00
2.501888851588488727e+00
2.501888851588488727e+00
2.501888851588488727e+00
2.520264412366099993e+00
2.520264412366099993e+00
2.520264412366099993e+00
2.517076815088350905e+00
2.517076815088350905e+00
2.517076815088350905e+00
2.517076815088350905e+00
2.454074892422254184e+00
2.454074892422254184e+00
2.454074892422254184e+00
2.464762718588824342e+00
2.464762718588824342e+00
2.464762718588824342e+00
2.500951322977385871e+00
2.500951322977385871e+00
2.506388988921781191e+00
2.506388988921781191e+00
2.506388988921781191e+00
2.495701162755211033e+00
2.495701162755211033e+00
2.495701162755211033e+00
2.458762535477767130e+00
2.458762535477767130e+00
2.458762535477767130e+00
2.458762535477767130e+00
2.490638508255257122e+00
2.490638508255257122e+00
2.490638508255257122e+00
2.521576952421643814e+00
2.521576952421643814e+00
2.521576952421643814e+00
2.581578783532212373e+00
2.581578783532212373e+00
2.581578783532212373e+00
2.581578783532212373e+00
2.593391644032105425e+00
2.593391644032105425e+00
2.593391644032105425e+00
2.509951597643971244e+00
2.509951597643971244e+00
2.509951597643971244e+00
2.509951597643971244e+00
2.501513840144047762e+00
2.501513840144047762e+00
2.501513840144047762e+00
2.514264229255043226e+00
2.514264229255043226e+00
2.514264229255043226e+00
2.514264229255043226e+00
2.487825922421948999e+00
2.487825922421948999e+00
2.487825922421948999e+00
2.464387707144383377e+00
2.464387707144383377e+00
2.464387707144383377e+00
2.468512833033234433e+00
2.468512833033234433e+00
2.468512833033234433e+00
2.468512833033234433e+00
2.480888210699789376e+00
2.480888210699789376e+00
2.480888210699789376e+00
2.484450819421979428e+00
2.484450819421979428e+00
2.484450819421979428e+00
2.473950498977630197e+00
2.473950498977630197e+00
2.473950498977630197e+00
2.473950498977630197e+00
2.476200567644276429e+00
2.476200567644276429e+00
2.476200567644276429e+00
2.540702536088137453e+00
2.540702536088137453e+00
2.540702536088137453e+00
2.540702536088137453e+00
2.592454115421003014e+00
2.592454115421003014e+00
2.592454115421003014e+00
2.572578508865627445e+00
2.572578508865627445e+00
2.572578508865627445e+00
2.572578508865627445e+00
2.556078005310220558e+00
2.556078005310220558e+00
2.556078005310220558e+00
2.518576860866115208e+00
2.518576860866115208e+00
2.518576860866115208e+00
2.498138737144077748e+00
2.498138737144077748e+00
2.498138737144077748e+00
2.498138737144077748e+00
2.544452650532547988e+00
2.544452650532547988e+00
2.544452650532547988e+00
2.512764183477279367e+00
2.512764183477279367e+00
2.512764183477279367e+00
2.512764183477279367e+00
2.505451460310678335e+00
2.505451460310678335e+00
2.505451460310678335e+00
2.503013885921811621e+00
2.503013885921811621e+00
2.503013885921811621e+00
2.458387524033326166e+00
2.458387524033326166e+00
2.458387524033326166e+00
2.458387524033326166e+00
2.451262306588946061e+00
2.451262306588946061e+00
2.451262306588946061e+00
2.438886928922391562e+00
2.438886928922391562e+00
2.438886928922391562e+00
2.438886928922391562e+00
2.463637684255501004e+00
2.463637684255501004e+00
2.463637684255501004e+00
2.512951689199499850e+00
2.512951689199499850e+00
2.512951689199499850e+00
2.542015076143681274e+00
2.542015076143681274e+00
2.542015076143681274e+00
2.542015076143681274e+00
2.523076998199408116e+00
2.523076998199408116e+00
2.474513016144291644e+00
2.474513016144291644e+00
2.474513016144291644e+00
2.477325601977599767e+00
2.477325601977599767e+00
2.477325601977599767e+00
2.477325601977599767e+00
2.546890224921415147e+00
2.546890224921415147e+00
2.546890224921415147e+00
2.569765923032319321e+00
2.569765923032319321e+00
2.569765923032319321e+00
2.569765923032319321e+00
2.536389904477065471e+00
2.536389904477065471e+00
2.536389904477065471e+00
2.552327890865810023e+00
2.552327890865810023e+00
2.552327890865810023e+00
2.539389996032593633e+00
2.539389996032593633e+00
2.539389996032593633e+00
2.539389996032593633e+00
2.532452284310434454e+00
2.532452284310434454e+00
2.532452284310434454e+00
2.490451002533036640e+00
2.490451002533036640e+00
2.490451002533036640e+00
2.356384411145359792e+00
2.356384411145359792e+00
2.356384411145359792e+00
2.356384411145359792e+00
2.418636310922574584e+00
2.418636310922574584e+00
2.418636310922574584e+00
2.563390728476821145e+00
2.563390728476821145e+00
2.563390728476821145e+00
2.562640705587938772e+00
2.562640705587938772e+00
2.562640705587938772e+00
2.562640705587938772e+00
2.601079378643146978e+00
2.601079378643146978e+00
2.601079378643146978e+00
2.563015717032380181e+00
2.563015717032380181e+00
2.563015717032380181e+00
2.563015717032380181e+00
2.504138920255134515e+00
2.504138920255134515e+00
2.504138920255134515e+00
2.484263313699758946e+00
2.484263313699758946e+00
2.484263313699758946e+00
2.478263130588702179e+00
2.478263130588702179e+00
2.478263130588702179e+00
2.478263130588702179e+00
2.501513840144047762e+00
2.501513840144047762e+00
2.501513840144047762e+00
2.518951872310556173e+00
2.518951872310556173e+00
2.518951872310556173e+00
2.524577043977172419e+00
2.524577043977172419e+00
2.524577043977172419e+00
2.524577043977172419e+00
2.507139011810663121e+00
2.507139011810663121e+00
2.507139011810663121e+00
2.466075258644368162e+00
2.466075258644368162e+00
2.466075258644368162e+00
2.466075258644368162e+00
2.468137821588793912e+00
2.468137821588793912e+00
2.468137821588793912e+00
2.453324869533372254e+00
2.453324869533372254e+00
2.453324869533372254e+00
2.453324869533372254e+00
2.516326792199468976e+00
2.516326792199468976e+00
2.516326792199468976e+00
2.565078279976805931e+00
2.565078279976805931e+00
2.565078279976805931e+00
2.530577227088229186e+00
2.530577227088229186e+00
2.530577227088229186e+00
2.530577227088229186e+00
2.542202581865901756e+00
2.542202581865901756e+00
2.542202581865901756e+00
2.480513199255348411e+00
2.480513199255348411e+00
2.480513199255348411e+00
2.480513199255348411e+00
2.416011230811487387e+00
2.416011230811487387e+00
2.416011230811487387e+00
2.431761711478011456e+00
2.431761711478011456e+00
2.431761711478011456e+00
2.422948942533646566e+00
2.422948942533646566e+00
2.422948942533646566e+00
2.422948942533646566e+00
2.517076815088350905e+00
2.517076815088350905e+00
2.517076815088350905e+00
2.520451918088320475e+00
2.520451918088320475e+00
2.520451918088320475e+00
2.520451918088320475e+00
2.492326059755241463e+00
2.492326059755241463e+00
2.492326059755241463e+00
2.483513290810876573e+00
2.483513290810876573e+00
2.483513290810876573e+00
2.456887478255561863e+00
2.456887478255561863e+00
2.456887478255561863e+00
2.456887478255561863e+00
2.454074892422254184e+00
2.454074892422254184e+00
2.454074892422254184e+00
2.443574571977904952e+00
2.443574571977904952e+00
2.443574571977904952e+00
2.443574571977904952e+00
2.585891415143284355e+00
2.585891415143284355e+00
2.585891415143284355e+00
2.635205420087282757e+00
2.635205420087282757e+00
2.635205420087282757e+00
2.610829676198614280e+00
2.610829676198614280e+00
2.610829676198614280e+00
2.610829676198614280e+00
2.610454664754173315e+00
2.610454664754173315e+00
2.610454664754173315e+00
2.540140018921475562e+00
2.540140018921475562e+00
2.540140018921475562e+00
2.540140018921475562e+00
2.509951597643971244e+00
2.509951597643971244e+00
2.509951597643971244e+00
2.477513107699820250e+00
2.477513107699820250e+00
2.477513107699820250e+00
2.477513107699820250e+00
2.444887112033448329e+00
2.444887112033448329e+00
2.444887112033448329e+00
2.405885921811578676e+00
2.405885921811578676e+00
2.405885921811578676e+00
2.422011413922543710e+00
2.422011413922543710e+00
2.422011413922543710e+00
2.459325052644428578e+00
2.459325052644428578e+00
2.459325052644428578e+00
2.459325052644428578e+00
2.489325968199713301e+00
2.489325968199713301e+00
2.489325968199713301e+00
2.596579241309854513e+00
2.596579241309854513e+00
2.596579241309854513e+00
2.596579241309854513e+00
2.656768578142643555e+00
2.656768578142643555e+00
2.656768578142643555e+00
2.687519516586810209e+00
2.687519516586810209e+00
2.687519516586810209e+00
2.631455305642872666e+00
2.631455305642872666e+00
2.631455305642872666e+00
2.631455305642872666e+00
2.514451734977264152e+00
2.514451734977264152e+00
2.514451734977264152e+00
2.451074800866725578e+00
2.451074800866725578e+00
2.451074800866725578e+00
2.451074800866725578e+00
2.453699880977813219e+00
2.453699880977813219e+00
2.453699880977813219e+00
2.389385418256172233e+00
2.389385418256172233e+00
2.389385418256172233e+00
2.389385418256172233e+00
2.400635761589403838e+00
2.400635761589403838e+00
2.400635761589403838e+00
2.397635670033875677e+00
2.397635670033875677e+00
2.397635670033875677e+00
2.419573839533677440e+00
2.419573839533677440e+00
2.419573839533677440e+00
2.419573839533677440e+00
2.476950590533158358e+00
2.476950590533158358e+00
2.476950590533158358e+00
2.480325693533127485e+00
2.480325693533127485e+00
2.480325693533127485e+00
2.480325693533127485e+00
2.534889858699301168e+00
2.534889858699301168e+00
2.534889858699301168e+00
2.570890957365642215e+00
2.570890957365642215e+00
2.570890957365642215e+00
2.610642170476393797e+00
2.610642170476393797e+00
2.610642170476393797e+00
2.610642170476393797e+00
2.629580248420667399e+00
2.629580248420667399e+00
2.629580248420667399e+00
2.649830866420483932e+00
2.649830866420483932e+00
2.649830866420483932e+00
2.649830866420483932e+00
2.611767204809717136e+00
2.611767204809717136e+00
2.611767204809717136e+00
2.528889675588243957e+00
2.528889675588243957e+00
2.528889675588243957e+00
2.427261574144718992e+00
2.427261574144718992e+00
2.427261574144718992e+00
2.427261574144718992e+00
2.454074892422254184e+00
2.454074892422254184e+00
2.454074892422254184e+00
2.447512192144535526e+00
2.447512192144535526e+00
2.447512192144535526e+00
2.447512192144535526e+00
2.395948118533890892e+00
2.395948118533890892e+00
2.395948118533890892e+00
2.467200292977691056e+00
2.467200292977691056e+00
2.467200292977691056e+00
2.460075075533310951e+00
2.460075075533310951e+00
2.460075075533310951e+00
2.460075075533310951e+00
2.380385143589587305e+00
2.380385143589587305e+00
2.380385143589587305e+00
2.467387798699911539e+00
2.467387798699911539e+00
2.467387798699911539e+00
2.467387798699911539e+00
2.535264870143742133e+00
2.535264870143742133e+00
2.535264870143742133e+00
2.547077730643635629e+00
2.547077730643635629e+00
2.547077730643635629e+00
2.571453474532304107e+00
2.571453474532304107e+00
2.571453474532304107e+00
2.571453474532304107e+00
2.586641438032166285e+00
2.586641438032166285e+00
2.586641438032166285e+00
2.586641438032166285e+00
2.586641438032166285e+00
2.586641438032166285e+00
2.586641438032166285e+00
2.534514847254860204e+00
2.534514847254860204e+00
2.534514847254860204e+00
2.522326975310525743e+00
2.522326975310525743e+00
2.522326975310525743e+00
2.522326975310525743e+00
2.548015259254738041e+00
2.548015259254738041e+00
2.548015259254738041e+00
2.492701071199682428e+00
2.492701071199682428e+00
2.492701071199682428e+00
2.450324777977843649e+00
2.450324777977843649e+00
2.450324777977843649e+00
2.450324777977843649e+00
2.383572740867336393e+00
2.383572740867336393e+00
2.383572740867336393e+00
2.425574022644734207e+00
2.425574022644734207e+00
2.425574022644734207e+00
2.425574022644734207e+00
2.540515030365916971e+00
2.540515030365916971e+00
2.540515030365916971e+00
2.577641163365581356e+00
2.577641163365581356e+00
2.577641163365581356e+00
2.577641163365581356e+00
2.579328714865566141e+00
2.579328714865566141e+00
2.579328714865566141e+00
2.589454023865474408e+00
2.589454023865474408e+00
2.589454023865474408e+00
2.591141575365459193e+00
2.591141575365459193e+00
2.591141575365459193e+00
2.591141575365459193e+00
2.587203955198828176e+00
2.587203955198828176e+00
2.587203955198828176e+00
2.450137272255623166e+00
2.450137272255623166e+00
2.450137272255623166e+00
2.450137272255623166e+00
2.333696218756676100e+00
2.333696218756676100e+00
2.333696218756676100e+00
2.423698965422528495e+00
2.423698965422528495e+00
2.423698965422528495e+00
2.480513199255348411e+00
2.480513199255348411e+00
2.480513199255348411e+00
2.480513199255348411e+00
2.496638691366313889e+00
2.496638691366313889e+00
2.496638691366313889e+00
2.470762901699881109e+00
2.470762901699881109e+00
2.470762901699881109e+00
2.470762901699881109e+00
2.552327890865810023e+00
2.552327890865810023e+00
2.552327890865810023e+00
2.541827570421460791e+00
2.541827570421460791e+00
2.541827570421460791e+00
2.485763359477523249e+00
2.485763359477523249e+00
2.485763359477523249e+00
2.485763359477523249e+00
2.543890133365886541e+00
2.543890133365886541e+00
2.543890133365886541e+00
2.549890316476943308e+00
2.549890316476943308e+00
2.549890316476943308e+00
2.549890316476943308e+00
2.526827112643818651e+00
2.526827112643818651e+00
2.526827112643818651e+00
2.547077730643635629e+00
2.547077730643635629e+00
2.547077730643635629e+00
2.496076174199651998e+00
2.496076174199651998e+00
2.496076174199651998e+00
2.496076174199651998e+00
2.442449537644581614e+00
2.442449537644581614e+00
2.442449537644581614e+00
2.367072237311929506e+00
2.367072237311929506e+00
2.367072237311929506e+00
2.367072237311929506e+00
2.431949217200232383e+00
2.431949217200232383e+00
2.431949217200232383e+00
2.452012329477828434e+00
2.452012329477828434e+00
2.452012329477828434e+00
2.575203588976714197e+00
2.575203588976714197e+00
2.575203588976714197e+00
2.575203588976714197e+00
2.543327616199224650e+00
2.543327616199224650e+00
2.543327616199224650e+00
2.464950224311044824e+00
2.464950224311044824e+00
2.464950224311044824e+00
2.464950224311044824e+00
2.447512192144535526e+00
2.447512192144535526e+00
2.447512192144535526e+00
2.556453016754661967e+00
2.556453016754661967e+00
2.556453016754661967e+00
2.556453016754661967e+00
2.582141300698873820e+00
2.582141300698873820e+00
2.582141300698873820e+00
2.583828852198858606e+00
2.583828852198858606e+00
2.583828852198858606e+00
2.594141666920987799e+00
2.594141666920987799e+00
2.594141666920987799e+00
2.594141666920987799e+00
2.605767021698660368e+00
2.605767021698660368e+00
2.605767021698660368e+00
2.625830133976256420e+00
2.625830133976256420e+00
2.625830133976256420e+00
2.625830133976256420e+00
2.595641712698752102e+00
2.595641712698752102e+00
2.595641712698752102e+00
2.448449720755638381e+00
2.448449720755638381e+00
2.448449720755638381e+00
2.390322946867275089e+00
2.390322946867275089e+00
2.390322946867275089e+00
2.390322946867275089e+00
2.422948942533646566e+00
2.422948942533646566e+00
2.422948942533646566e+00
2.447699697866756008e+00
2.447699697866756008e+00
2.447699697866756008e+00
2.447512192144535526e+00
2.447512192144535526e+00
2.447512192144535526e+00
2.447512192144535526e+00
2.447699697866756008e+00
2.447699697866756008e+00
2.447699697866756008e+00
2.445824640644550740e+00
2.445824640644550740e+00
2.445824640644550740e+00
2.451637318033387469e+00
2.451637318033387469e+00
2.451637318033387469e+00
2.451637318033387469e+00
2.482388256477553679e+00
2.482388256477553679e+00
2.482388256477553679e+00
2.544265144810327506e+00
2.544265144810327506e+00
2.544265144810327506e+00
2.544265144810327506e+00
2.657706106753745967e+00
2.657706106753745967e+00
2.657706106753745967e+00
2.623767571031830670e+00
2.623767571031830670e+00
2.623767571031830670e+00
2.623767571031830670e+00
2.542952604754783685e+00
2.542952604754783685e+00
2.542952604754783685e+00
2.441324503311258276e+00
2.441324503311258276e+00
2.441324503311258276e+00
2.381697683645130681e+00
2.381697683645130681e+00
2.381697683645130681e+00
2.381697683645130681e+00
2.376635029145176325e+00
2.376635029145176325e+00
2.376635029145176325e+00
2.455949949644459451e+00
2.455949949644459451e+00
2.455949949644459451e+00
2.455949949644459451e+00
2.516326792199468976e+00
2.516326792199468976e+00
2.516326792199468976e+00
2.591704092532120640e+00
2.591704092532120640e+00
2.591704092532120640e+00
2.602579424420911280e+00
2.602579424420911280e+00
2.602579424420911280e+00
2.602579424420911280e+00
2.630142765587328846e+00
2.630142765587328846e+00
2.630142765587328846e+00
2.614579790643025259e+00
2.614579790643025259e+00
2.614579790643025259e+00
2.614579790643025259e+00
2.587578966643269140e+00
2.587578966643269140e+00
2.587578966643269140e+00
2.528139652699362028e+00
2.528139652699362028e+00
2.528139652699362028e+00
2.490263496810816157e+00
2.490263496810816157e+00
2.490263496810816157e+00
2.490263496810816157e+00
2.443199560533463544e+00
2.443199560533463544e+00
2.443199560533463544e+00
2.389947935422834124e+00
2.389947935422834124e+00
2.389947935422834124e+00
2.389947935422834124e+00
2.392948026978362286e+00
2.392948026978362286e+00
2.392948026978362286e+00
2.522701986754967152e+00
2.522701986754967152e+00
2.522701986754967152e+00
2.452574846644489881e+00
2.452574846644489881e+00
2.452574846644489881e+00
2.452574846644489881e+00
2.490638508255257122e+00
2.490638508255257122e+00
2.490638508255257122e+00
2.449762260811182202e+00
2.449762260811182202e+00
2.449762260811182202e+00
2.449762260811182202e+00
2.396698141422773265e+00
2.396698141422773265e+00
2.396698141422773265e+00
2.449387249366740793e+00
2.449387249366740793e+00
2.449387249366740793e+00
2.449387249366740793e+00
2.489700979644154266e+00
2.489700979644154266e+00
2.489700979644154266e+00
2.545015167699209435e+00
2.545015167699209435e+00
2.545015167699209435e+00
2.542577593310342721e+00
2.542577593310342721e+00
2.542577593310342721e+00
2.542577593310342721e+00
2.676081667531358121e+00
2.676081667531358121e+00
2.676081667531358121e+00
2.695207251197851317e+00
2.695207251197851317e+00
2.695207251197851317e+00
2.695207251197851317e+00
2.561515671254616322e+00
2.561515671254616322e+00
2.561515671254616322e+00
2.481638233588671305e+00
2.481638233588671305e+00
2.481638233588671305e+00
2.480888210699789376e+00
2.480888210699789376e+00
2.480888210699789376e+00
2.480888210699789376e+00
2.485200842310861358e+00
2.485200842310861358e+00
2.485200842310861358e+00
2.494388622699667213e+00
2.494388622699667213e+00
2.494388622699667213e+00
2.494388622699667213e+00
2.473575487533188788e+00
2.473575487533188788e+00
2.473575487533188788e+00
2.442074526200140649e+00
2.442074526200140649e+00
2.442074526200140649e+00
2.491201025421918569e+00
2.491201025421918569e+00
2.491201025421918569e+00
2.491201025421918569e+00
2.550452833643604755e+00
2.550452833643604755e+00
2.550452833643604755e+00
2.583641346476638123e+00
2.583641346476638123e+00
2.583641346476638123e+00
2.583641346476638123e+00
2.575016083254493715e+00
2.575016083254493715e+00
2.575016083254493715e+00
2.523639515366069563e+00
2.523639515366069563e+00
2.523639515366069563e+00
2.515951780755027567e+00
2.515951780755027567e+00
2.515951780755027567e+00
2.515951780755027567e+00
2.598079287087618372e+00
2.598079287087618372e+00
2.598079287087618372e+00
2.470200384533219218e+00
2.470200384533219218e+00
2.470200384533219218e+00
2.470200384533219218e+00
2.421073885311441742e+00
2.421073885311441742e+00
2.421073885311441742e+00
2.389572923978392716e+00
2.389572923978392716e+00
2.389572923978392716e+00
2.417136265144810281e+00
2.417136265144810281e+00
2.417136265144810281e+00
2.417136265144810281e+00
2.492326059755241463e+00
2.492326059755241463e+00
2.492326059755241463e+00
2.483888302255317981e+00
2.483888302255317981e+00
2.483888302255317981e+00
2.483888302255317981e+00
2.461012604144413807e+00
2.461012604144413807e+00
2.461012604144413807e+00
2.444512100589007364e+00
2.444512100589007364e+00
2.444512100589007364e+00
2.484263313699758946e+00
2.484263313699758946e+00
2.484263313699758946e+00
2.484263313699758946e+00
2.602391918698690798e+00
2.602391918698690798e+00
2.602391918698690798e+00
2.627892696920682614e+00
2.627892696920682614e+00
2.627892696920682614e+00
2.627892696920682614e+00
2.555702993865779593e+00
2.555702993865779593e+00
2.555702993865779593e+00
2.617954893642994829e+00
2.617954893642994829e+00
2.617954893642994829e+00
2.576141117587817053e+00
2.576141117587817053e+00
2.576141117587817053e+00
2.576141117587817053e+00
2.522514481032746669e+00
2.522514481032746669e+00
2.522514481032746669e+00
2.529077181310464884e+00
2.529077181310464884e+00
2.529077181310464884e+00
2.529077181310464884e+00
2.413573656422620228e+00
2.413573656422620228e+00
2.413573656422620228e+00
2.428574114200262368e+00
2.428574114200262368e+00
2.428574114200262368e+00
2.428574114200262368e+00
2.493076082644123392e+00
2.493076082644123392e+00
2.493076082644123392e+00
2.410386059144871140e+00
2.410386059144871140e+00
2.410386059144871140e+00
2.286444776757103448e+00
2.286444776757103448e+00
2.286444776757103448e+00
2.286444776757103448e+00
2.337258827478866152e+00
2.337258827478866152e+00
2.337258827478866152e+00
2.479575670644245999e+00
2.479575670644245999e+00
2.479575670644245999e+00
2.479575670644245999e+00
2.531327249977111116e+00
2.531327249977111116e+00
2.531327249977111116e+00
2.530952238532670151e+00
2.530952238532670151e+00
2.530952238532670151e+00
2.684331919309061121e+00
2.684331919309061121e+00
2.684331919309061121e+00
2.684331919309061121e+00
2.695207251197851317e+00
2.695207251197851317e+00
2.695207251197851317e+00
2.627142674031800240e+00
2.627142674031800240e+00
2.627142674031800240e+00
2.627142674031800240e+00
2.559078096865749163e+00
2.559078096865749163e+00
2.559078096865749163e+00
2.493638599810785283e+00
2.493638599810785283e+00
2.493638599810785283e+00
2.449574755088961275e+00
2.449574755088961275e+00
2.449574755088961275e+00
2.449574755088961275e+00
2.441699514755699685e+00
2.441699514755699685e+00
2.441699514755699685e+00
2.528702169866023475e+00
2.528702169866023475e+00
2.528702169866023475e+00
2.528702169866023475e+00
2.473575487533188788e+00
2.473575487533188788e+00
2.473575487533188788e+00
2.458575029755546648e+00
2.458575029755546648e+00
2.458575029755546648e+00
2.397635670033875677e+00
2.397635670033875677e+00
2.397635670033875677e+00
2.397635670033875677e+00
2.399323221533860018e+00
2.399323221533860018e+00
2.399323221533860018e+00
2.590579058198797746e+00
2.590579058198797746e+00
2.590579058198797746e+00
2.643455671864986201e+00
2.643455671864986201e+00
2.643455671864986201e+00
2.643455671864986201e+00
2.605016998809778439e+00
2.605016998809778439e+00
2.605016998809778439e+00
2.635580431531724166e+00
2.635580431531724166e+00
2.635580431531724166e+00
2.635580431531724166e+00
2.564328257087923557e+00
2.564328257087923557e+00
2.564328257087923557e+00
2.389572923978392716e+00
2.389572923978392716e+00
2.389572923978392716e+00
2.346446607867672007e+00
2.346446607867672007e+00
2.346446607867672007e+00
2.346446607867672007e+00
2.404573381756035300e+00
2.404573381756035300e+00
2.404573381756035300e+00
2.483700796533097499e+00
2.483700796533097499e+00
2.483700796533097499e+00
2.483700796533097499e+00
2.599579332865382675e+00
2.599579332865382675e+00
2.599579332865382675e+00
2.581016266365550926e+00
2.581016266365550926e+00
2.581016266365550926e+00
2.581016266365550926e+00
2.477325601977599767e+00
2.477325601977599767e+00
2.477325601977599767e+00
2.507514023255104085e+00
2.507514023255104085e+00
2.507514023255104085e+00
2.572203497421186036e+00
2.572203497421186036e+00
2.572203497421186036e+00
2.572203497421186036e+00
2.561890682699057287e+00
2.561890682699057287e+00
2.561890682699057287e+00
2.566390820032349751e+00
2.566390820032349751e+00
2.566390820032349751e+00
2.566390820032349751e+00
2.614392284920804332e+00
2.614392284920804332e+00
2.614392284920804332e+00
2.463825189977721486e+00
2.463825189977721486e+00
2.463825189977721486e+00
2.432886745811334794e+00
2.432886745811334794e+00
2.432886745811334794e+00
2.432886745811334794e+00
2.495701162755211033e+00
2.495701162755211033e+00
2.495701162755211033e+00
2.466450270088809127e+00
2.466450270088809127e+00
2.466450270088809127e+00
2.466450270088809127e+00
2.353384319589831186e+00
2.353384319589831186e+00
2.353384319589831186e+00
2.414136173589282119e+00
2.414136173589282119e+00
2.414136173589282119e+00
2.571640980254524589e+00
2.571640980254524589e+00
2.571640980254524589e+00
2.571640980254524589e+00
2.536014893032624506e+00
2.536014893032624506e+00
2.536014893032624506e+00
2.484450819421979428e+00
2.484450819421979428e+00
2.484450819421979428e+00
2.484450819421979428e+00
2.486700888088625661e+00
2.486700888088625661e+00
2.486700888088625661e+00
2.564890774254585448e+00
2.564890774254585448e+00
2.564890774254585448e+00
2.564890774254585448e+00
2.524389538254951937e+00
2.524389538254951937e+00
2.524389538254951937e+00
2.518014343699453761e+00
2.518014343699453761e+00
2.518014343699453761e+00
2.533202307199316383e+00
2.533202307199316383e+00
2.533202307199316383e+00
2.533202307199316383e+00
2.468325327311013950e+00
2.468325327311013950e+00
2.468325327311013950e+00
2.428011597033600921e+00
2.428011597033600921e+00
2.428011597033600921e+00
2.428011597033600921e+00
2.412448622089296890e+00
2.412448622089296890e+00
2.412448622089296890e+00
2.518764366588335690e+00
2.518764366588335690e+00
2.518764366588335690e+00
2.564890774254585448e+00
2.564890774254585448e+00
2.564890774254585448e+00
2.564890774254585448e+00
2.608767113254188974e+00
2.608767113254188974e+00
2.608767113254188974e+00
2.665768852809228928e+00
2.665768852809228928e+00
2.665768852809228928e+00
2.665768852809228928e+00
2.607829584643086118e+00
2.607829584643086118e+00
2.607829584643086118e+00
2.410761070589312105e+00
2.410761070589312105e+00
2.410761070589312105e+00
2.469262855922116806e+00
2.469262855922116806e+00
2.469262855922116806e+00
2.469262855922116806e+00
2.522139469588305261e+00
2.522139469588305261e+00
2.522139469588305261e+00
2.471700430310983521e+00
2.471700430310983521e+00
2.471700430310983521e+00
2.471700430310983521e+00
2.494013611255226248e+00
2.494013611255226248e+00
2.494013611255226248e+00
2.574453566087832268e+00
2.574453566087832268e+00
2.574453566087832268e+00
2.574453566087832268e+00
2.484263313699758946e+00
2.484263313699758946e+00
2.484263313699758946e+00
2.490075991088595231e+00
2.490075991088595231e+00
2.490075991088595231e+00
2.553827936643574326e+00
2.553827936643574326e+00
2.553827936643574326e+00
2.553827936643574326e+00
2.637642994476149916e+00
2.637642994476149916e+00
2.637642994476149916e+00
2.517264320810571387e+00
2.517264320810571387e+00
2.517264320810571387e+00
2.517264320810571387e+00
2.467012787255470574e+00
2.467012787255470574e+00
2.467012787255470574e+00
2.438886928922391562e+00
2.438886928922391562e+00
2.438886928922391562e+00
2.359572008423108880e+00
2.359572008423108880e+00
2.359572008423108880e+00
2.359572008423108880e+00
2.286257271034882521e+00
2.286257271034882521e+00
2.286257271034882521e+00
2.386197820978423145e+00
2.386197820978423145e+00
2.386197820978423145e+00
2.386197820978423145e+00
2.535827387310404024e+00
2.535827387310404024e+00
2.535827387310404024e+00
2.657706106753745967e+00
2.657706106753745967e+00
2.657706106753745967e+00
2.744708761864070645e+00
2.744708761864070645e+00
2.744708761864070645e+00
2.744708761864070645e+00
2.629205236976226434e+00
2.629205236976226434e+00
2.629205236976226434e+00
2.545952696310312291e+00
2.545952696310312291e+00
2.545952696310312291e+00
2.545952696310312291e+00
2.628455214087344061e+00
2.628455214087344061e+00
2.628455214087344061e+00
2.556828028199102931e+00
2.556828028199102931e+00
2.556828028199102931e+00
2.445824640644550740e+00
2.445824640644550740e+00
2.445824640644550740e+00
2.445824640644550740e+00
2.301445234534745587e+00
2.301445234534745587e+00
2.301445234534745587e+00
2.279319559312723342e+00
2.279319559312723342e+00
2.279319559312723342e+00
2.279319559312723342e+00
2.358071962645344577e+00
2.358071962645344577e+00
2.358071962645344577e+00
2.486325876644184696e+00
2.486325876644184696e+00
2.486325876644184696e+00
2.486325876644184696e+00
2.594329172643208281e+00
2.594329172643208281e+00
2.594329172643208281e+00
2.595454206976531619e+00
2.595454206976531619e+00
2.595454206976531619e+00
2.590391552476577264e+00
2.590391552476577264e+00
2.590391552476577264e+00
2.590391552476577264e+00
2.697832331308938958e+00
2.697832331308938958e+00
2.697832331308938958e+00
2.598079287087618372e+00
2.598079287087618372e+00
2.598079287087618372e+00
2.598079287087618372e+00
2.499451277199621568e+00
2.499451277199621568e+00
2.499451277199621568e+00
2.471700430310983521e+00
2.471700430310983521e+00
2.471700430310983521e+00
2.522139469588305261e+00
2.522139469588305261e+00
2.522139469588305261e+00
2.522139469588305261e+00
2.499263771477401086e+00
2.499263771477401086e+00
2.499263771477401086e+00
2.560203131199072502e+00
2.560203131199072502e+00
2.560203131199072502e+00
2.560203131199072502e+00
2.531514755699331598e+00
2.531514755699331598e+00
2.531514755699331598e+00
2.505638966032898818e+00
2.505638966032898818e+00
2.505638966032898818e+00
2.576703634754478500e+00
2.576703634754478500e+00
2.576703634754478500e+00
2.576703634754478500e+00
2.496076174199651998e+00
2.496076174199651998e+00
2.496076174199651998e+00
2.403260841700491479e+00
2.403260841700491479e+00
2.403260841700491479e+00
2.394073061311685624e+00
2.394073061311685624e+00
2.394073061311685624e+00
2.394073061311685624e+00
2.530952238532670151e+00
2.530952238532670151e+00
2.530952238532670151e+00
2.561328165532395840e+00
2.561328165532395840e+00
2.561328165532395840e+00
2.561328165532395840e+00
2.396885647144993747e+00
2.396885647144993747e+00
2.396885647144993747e+00
2.398385692922757606e+00
2.398385692922757606e+00
2.398385692922757606e+00
2.478075624866481697e+00
2.478075624866481697e+00
2.478075624866481697e+00
2.478075624866481697e+00
2.611954710531937618e+00
2.611954710531937618e+00
2.611954710531937618e+00
2.610829676198614280e+00
2.610829676198614280e+00
2.610829676198614280e+00
2.610829676198614280e+00
2.562453199865718290e+00
2.562453199865718290e+00
2.562453199865718290e+00
2.554202948088015290e+00
2.554202948088015290e+00
2.554202948088015290e+00
2.554202948088015290e+00
2.544452650532547988e+00
2.544452650532547988e+00
2.544452650532547988e+00
2.507514023255104085e+00
2.507514023255104085e+00
2.507514023255104085e+00
2.507514023255104085e+00
2.394073061311685624e+00
2.394073061311685624e+00
2.394073061311685624e+00
2.431386700033570492e+00
2.431386700033570492e+00
2.431386700033570492e+00
2.616267342143010044e+00
2.616267342143010044e+00
2.616267342143010044e+00
2.616267342143010044e+00
2.673644093142490963e+00
2.673644093142490963e+00
2.673644093142490963e+00
2.657706106753745967e+00
2.657706106753745967e+00
2.657706106753745967e+00
2.657706106753745967e+00
2.541077547532578418e+00
2.541077547532578418e+00
2.541077547532578418e+00
2.468887844477675397e+00
2.468887844477675397e+00
2.468887844477675397e+00
2.449949766533402684e+00
2.449949766533402684e+00
2.449949766533402684e+00
2.449949766533402684e+00
2.387135349589526001e+00
2.387135349589526001e+00
2.387135349589526001e+00
2.618704916531876759e+00
2.618704916531876759e+00
2.618704916531876759e+00
2.618704916531876759e+00
2.504326425977354997e+00
2.504326425977354997e+00
2.504326425977354997e+00
2.380760155034028269e+00
2.380760155034028269e+00
2.380760155034028269e+00
2.311008026367992407e+00
2.311008026367992407e+00
2.311008026367992407e+00
2.311008026367992407e+00
2.434761803033539618e+00
2.434761803033539618e+00
2.434761803033539618e+00
2.517264320810571387e+00
2.517264320810571387e+00
2.517264320810571387e+00
2.517264320810571387e+00
2.542577593310342721e+00
2.542577593310342721e+00
2.542577593310342721e+00
2.516514297921689458e+00
2.516514297921689458e+00
2.516514297921689458e+00
2.516514297921689458e+00
2.528514664143802992e+00
2.528514664143802992e+00
2.528514664143802992e+00
2.531702261421552080e+00
2.531702261421552080e+00
2.531702261421552080e+00
2.652268440809351091e+00
2.652268440809351091e+00
2.652268440809351091e+00
2.652268440809351091e+00
2.684519425031281603e+00
2.684519425031281603e+00
2.684519425031281603e+00
2.591516586809900158e+00
2.591516586809900158e+00
2.591516586809900158e+00
2.591516586809900158e+00
2.514826746421705117e+00
2.514826746421705117e+00
2.514826746421705117e+00
2.488013428144169481e+00
2.488013428144169481e+00
2.488013428144169481e+00
2.373447431867427682e+00
2.373447431867427682e+00
2.373447431867427682e+00
2.373447431867427682e+00
2.482200750755333196e+00
2.482200750755333196e+00
2.482200750755333196e+00
2.553077913754691952e+00
2.553077913754691952e+00
2.553077913754691952e+00
2.553077913754691952e+00
2.256818872646260132e+00
2.256818872646260132e+00
2.256818872646260132e+00
2.356196905423139309e+00
2.356196905423139309e+00
2.356196905423139309e+00
2.568078371532334536e+00
2.568078371532334536e+00
2.568078371532334536e+00
2.568078371532334536e+00
2.685644459364604497e+00
2.685644459364604497e+00
2.685644459364604497e+00
2.612142216254158100e+00
2.612142216254158100e+00
2.612142216254158100e+00
2.612142216254158100e+00
2.595641712698752102e+00
2.595641712698752102e+00
2.595641712698752102e+00
2.534514847254860204e+00
2.534514847254860204e+00
2.534514847254860204e+00
2.572391003143406518e+00
2.572391003143406518e+00
2.572391003143406518e+00
2.572391003143406518e+00
2.533014801477095901e+00
2.533014801477095901e+00
2.533014801477095901e+00
2.415073702200384531e+00
2.415073702200384531e+00
2.415073702200384531e+00
2.415073702200384531e+00
2.264694112979522167e+00
2.264694112979522167e+00
2.264694112979522167e+00
2.476763084810937876e+00
2.476763084810937876e+00
2.476763084810937876e+00
2.446574663533433114e+00
2.446574663533433114e+00
2.446574663533433114e+00
2.446574663533433114e+00
2.479950682088686964e+00
2.479950682088686964e+00
2.479950682088686964e+00
2.427824091311380439e+00
2.427824091311380439e+00
2.427824091311380439e+00
2.427824091311380439e+00
2.532639790032654936e+00
2.532639790032654936e+00
2.532639790032654936e+00
2.538264961699270739e+00
2.538264961699270739e+00
2.538264961699270739e+00
2.686581987975707353e+00
2.686581987975707353e+00
2.686581987975707353e+00
2.686581987975707353e+00
2.756521622363963697e+00
2.756521622363963697e+00
2.756521622363963697e+00
2.626580156865138793e+00
2.626580156865138793e+00
2.626580156865138793e+00
2.626580156865138793e+00
2.484263313699758946e+00
2.484263313699758946e+00
2.484263313699758946e+00
2.312320566423536228e+00
2.312320566423536228e+00
2.312320566423536228e+00
2.312320566423536228e+00
2.370072328867458111e+00
2.370072328867458111e+00
2.370072328867458111e+00
2.584016357921079532e+00
2.584016357921079532e+00
2.584016357921079532e+00
2.644018189031648092e+00
2.644018189031648092e+00
2.644018189031648092e+00
2.644018189031648092e+00
2.528702169866023475e+00
2.528702169866023475e+00
2.528702169866023475e+00
2.368197271645252844e+00
2.368197271645252844e+00
2.368197271645252844e+00
2.368197271645252844e+00
2.212192510757774677e+00
2.212192510757774677e+00
2.212192510757774677e+00
2.551577867976928093e+00
2.551577867976928093e+00
2.551577867976928093e+00
2.683769402142399230e+00
2.683769402142399230e+00
2.683769402142399230e+00
2.683769402142399230e+00
2.641768120365001415e+00
2.641768120365001415e+00
2.641768120365001415e+00
2.355259376812036454e+00
2.355259376812036454e+00
2.355259376812036454e+00
2.355259376812036454e+00
2.491763542588580016e+00
2.491763542588580016e+00
2.491763542588580016e+00
2.582891323587756194e+00
2.582891323587756194e+00
2.582891323587756194e+00
2.614017273476363368e+00
2.614017273476363368e+00
2.614017273476363368e+00
2.614017273476363368e+00
2.538264961699270739e+00
2.538264961699270739e+00
2.538264961699270739e+00
2.422761436811426083e+00
2.422761436811426083e+00
2.422761436811426083e+00
2.422761436811426083e+00
2.498138737144077748e+00
2.498138737144077748e+00
2.498138737144077748e+00
2.437949400311288706e+00
2.437949400311288706e+00
2.437949400311288706e+00
2.437949400311288706e+00
2.477888119144261214e+00
2.477888119144261214e+00
2.477888119144261214e+00
2.541265053254798900e+00
2.541265053254798900e+00
2.541265053254798900e+00
2.507139011810663121e+00
2.507139011810663121e+00
2.507139011810663121e+00
2.507139011810663121e+00
2.541640064699239865e+00
2.541640064699239865e+00
2.541640064699239865e+00
2.577078646198919465e+00
2.577078646198919465e+00
2.577078646198919465e+00
2.559828119754631537e+00
2.559828119754631537e+00
2.559828119754631537e+00
2.559828119754631537e+00
2.557578051087984861e+00
2.557578051087984861e+00
2.557578051087984861e+00
2.546702719199194664e+00
2.546702719199194664e+00
2.546702719199194664e+00
2.546702719199194664e+00
2.285882259590441556e+00
2.285882259590441556e+00
2.285882259590441556e+00
2.326758507034516477e+00
2.326758507034516477e+00
2.326758507034516477e+00
2.575578600421155162e+00
2.575578600421155162e+00
2.575578600421155162e+00
2.575578600421155162e+00
2.784084963530381263e+00
2.784084963530381263e+00
2.784084963530381263e+00
2.796272835474715723e+00
2.796272835474715723e+00
2.796272835474715723e+00
2.796272835474715723e+00
2.573141026032288892e+00
2.573141026032288892e+00
2.573141026032288892e+00
2.446762169255653596e+00
2.446762169255653596e+00
2.446762169255653596e+00
2.389197912533951751e+00
2.389197912533951751e+00
2.389197912533951751e+00
2.389197912533951751e+00
2.409636036255989211e+00
2.409636036255989211e+00
2.409636036255989211e+00
2.425574022644734207e+00
2.425574022644734207e+00
2.425574022644734207e+00
2.425574022644734207e+00
2.326758507034516477e+00
2.326758507034516477e+00
2.326758507034516477e+00
2.425199011200292798e+00
2.425199011200292798e+00
2.425199011200292798e+00
2.372509903256325270e+00
2.372509903256325270e+00
2.372509903256325270e+00
2.372509903256325270e+00
2.458762535477767130e+00
2.458762535477767130e+00
2.458762535477767130e+00
2.547827753532517558e+00
2.547827753532517558e+00
2.547827753532517558e+00
2.547827753532517558e+00
2.705520065919980510e+00
2.705520065919980510e+00
2.705520065919980510e+00
2.640080568865016630e+00
2.640080568865016630e+00
2.640080568865016630e+00
2.715832880642109259e+00
2.715832880642109259e+00
2.715832880642109259e+00
2.715832880642109259e+00
2.685644459364604497e+00
2.685644459364604497e+00
2.685644459364604497e+00
2.472450453199865894e+00
2.472450453199865894e+00
2.472450453199865894e+00
2.472450453199865894e+00
2.381510177922910199e+00
2.381510177922910199e+00
2.381510177922910199e+00
2.423698965422528495e+00
2.423698965422528495e+00
2.423698965422528495e+00
2.380385143589587305e+00
2.380385143589587305e+00
2.380385143589587305e+00
2.380385143589587305e+00
2.402135807367168141e+00
2.402135807367168141e+00
2.402135807367168141e+00
2.583266335032197158e+00
2.583266335032197158e+00
2.583266335032197158e+00
2.583266335032197158e+00
2.605392010254219404e+00
2.605392010254219404e+00
2.605392010254219404e+00
2.482388256477553679e+00
2.482388256477553679e+00
2.482388256477553679e+00
2.482388256477553679e+00
2.484263313699758946e+00
2.484263313699758946e+00
2.484263313699758946e+00
2.308382946256904766e+00
2.308382946256904766e+00
2.308382946256904766e+00
2.365572191534165203e+00
2.365572191534165203e+00
2.365572191534165203e+00
2.365572191534165203e+00
2.511826654866176511e+00
2.511826654866176511e+00
2.511826654866176511e+00
2.624892605365154008e+00
2.624892605365154008e+00
2.624892605365154008e+00
2.624892605365154008e+00
2.626205145420697828e+00
2.626205145420697828e+00
2.626205145420697828e+00
2.760834253975036123e+00
2.760834253975036123e+00
2.760834253975036123e+00
2.685081942197943050e+00
2.685081942197943050e+00
2.685081942197943050e+00
2.685081942197943050e+00
2.498138737144077748e+00
2.498138737144077748e+00
2.498138737144077748e+00
2.406823450422681532e+00
2.406823450422681532e+00
2.406823450422681532e+00
2.406823450422681532e+00
2.374197454756310055e+00
2.374197454756310055e+00
2.374197454756310055e+00
2.266756675923947917e+00
2.266756675923947917e+00
2.266756675923947917e+00
2.510514114810632691e+00
2.510514114810632691e+00
2.510514114810632691e+00
2.510514114810632691e+00
2.684331919309061121e+00
2.684331919309061121e+00
2.684331919309061121e+00
2.551202856532486685e+00
2.551202856532486685e+00
2.551202856532486685e+00
2.551202856532486685e+00
2.528702169866023475e+00
2.528702169866023475e+00
2.528702169866023475e+00
2.666893887142552266e+00
2.666893887142552266e+00
2.666893887142552266e+00
2.643830683309427609e+00
2.643830683309427609e+00
2.643830683309427609e+00
2.643830683309427609e+00
2.437949400311288706e+00
2.437949400311288706e+00
2.437949400311288706e+00
2.379260109256263966e+00
2.379260109256263966e+00
2.379260109256263966e+00
2.379260109256263966e+00
2.364447157200842309e+00
2.364447157200842309e+00
2.364447157200842309e+00
2.354509353923154524e+00
2.354509353923154524e+00
2.354509353923154524e+00
2.354509353923154524e+00
2.522701986754967152e+00
2.522701986754967152e+00
2.522701986754967152e+00
2.593204138309884943e+00
2.593204138309884943e+00
2.593204138309884943e+00
2.640268074587237113e+00
2.640268074587237113e+00
2.640268074587237113e+00
2.640268074587237113e+00
2.570703451643421733e+00
2.570703451643421733e+00
2.570703451643421733e+00
2.543140110477004168e+00
2.543140110477004168e+00
2.543140110477004168e+00
2.543140110477004168e+00
2.396135624256111374e+00
2.396135624256111374e+00
2.396135624256111374e+00
2.387135349589526001e+00
2.387135349589526001e+00
2.387135349589526001e+00
2.512014160588396994e+00
2.512014160588396994e+00
2.512014160588396994e+00
2.512014160588396994e+00
2.423511459700308013e+00
2.423511459700308013e+00
2.423511459700308013e+00
2.352821802423169739e+00
2.352821802423169739e+00
2.352821802423169739e+00
2.352821802423169739e+00
2.604079470198675583e+00
2.604079470198675583e+00
2.604079470198675583e+00
2.571453474532304107e+00
2.571453474532304107e+00
2.571453474532304107e+00
2.549702810754722826e+00
2.549702810754722826e+00
2.549702810754722826e+00
2.549702810754722826e+00
2.436449354533524403e+00
2.436449354533524403e+00
2.436449354533524403e+00
2.481825739310891787e+00
2.481825739310891787e+00
2.481825739310891787e+00
2.481825739310891787e+00
2.623955076754051152e+00
2.623955076754051152e+00
2.623955076754051152e+00
2.676269173253578604e+00
2.676269173253578604e+00
2.676269173253578604e+00
2.676269173253578604e+00
2.579703726310007106e+00
2.579703726310007106e+00
2.579703726310007106e+00
2.363134617145298488e+00
2.363134617145298488e+00
2.363134617145298488e+00
2.316258186590166801e+00
2.316258186590166801e+00
2.316258186590166801e+00
2.316258186590166801e+00
2.426324045533616136e+00
2.426324045533616136e+00
2.426324045533616136e+00
2.399698232978301426e+00
2.399698232978301426e+00
2.399698232978301426e+00
2.399698232978301426e+00
2.649830866420483932e+00
2.649830866420483932e+00
2.649830866420483932e+00
2.689207068086794994e+00
2.689207068086794994e+00
2.689207068086794994e+00
2.543327616199224650e+00
2.543327616199224650e+00
2.543327616199224650e+00
2.543327616199224650e+00
2.497013702810754854e+00
2.497013702810754854e+00
2.497013702810754854e+00
2.467950315866573430e+00
2.467950315866573430e+00
2.467950315866573430e+00
2.529827204199346813e+00
2.529827204199346813e+00
2.489325968199713301e+00
2.489325968199713301e+00
2.489325968199713301e+00
2.489325968199713301e+00
2.487638416699728516e+00
2.487638416699728516e+00
2.487638416699728516e+00
2.587578966643269140e+00
2.587578966643269140e+00
2.587578966643269140e+00
2.426136539811395654e+00
2.426136539811395654e+00
2.426136539811395654e+00
2.426136539811395654e+00
2.497951231421857266e+00
2.497951231421857266e+00
2.497951231421857266e+00
2.739083590197454843e+00
2.739083590197454843e+00
2.739083590197454843e+00
2.739083590197454843e+00
2.481825739310891787e+00
2.481825739310891787e+00
2.481825739310891787e+00
2.490263496810816157e+00
2.490263496810816157e+00
2.490263496810816157e+00
2.388822901089510786e+00
2.388822901089510786e+00
2.388822901089510786e+00
2.388822901089510786e+00
2.482950773644215126e+00
2.482950773644215126e+00
2.482950773644215126e+00
2.661268715475936020e+00
2.661268715475936020e+00
2.661268715475936020e+00
2.661268715475936020e+00
2.450699789422284613e+00
2.450699789422284613e+00
2.450699789422284613e+00
2.365384685811944721e+00
2.365384685811944721e+00
2.365384685811944721e+00
2.365384685811944721e+00
2.397448164311655194e+00
2.397448164311655194e+00
2.397448164311655194e+00
2.519326883754997581e+00
2.519326883754997581e+00
2.519326883754997581e+00
2.501701345866268245e+00
2.501701345866268245e+00
2.501701345866268245e+00
2.501701345866268245e+00
2.510701620532853173e+00
2.510701620532853173e+00
2.510701620532853173e+00
2.512201666310617476e+00
2.512201666310617476e+00
2.512201666310617476e+00
2.512201666310617476e+00
2.571640980254524589e+00
2.571640980254524589e+00
2.571640980254524589e+00
2.352259285256507848e+00
2.352259285256507848e+00
2.352259285256507848e+00
2.541827570421460791e+00
2.541827570421460791e+00
2.541827570421460791e+00
2.541827570421460791e+00
2.693332193975646049e+00
2.693332193975646049e+00
2.693332193975646049e+00
2.626017639698477346e+00
2.626017639698477346e+00
2.626017639698477346e+00
2.626017639698477346e+00
2.528702169866023475e+00
2.528702169866023475e+00
2.528702169866023475e+00
2.355259376812036454e+00
2.355259376812036454e+00
2.355259376812036454e+00
2.265069124423963132e+00
2.265069124423963132e+00
2.265069124423963132e+00
2.265069124423963132e+00
2.406448438978240567e+00
2.406448438978240567e+00
2.406448438978240567e+00
2.744708761864070645e+00
2.744708761864070645e+00
2.744708761864070645e+00
2.744708761864070645e+00
2.638018005920590880e+00
2.638018005920590880e+00
2.638018005920590880e+00
2.614392284920804332e+00
2.614392284920804332e+00
2.614392284920804332e+00
2.666518875698111302e+00
2.666518875698111302e+00
2.666518875698111302e+00
2.666518875698111302e+00
2.537139927365947845e+00
2.537139927365947845e+00
2.537139927365947845e+00
2.352821802423169739e+00
2.352821802423169739e+00
2.352821802423169739e+00
2.324133426923429280e+00
2.324133426923429280e+00
2.324133426923429280e+00
2.466637775811029609e+00
2.466637775811029609e+00
2.466637775811029609e+00
2.333133701590014208e+00
2.333133701590014208e+00
2.333133701590014208e+00
2.333133701590014208e+00
2.275006927701650916e+00
2.275006927701650916e+00
2.275006927701650916e+00
2.603141941587572727e+00
2.603141941587572727e+00
2.603141941587572727e+00
2.785022492141483674e+00
2.785022492141483674e+00
2.785022492141483674e+00
2.785022492141483674e+00
2.781459883419294066e+00
2.781459883419294066e+00
2.781459883419294066e+00
2.591516586809900158e+00
2.591516586809900158e+00
2.591516586809900158e+00
2.591516586809900158e+00
2.358634479812006024e+00
2.358634479812006024e+00
2.358634479812006024e+00
2.369134800256355700e+00
2.369134800256355700e+00
2.369134800256355700e+00
2.453699880977813219e+00
2.453699880977813219e+00
2.453699880977813219e+00
2.453699880977813219e+00
2.483325785088656090e+00
2.483325785088656090e+00
2.483325785088656090e+00
2.532452284310434454e+00
2.532452284310434454e+00
2.532452284310434454e+00
2.720520523697622650e+00
2.720520523697622650e+00
2.720520523697622650e+00
2.720520523697622650e+00
2.649080843531602003e+00
2.649080843531602003e+00
2.649080843531602003e+00
2.476950590533158358e+00
2.476950590533158358e+00
2.476950590533158358e+00
2.476950590533158358e+00
2.419011322367015993e+00
2.419011322367015993e+00
2.419011322367015993e+00
2.450512283700064131e+00
2.450512283700064131e+00
2.450512283700064131e+00
2.398010681478316641e+00
2.398010681478316641e+00
2.398010681478316641e+00
2.398010681478316641e+00
2.407948484756004870e+00
2.407948484756004870e+00
2.407948484756004870e+00
2.596579241309854513e+00
2.596579241309854513e+00
2.596579241309854513e+00
2.596579241309854513e+00
2.506951506088442638e+00
2.506951506088442638e+00
2.506951506088442638e+00
2.467200292977691056e+00
2.467200292977691056e+00
2.467200292977691056e+00
2.495701162755211033e+00
2.495701162755211033e+00
2.495701162755211033e+00
2.495701162755211033e+00
2.598454298532059781e+00
2.598454298532059781e+00
2.598454298532059781e+00
2.439636951811273491e+00
2.439636951811273491e+00
2.439636951811273491e+00
2.439636951811273491e+00
2.396885647144993747e+00
2.396885647144993747e+00
2.396885647144993747e+00
2.446574663533433114e+00
2.446574663533433114e+00
2.446574663533433114e+00
2.446574663533433114e+00
2.586641438032166285e+00
2.586641438032166285e+00
2.586641438032166285e+00
2.685644459364604497e+00
2.685644459364604497e+00
2.685644459364604497e+00
2.476388073366496911e+00
2.476388073366496911e+00
2.476388073366496911e+00
2.476388073366496911e+00
2.399698232978301426e+00
2.399698232978301426e+00
2.399698232978301426e+00
2.557015533921323414e+00
2.557015533921323414e+00
2.557015533921323414e+00
2.557015533921323414e+00
2.575953611865596571e+00
2.575953611865596571e+00
2.575953611865596571e+00
2.592266609698782531e+00
2.592266609698782531e+00
2.592266609698782531e+00
2.589454023865474408e+00
2.589454023865474408e+00
2.589454023865474408e+00
2.589454023865474408e+00
2.450137272255623166e+00
2.450137272255623166e+00
2.450137272255623166e+00
2.404573381756035300e+00
2.404573381756035300e+00
2.404573381756035300e+00
2.404573381756035300e+00
2.455012421033357040e+00
2.455012421033357040e+00
2.455012421033357040e+00
2.534139835810419239e+00
2.534139835810419239e+00
2.534139835810419239e+00
2.656206060975981664e+00
2.656206060975981664e+00
2.656206060975981664e+00
2.656206060975981664e+00
2.708520157475509116e+00
2.708520157475509116e+00
2.708520157475509116e+00
2.695582262642292726e+00
2.695582262642292726e+00
2.695582262642292726e+00
2.695582262642292726e+00
2.539765007477034597e+00
2.539765007477034597e+00
2.539765007477034597e+00
2.312508072145756710e+00
2.312508072145756710e+00
2.312508072145756710e+00
2.312508072145756710e+00
2.359947019867549844e+00
2.359947019867549844e+00
2.359947019867549844e+00
2.504888943144016888e+00
2.504888943144016888e+00
2.504888943144016888e+00
2.595454206976531619e+00
2.595454206976531619e+00
2.595454206976531619e+00
2.595454206976531619e+00
2.368572283089693808e+00
2.368572283089693808e+00
2.368572283089693808e+00
2.228505508590960638e+00
2.228505508590960638e+00
2.228505508590960638e+00
2.204129764702292160e+00
2.204129764702292160e+00
2.204129764702292160e+00
2.204129764702292160e+00
2.503013885921811621e+00
2.503013885921811621e+00
2.503013885921811621e+00
2.717707937864314527e+00
2.717707937864314527e+00
2.717707937864314527e+00
2.623767571031830670e+00
2.623767571031830670e+00
2.623767571031830670e+00
2.623767571031830670e+00
2.542202581865901756e+00
2.542202581865901756e+00
2.542202581865901756e+00
2.545577684865871326e+00
2.545577684865871326e+00
2.545577684865871326e+00
2.545577684865871326e+00
2.594329172643208281e+00
2.594329172643208281e+00
2.594329172643208281e+00
2.547827753532517558e+00
2.547827753532517558e+00
2.547827753532517558e+00
2.547827753532517558e+00
2.584203863643300014e+00
2.584203863643300014e+00
2.584203863643300014e+00
2.492701071199682428e+00
2.492701071199682428e+00
2.492701071199682428e+00
2.448074709311197417e+00
2.448074709311197417e+00
2.448074709311197417e+00
2.448074709311197417e+00
2.480325693533127485e+00
2.480325693533127485e+00
2.480325693533127485e+00
2.422948942533646566e+00
2.422948942533646566e+00
2.422948942533646566e+00
2.422948942533646566e+00
2.271631824701681346e+00
2.271631824701681346e+00
2.271631824701681346e+00
2.348134159367656792e+00
2.348134159367656792e+00
2.348134159367656792e+00
2.441136997589037794e+00
2.441136997589037794e+00
2.441136997589037794e+00
2.441136997589037794e+00
2.521951963866084778e+00
2.521951963866084778e+00
2.521951963866084778e+00
2.721083040864284097e+00
2.721083040864284097e+00
2.721083040864284097e+00
2.721083040864284097e+00
2.757084139530625588e+00
2.757084139530625588e+00
2.757084139530625588e+00
2.614954802087466224e+00
2.614954802087466224e+00
2.614954802087466224e+00
2.562265694143497807e+00
2.562265694143497807e+00
2.562265694143497807e+00
2.562265694143497807e+00
2.566390820032349751e+00
2.566390820032349751e+00
2.566390820032349751e+00
2.485388348033082284e+00
2.485388348033082284e+00
2.485388348033082284e+00
2.485388348033082284e+00
2.434574297311319135e+00
2.434574297311319135e+00
2.434574297311319135e+00
2.495888668477431516e+00
2.495888668477431516e+00
2.495888668477431516e+00
2.370447340311899076e+00
2.370447340311899076e+00
2.370447340311899076e+00
2.370447340311899076e+00
2.236380748924222672e+00
2.236380748924222672e+00
2.236380748924222672e+00
2.358071962645344577e+00
2.358071962645344577e+00
2.358071962645344577e+00
2.358071962645344577e+00
2.485950865199743731e+00
2.485950865199743731e+00
2.485950865199743731e+00
2.692582171086764120e+00
2.692582171086764120e+00
2.692582171086764120e+00
2.692582171086764120e+00
2.713020294808801580e+00
2.713020294808801580e+00
2.713020294808801580e+00
2.659393658253730752e+00
2.659393658253730752e+00
2.659393658253730752e+00
2.663518784142582696e+00
2.663518784142582696e+00
2.663518784142582696e+00
2.663518784142582696e+00
2.454637409588916075e+00
2.454637409588916075e+00
2.454637409588916075e+00
2.338196356089969008e+00
2.338196356089969008e+00
2.338196356089969008e+00
2.338196356089969008e+00
2.365572191534165203e+00
2.365572191534165203e+00
2.365572191534165203e+00
2.409823541978209693e+00
2.409823541978209693e+00
2.409823541978209693e+00
2.431574205755790974e+00
2.431574205755790974e+00
2.431574205755790974e+00
2.431574205755790974e+00
2.609517136143070459e+00
2.609517136143070459e+00
2.609517136143070459e+00
2.650393383587145824e+00
2.650393383587145824e+00
2.650393383587145824e+00
2.650393383587145824e+00
2.615142307809686706e+00
2.615142307809686706e+00
2.615142307809686706e+00
2.581203772087771409e+00
2.581203772087771409e+00
2.581203772087771409e+00
2.622080019531845885e+00
2.622080019531845885e+00
2.622080019531845885e+00
2.622080019531845885e+00
2.542390087588122238e+00
2.542390087588122238e+00
2.542390087588122238e+00
2.449762260811182202e+00
2.449762260811182202e+00
2.449762260811182202e+00
2.449762260811182202e+00
2.399885738700521909e+00
2.399885738700521909e+00
2.399885738700521909e+00
2.400073244422742391e+00
2.400073244422742391e+00
2.400073244422742391e+00
2.310070497756889552e+00
2.310070497756889552e+00
2.310070497756889552e+00
2.310070497756889552e+00
2.396135624256111374e+00
2.396135624256111374e+00
2.396135624256111374e+00
2.685456953642384015e+00
2.685456953642384015e+00
2.685456953642384015e+00
2.685456953642384015e+00
2.757834162419507518e+00
2.757834162419507518e+00
2.757834162419507518e+00
2.571078463087863142e+00
2.571078463087863142e+00
2.571078463087863142e+00
2.357321939756462204e+00
2.357321939756462204e+00
2.357321939756462204e+00
2.357321939756462204e+00
2.228318002868740155e+00
2.228318002868740155e+00
2.228318002868740155e+00
2.433636768700216724e+00
2.433636768700216724e+00
2.433636768700216724e+00
2.433636768700216724e+00
2.532827295754875419e+00
2.532827295754875419e+00
2.532827295754875419e+00
2.401760795922727176e+00
2.401760795922727176e+00
2.401760795922727176e+00
2.401760795922727176e+00
2.519139378032776655e+00
2.519139378032776655e+00
2.519139378032776655e+00
2.584391369365520497e+00
2.584391369365520497e+00
2.584391369365520497e+00
2.712457777642140133e+00
2.712457777642140133e+00
2.712457777642140133e+00
2.712457777642140133e+00
2.617767387920773903e+00
2.617767387920773903e+00
2.617767387920773903e+00
2.566390820032349751e+00
2.566390820032349751e+00
2.566390820032349751e+00
2.566390820032349751e+00
2.422761436811426083e+00
2.422761436811426083e+00
2.422761436811426083e+00
2.529827204199346813e+00
2.529827204199346813e+00
2.529827204199346813e+00
2.415823725089266905e+00
2.415823725089266905e+00
2.415823725089266905e+00
2.415823725089266905e+00
2.351509262367625919e+00
2.351509262367625919e+00
2.351509262367625919e+00
2.382635212256233537e+00
2.382635212256233537e+00
2.382635212256233537e+00
2.382635212256233537e+00
2.503763908810693550e+00
2.503763908810693550e+00
2.503763908810693550e+00
2.653955992309335876e+00
2.653955992309335876e+00
2.653955992309335876e+00
2.608204596087527527e+00
2.608204596087527527e+00
2.608204596087527527e+00
2.608204596087527527e+00
2.623017548142948741e+00
2.623017548142948741e+00
2.623017548142948741e+00
2.453887386700033701e+00
2.453887386700033701e+00
2.453887386700033701e+00
2.453887386700033701e+00
2.468512833033234433e+00
2.468512833033234433e+00
2.468512833033234433e+00
2.512014160588396994e+00
2.512014160588396994e+00
2.512014160588396994e+00
2.548390270699179450e+00
2.548390270699179450e+00
2.548390270699179450e+00
2.548390270699179450e+00
2.518764366588335690e+00
2.518764366588335690e+00
2.518764366588335690e+00
2.502263863032929692e+00
2.502263863032929692e+00
2.502263863032929692e+00
2.502263863032929692e+00
2.657518601031525485e+00
2.657518601031525485e+00
2.657518601031525485e+00
2.551952879421369058e+00
2.551952879421369058e+00
2.551952879421369058e+00
2.522139469588305261e+00
2.522139469588305261e+00
2.522139469588305261e+00
2.522139469588305261e+00
2.501513840144047762e+00
2.501513840144047762e+00
2.501513840144047762e+00
2.513514206366161297e+00
2.513514206366161297e+00
2.513514206366161297e+00
2.401198278756065729e+00
2.401198278756065729e+00
2.401198278756065729e+00
2.401198278756065729e+00
2.392198004089480357e+00
2.392198004089480357e+00
2.392198004089480357e+00
2.338008850367748082e+00
2.338008850367748082e+00
2.338008850367748082e+00
2.338008850367748082e+00
2.436636860255744885e+00
2.436636860255744885e+00
2.436636860255744885e+00
2.620392468031861544e+00
2.620392468031861544e+00
2.620392468031861544e+00
2.681331827753532515e+00
2.681331827753532515e+00
2.681331827753532515e+00
2.681331827753532515e+00
2.574641071810052750e+00
2.574641071810052750e+00
2.574641071810052750e+00
2.580828760643330444e+00
2.580828760643330444e+00
2.580828760643330444e+00
2.580828760643330444e+00
2.461575121311075254e+00
2.461575121311075254e+00
2.461575121311075254e+00
2.447512192144535526e+00
2.447512192144535526e+00
2.447512192144535526e+00
2.447512192144535526e+00
2.436074343089083438e+00
2.436074343089083438e+00
2.436074343089083438e+00
2.374384960478530537e+00
2.374384960478530537e+00
2.374384960478530537e+00
2.308382946256904766e+00
2.308382946256904766e+00
2.308382946256904766e+00
2.308382946256904766e+00
2.461200109866634289e+00
2.461200109866634289e+00
2.461200109866634289e+00
2.664081301309244143e+00
2.664081301309244143e+00
2.664081301309244143e+00
2.664081301309244143e+00
2.647580797753837700e+00
2.647580797753837700e+00
2.647580797753837700e+00
2.602016907254249833e+00
2.602016907254249833e+00
2.602016907254249833e+00
2.539765007477034597e+00
2.539765007477034597e+00
2.539765007477034597e+00
2.539765007477034597e+00
2.557953062532425825e+00
2.557953062532425825e+00
2.557953062532425825e+00
2.642518143253883789e+00
2.642518143253883789e+00
2.642518143253883789e+00
2.642518143253883789e+00
2.593954161198767316e+00
2.593954161198767316e+00
2.593954161198767316e+00
2.550265327921384717e+00
2.550265327921384717e+00
2.550265327921384717e+00
2.438136906033509188e+00
2.438136906033509188e+00
2.438136906033509188e+00
2.438136906033509188e+00
2.371759880367442896e+00
2.371759880367442896e+00
2.397448164311655194e+00
2.350196722312082542e+00
2.350196722312082542e+00
2.420136356700338887e+00
2.420136356700338887e+00
2.527764641254921063e+00
2.598266792809838854e+00
2.598266792809838854e+00
2.646455763420514362e+00
2.605016998809778439e+00
2.605016998809778439e+00
2.581953794976653338e+00
2.581953794976653338e+00
2.562078188421277325e+00
2.565640797143467378e+00
2.565640797143467378e+00
2.495888668477431516e+00
2.495888668477431516e+00
2.546515213476973738e+00
2.578766197698904250e+00
2.578766197698904250e+00
2.388260383922848895e+00
2.388260383922848895e+00
2.295070039979247412e+00
2.313820612201300086e+00
2.313820612201300086e+00
2.356196905423139309e+00
2.390135441145054607e+00
2.390135441145054607e+00
2.556265511032441040e+00
2.556265511032441040e+00
2.629955259865108363e+00
2.666893887142552266e+00
2.666893887142552266e+00
2.629580248420667399e+00
2.629580248420667399e+00
2.481825739310891787e+00
2.545577684865871326e+00
2.545577684865871326e+00
2.546702719199194664e+00
2.546702719199194664e+00
2.547640247810297076e+00
2.524577043977172419e+00
2.524577043977172419e+00
2.461012604144413807e+00
2.507514023255104085e+00
2.507514023255104085e+00
2.423886471144749422e+00
2.423886471144749422e+00
2.400260750144962874e+00
2.331633655812249906e+00
2.331633655812249906e+00
2.549327799310281861e+00
2.549327799310281861e+00
2.643830683309427609e+00
2.601454390087587942e+00
2.601454390087587942e+00
2.534889858699301168e+00
2.534889858699301168e+00
2.553265419476912879e+00
2.590579058198797746e+00
2.590579058198797746e+00
2.576141117587817053e+00
2.533202307199316383e+00
2.533202307199316383e+00
2.548577776421399932e+00
2.548577776421399932e+00
2.516514297921689458e+00
2.422386425366985119e+00
2.422386425366985119e+00
2.382072695089572090e+00
2.382072695089572090e+00
2.351696768089846401e+00
2.399135715811639535e+00
2.399135715811639535e+00
2.487825922421948999e+00
2.487825922421948999e+00
2.592266609698782531e+00
2.705707571642200993e+00
2.705707571642200993e+00
2.681894344920193962e+00
2.582328806421094747e+00
2.582328806421094747e+00
2.484075807977538464e+00
2.484075807977538464e+00
2.433261757255775315e+00
2.364447157200842309e+00
2.364447157200842309e+00
2.430449171422468080e+00
2.430449171422468080e+00
2.452387340922269399e+00
2.534702352977080686e+00
2.534702352977080686e+00
2.575391094698934680e+00
2.575391094698934680e+00
2.538827478865932186e+00
2.449387249366740793e+00
2.531327249977111116e+00
2.531327249977111116e+00
2.595266701254311137e+00
2.612142216254158100e+00
2.612142216254158100e+00
2.558140568254646752e+00
2.444324594866786882e+00
2.444324594866786882e+00
2.473762993255409270e+00
2.473762993255409270e+00
2.433074251533554833e+00
2.383197729422894984e+00
2.383197729422894984e+00
2.527577135532700581e+00
2.527577135532700581e+00
2.552327890865810023e+00
2.500576311532944906e+00
2.500576311532944906e+00
2.455949949644459451e+00
2.455949949644459451e+00
2.482200750755333196e+00
2.506388988921781191e+00
2.506388988921781191e+00
2.547077730643635629e+00
2.546702719199194664e+00
2.546702719199194664e+00
2.593579149754326352e+00
2.593579149754326352e+00
2.547640247810297076e+00
2.528702169866023475e+00
2.528702169866023475e+00
2.507701528977324568e+00
2.507701528977324568e+00
2.509014069032868388e+00
2.457825006866664719e+00
2.457825006866664719e+00
2.496451185644092963e+00
2.496451185644092963e+00
2.488200933866389963e+00
2.446387157811212187e+00
2.446387157811212187e+00
2.481450727866450823e+00
2.446949674977874079e+00
2.446949674977874079e+00
2.520264412366099993e+00
2.520264412366099993e+00
2.537327433088168327e+00
2.632955351420636525e+00
2.632955351420636525e+00
2.601641895809808869e+00
2.601641895809808869e+00
2.521764458143864296e+00
2.530389721366008260e+00
2.512014160588396994e+00
2.476950590533158358e+00
2.476950590533158358e+00
2.517264320810571387e+00
2.545015167699209435e+00
2.545015167699209435e+00
2.448262215033417899e+00
2.479950682088686964e+00
2.479950682088686964e+00
2.489325968199713301e+00
2.489325968199713301e+00
2.463262672811060039e+00
2.481638233588671305e+00
2.481638233588671305e+00
2.478075624866481697e+00
2.577266151921139947e+00
2.577266151921139947e+00
2.529827204199346813e+00
2.529827204199346813e+00
2.571453474532304107e+00
2.581203772087771409e+00
2.581203772087771409e+00
2.598079287087618372e+00
2.598079287087618372e+00
2.503576403088473068e+00
2.285694753868221074e+00
2.285694753868221074e+00
2.345509079256569152e+00
2.345509079256569152e+00
2.461012604144413807e+00
2.538264961699270739e+00
2.538264961699270739e+00
2.531139744254890633e+00
2.570703451643421733e+00
2.570703451643421733e+00
2.597516769920956925e+00
2.597516769920956925e+00
2.472262947477644968e+00
2.555890499588000075e+00
2.555890499588000075e+00
2.666143864253669893e+00
2.666143864253669893e+00
2.643455671864986201e+00
2.523639515366069563e+00
2.523639515366069563e+00
2.454637409588916075e+00
2.461387615588854771e+00
2.461387615588854771e+00
2.478638142033143144e+00
2.478638142033143144e+00
2.396510635700552783e+00
2.388072878200628413e+00
2.388072878200628413e+00
2.384885280922879769e+00
2.384885280922879769e+00
2.422573931089205601e+00
2.580266243476668553e+00
2.580266243476668553e+00
2.604454481643116548e+00
2.612517227698599065e+00
2.612517227698599065e+00
2.523264503921628599e+00
2.523264503921628599e+00
2.539765007477034597e+00
2.557015533921323414e+00
2.557015533921323414e+00
2.521576952421643814e+00
2.521576952421643814e+00
2.498513748588519157e+00
2.525327066866054349e+00
2.525327066866054349e+00
2.457637501144443792e+00
2.457637501144443792e+00
2.461762627033295736e+00
2.457449995422223310e+00
2.457449995422223310e+00
2.443387066255684470e+00
2.443387066255684470e+00
2.546515213476973738e+00
2.507326517532883603e+00
2.507326517532883603e+00
2.504701437421796406e+00
2.571828485976745071e+00
2.571828485976745071e+00
2.553077913754691952e+00
2.553077913754691952e+00
2.527202124088259172e+00
2.587391460921048658e+00
2.587391460921048658e+00
2.589641529587694890e+00
2.589641529587694890e+00
2.546515213476973738e+00
2.499638782921842051e+00
2.499638782921842051e+00
2.460825098422192880e+00
2.460825098422192880e+00
2.399885738700521909e+00
2.279882076479384789e+00
2.279882076479384789e+00
2.469262855922116806e+00
2.469262855922116806e+00
2.589641529587694890e+00
2.635205420087282757e+00
2.635205420087282757e+00
2.573141026032288892e+00
2.573141026032288892e+00
2.563015717032380181e+00
2.572766014587847927e+00
2.572766014587847927e+00
2.466075258644368162e+00
2.395010589922788480e+00
2.395010589922788480e+00
2.380010132145145896e+00
2.380010132145145896e+00
2.485013336588640875e+00
2.610642170476393797e+00
2.610642170476393797e+00
2.574078554643390859e+00
2.522889492477187634e+00
2.522889492477187634e+00
2.484075807977538464e+00
2.484075807977538464e+00
2.432136722922452865e+00
2.459325052644428578e+00
2.459325052644428578e+00
2.481263222144230340e+00
2.481263222144230340e+00
2.611954710531937618e+00
2.631455305642872666e+00
2.631455305642872666e+00
2.569015900143436948e+00
2.569015900143436948e+00
2.491763542588580016e+00
2.527389629810480098e+00
2.527389629810480098e+00
2.494576128421887695e+00
2.494576128421887695e+00
2.512951689199499850e+00
2.512389172032837958e+00
2.512389172032837958e+00
2.441136997589037794e+00
2.441136997589037794e+00
2.379072603534043484e+00
2.392760521256141804e+00
2.392760521256141804e+00
2.490826013977477604e+00
2.490826013977477604e+00
2.571828485976745071e+00
2.612704733420819547e+00
2.612704733420819547e+00
2.654518509475997323e+00
2.620579973754082026e+00
2.620579973754082026e+00
2.588891506698812961e+00
2.588891506698812961e+00
2.453137363811151772e+00
2.438136906033509188e+00
2.438136906033509188e+00
2.473200476088747823e+00
2.473200476088747823e+00
2.406448438978240567e+00
2.457074983977782345e+00
2.457074983977782345e+00
2.505076448866237371e+00
2.505076448866237371e+00
2.433449262977995797e+00
2.428011597033600921e+00
2.428011597033600921e+00
2.470950407422101591e+00
2.470950407422101591e+00
2.576516129032258018e+00
2.549327799310281861e+00
2.549327799310281861e+00
2.557765556810205343e+00
2.575766106143375644e+00
2.575766106143375644e+00
2.624892605365154008e+00
2.624892605365154008e+00
2.578578691976683768e+00
2.436074343089083438e+00
2.436074343089083438e+00
2.536014893032624506e+00
2.536014893032624506e+00
2.499263771477401086e+00
2.475075533310953091e+00
2.475075533310953091e+00
2.422011413922543710e+00
2.422011413922543710e+00
2.481450727866450823e+00
2.494013611255226248e+00
2.494013611255226248e+00
2.555515488143559111e+00
2.555515488143559111e+00
2.553077913754691952e+00
2.576703634754478500e+00
2.576703634754478500e+00
2.611204687643055244e+00
2.611204687643055244e+00
2.556453016754661967e+00
2.531139744254890633e+00
2.531139744254890633e+00
2.447137180700094561e+00
2.383010223700674501e+00
2.383010223700674501e+00
2.332008667256691314e+00
2.332008667256691314e+00
2.419011322367015993e+00
2.502451368755150174e+00
2.502451368755150174e+00
2.533389812921536866e+00
2.533389812921536866e+00
2.547077730643635629e+00
2.565640797143467378e+00
2.565640797143467378e+00
2.533389812921536866e+00
2.533389812921536866e+00
2.575203588976714197e+00
2.609517136143070459e+00
2.609517136143070459e+00
2.589641529587694890e+00
2.540890041810357936e+00
2.540890041810357936e+00
2.477325601977599767e+00
2.477325601977599767e+00
2.448262215033417899e+00
2.452199835200048916e+00
2.452199835200048916e+00
2.432886745811334794e+00
2.432886745811334794e+00
2.466825281533250092e+00
2.468137821588793912e+00
2.468137821588793912e+00
2.515576769310586602e+00
2.515576769310586602e+00
2.445449629200109776e+00
2.453137363811151772e+00
2.453137363811151772e+00
2.479950682088686964e+00
2.523076998199408116e+00
2.523076998199408116e+00
2.636517960142826578e+00
2.636517960142826578e+00
2.605579515976439886e+00
2.533952330088198757e+00
2.533952330088198757e+00
2.528702169866023475e+00
2.528702169866023475e+00
2.504701437421796406e+00
2.470950407422101591e+00
2.470950407422101591e+00
2.494013611255226248e+00
2.494013611255226248e+00
2.503951414532914033e+00
2.491951048310800498e+00
2.491951048310800498e+00
2.473012970366527341e+00
2.414511185033723084e+00
2.414511185033723084e+00
2.462325144199957183e+00
2.462325144199957183e+00
2.518201849421674243e+00
2.596016724143193066e+00
2.596016724143193066e+00
2.654893520920438288e+00
2.654893520920438288e+00
2.575953611865596571e+00
2.460450086977751916e+00
2.460450086977751916e+00
2.497013702810754854e+00
2.497013702810754854e+00
2.430074159978026671e+00
2.428949125644703777e+00
2.428949125644703777e+00
2.505826471755119300e+00
2.505826471755119300e+00
2.479763176366466482e+00
2.427449079866939474e+00
2.427449079866939474e+00
2.430449171422468080e+00
2.485575853755302767e+00
2.485575853755302767e+00
2.595454206976531619e+00
2.595454206976531619e+00
2.578953703421124732e+00
2.617017365031891973e+00
2.617017365031891973e+00
2.590766563921018228e+00
2.590766563921018228e+00
2.546140202032532773e+00
2.516326792199468976e+00
2.516326792199468976e+00
2.466262764366588645e+00
2.466262764366588645e+00
2.432324228644673347e+00
2.429699148533585706e+00
2.429699148533585706e+00
2.475075533310953091e+00
2.475075533310953091e+00
2.496451185644092963e+00
2.473387981810968306e+00
2.473387981810968306e+00
2.458762535477767130e+00
2.518389355143894726e+00
2.518389355143894726e+00
2.521576952421643814e+00
2.521576952421643814e+00
2.568640888698995983e+00
2.605392010254219404e+00
2.605392010254219404e+00
2.587391460921048658e+00
2.587391460921048658e+00
2.554765465254677181e+00
2.544077639088107023e+00
2.544077639088107023e+00
2.476575579088717394e+00
2.476575579088717394e+00
2.495138645588549586e+00
2.536014893032624506e+00
2.536014893032624506e+00
2.476763084810937876e+00
2.476763084810937876e+00
2.433074251533554833e+00
2.448637226477858864e+00
2.448637226477858864e+00
2.452949858088931290e+00
2.422573931089205601e+00
2.422573931089205601e+00
2.510139103366191726e+00
2.510139103366191726e+00
2.577828669087801838e+00
2.620392468031861544e+00
2.620392468031861544e+00
2.577828669087801838e+00
2.577828669087801838e+00
2.531139744254890633e+00
2.533014801477095901e+00
2.533014801477095901e+00
2.459512558366649504e+00
2.459512558366649504e+00
2.410011047700430176e+00
2.424636494033631351e+00
2.424636494033631351e+00
2.465325235755485789e+00
2.465325235755485789e+00
2.497951231421857266e+00
2.483138279366435608e+00
2.483138279366435608e+00
2.496826197088534371e+00
2.534702352977080686e+00
2.534702352977080686e+00
2.536577410199285953e+00
2.536577410199285953e+00
2.562265694143497807e+00
2.594704184087649246e+00
2.594704184087649246e+00
2.583078829309976676e+00
2.556640522476882449e+00
2.556640522476882449e+00
2.538264961699270739e+00
2.538264961699270739e+00
2.477700613422040732e+00
2.449199743644520311e+00
2.449199743644520311e+00
2.382822717978454019e+00
2.382822717978454019e+00
2.342508987701040546e+00
2.400823267311624321e+00
2.400823267311624321e+00
2.478075624866481697e+00
2.478075624866481697e+00
2.545202673421430362e+00
2.617204870754112456e+00
2.617204870754112456e+00
2.596766747032074996e+00
2.596766747032074996e+00
2.605204504531998921e+00
2.605016998809778439e+00
2.605016998809778439e+00
2.580641254921109962e+00
2.538452467421491221e+00
2.538452467421491221e+00
2.499451277199621568e+00
2.499451277199621568e+00
2.500013794366283459e+00
2.494576128421887695e+00
2.494576128421887695e+00
2.422198919644764192e+00
2.422198919644764192e+00
2.419948850978118404e+00
2.429699148533585706e+00
2.429699148533585706e+00
2.430074159978026671e+00
2.430074159978026671e+00
2.440761986144596829e+00
2.457637501144443792e+00
2.457637501144443792e+00
2.568828394421216466e+00
2.568828394421216466e+00
2.626955168309579758e+00
2.604454481643116548e+00
2.604454481643116548e+00
2.530764732810449669e+00
2.508264046143986459e+00
2.508264046143986459e+00
2.524389538254951937e+00
2.524389538254951937e+00
2.519514389477218064e+00
2.471325418866542556e+00
2.471325418866542556e+00
2.443762077700125435e+00
2.443762077700125435e+00
2.432136722922452865e+00
2.402698324533829588e+00
2.402698324533829588e+00
2.464950224311044824e+00
2.464950224311044824e+00
2.562078188421277325e+00
2.567140842921231680e+00
2.567140842921231680e+00
2.559640614032411055e+00
2.574828577532273233e+00
2.574828577532273233e+00
2.582141300698873820e+00
2.582141300698873820e+00
2.540890041810357936e+00
2.519139378032776655e+00
2.519139378032776655e+00
2.486700888088625661e+00
2.486700888088625661e+00
2.495326151310770069e+00
2.450512283700064131e+00
2.450512283700064131e+00
2.452574846644489881e+00
2.452574846644489881e+00
2.437574388866847741e+00
2.422386425366985119e+00
2.422386425366985119e+00
2.468700338755454915e+00
2.468700338755454915e+00
2.537514938810388809e+00
2.569203405865657430e+00
2.569203405865657430e+00
2.588516495254371552e+00
2.598454298532059781e+00
2.598454298532059781e+00
2.572953520310068409e+00
2.572953520310068409e+00
2.547827753532517558e+00
2.529827204199346813e+00
2.529827204199346813e+00
2.526639606921598169e+00
2.526639606921598169e+00
2.472262947477644968e+00
2.422198919644764192e+00
2.422198919644764192e+00
2.430449171422468080e+00
2.430449171422468080e+00
2.465887752922147680e+00
2.419386333811456957e+00
2.419386333811456957e+00
2.444512100589007364e+00
2.444512100589007364e+00
2.533389812921536866e+00
2.565265785699026413e+00
2.565265785699026413e+00
2.621329996642963955e+00
2.648518326364940556e+00
2.648518326364940556e+00
2.591329081087679675e+00
2.591329081087679675e+00
2.544640156254768470e+00
2.510326609088412209e+00
2.510326609088412209e+00
2.464387707144383377e+00
2.464387707144383377e+00
2.421823908200323228e+00
2.411323587755973996e+00
2.411323587755973996e+00
2.476013061922055947e+00
2.476013061922055947e+00
2.513139194921720332e+00
2.500951322977385871e+00
2.500951322977385871e+00
2.537327433088168327e+00
2.537327433088168327e+00
2.540140018921475562e+00
2.543515121921445576e+00
2.543515121921445576e+00
2.572015991698965554e+00
2.540702536088137453e+00
2.540702536088137453e+00
2.503013885921811621e+00
2.503013885921811621e+00
2.531889767143772563e+00
2.445824640644550740e+00
2.445824640644550740e+00
2.449012237922299828e+00
2.449012237922299828e+00
2.457262489700002828e+00
2.481638233588671305e+00
2.481638233588671305e+00
2.488575945310831372e+00
2.488575945310831372e+00
2.450699789422284613e+00
2.497951231421857266e+00
2.497951231421857266e+00
2.532639790032654936e+00
2.575391094698934680e+00
2.575391094698934680e+00
2.604641987365337030e+00
2.604641987365337030e+00
2.606329538865321815e+00
2.577078646198919465e+00
2.577078646198919465e+00
2.536764915921506436e+00
2.536764915921506436e+00
2.493451094088564801e+00
2.444324594866786882e+00
2.444324594866786882e+00
2.428011597033600921e+00
2.428011597033600921e+00
2.413573656422620228e+00
2.436824365977965812e+00
2.436824365977965812e+00
2.476013061922055947e+00
2.449574755088961275e+00
2.449574755088961275e+00
2.490826013977477604e+00
2.490826013977477604e+00
2.525514572588274831e+00
2.556265511032441040e+00
2.556265511032441040e+00
2.604829493087557513e+00
2.604829493087557513e+00
2.614204779198583850e+00
2.569953428754539804e+00
2.569953428754539804e+00
2.574641071810052750e+00
2.574641071810052750e+00
2.503013885921811621e+00
2.440386974700155864e+00
2.440386974700155864e+00
2.413573656422620228e+00
2.413573656422620228e+00
2.448262215033417899e+00
2.431949217200232383e+00
2.431949217200232383e+00
2.437199377422406776e+00
2.511826654866176511e+00
2.511826654866176511e+00
2.530764732810449669e+00
2.530764732810449669e+00
2.539014984588152668e+00
2.587203955198828176e+00
2.587203955198828176e+00
2.599954344309823639e+00
2.599954344309823639e+00
2.559828119754631537e+00
2.524202032532731454e+00
2.524202032532731454e+00
2.520264412366099993e+00
2.520264412366099993e+00
2.506764000366222156e+00
2.502263863032929692e+00
2.502263863032929692e+00
2.485013336588640875e+00
2.428949125644703777e+00
2.428949125644703777e+00
2.440761986144596829e+00
2.440761986144596829e+00
2.467012787255470574e+00
2.494576128421887695e+00
2.494576128421887695e+00
2.538452467421491221e+00
2.538452467421491221e+00
2.570140934476760286e+00
2.539202490310373150e+00
2.539202490310373150e+00
2.591141575365459193e+00
2.591141575365459193e+00
2.566953337199011198e+00
2.522514481032746669e+00
2.522514481032746669e+00
2.502263863032929692e+00
2.502263863032929692e+00
2.487263405255287552e+00
2.448262215033417899e+00
2.448262215033417899e+00
2.480888210699789376e+00
2.491201025421918569e+00
2.491201025421918569e+00
2.462137638477736701e+00
2.462137638477736701e+00
2.423511459700308013e+00
2.464950224311044824e+00
2.464950224311044824e+00
2.533202307199316383e+00
2.533202307199316383e+00
2.556828028199102931e+00
2.551952879421369058e+00
2.551952879421369058e+00
2.574078554643390859e+00
2.574078554643390859e+00
2.554577959532456255e+00
2.501513840144047762e+00
2.501513840144047762e+00
2.464012695699941968e+00
2.464012695699941968e+00
2.436636860255744885e+00
2.454824915311136557e+00
2.454824915311136557e+00
2.504326425977354997e+00
2.527764641254921063e+00
2.527764641254921063e+00
2.517639332255012796e+00
2.517639332255012796e+00
2.494201116977446731e+00
2.510139103366191726e+00
2.510139103366191726e+00
2.559828119754631537e+00
2.559828119754631537e+00
2.554015442365794808e+00
2.560953154087954431e+00
2.560953154087954431e+00
2.547077730643635629e+00
2.474325510422071162e+00
2.474325510422071162e+00
2.487450910977508034e+00
2.487450910977508034e+00
2.482575762199774161e+00
2.498888760032960121e+00
2.498888760032960121e+00
2.497951231421857266e+00
2.497951231421857266e+00
2.486513382366405178e+00
2.465512741477706271e+00
2.465512741477706271e+00
2.451824823755607952e+00
2.451824823755607952e+00
2.458950041199987613e+00
2.519514389477218064e+00
2.519514389477218064e+00
2.546327707754753256e+00
2.565640797143467378e+00
2.565640797143467378e+00
2.601079378643146978e+00
2.601079378643146978e+00
2.551952879421369058e+00
2.507701528977324568e+00
2.507701528977324568e+00
2.484825830866420393e+00
2.484825830866420393e+00
2.475075533310953091e+00
2.440199468977935382e+00
2.440199468977935382e+00
2.454637409588916075e+00
2.454637409588916075e+00
2.511826654866176511e+00
2.513139194921720332e+00
2.513139194921720332e+00
2.486700888088625661e+00
2.486700888088625661e+00
2.501513840144047762e+00
2.551577867976928093e+00
2.551577867976928093e+00
2.570703451643421733e+00
2.570703451643421733e+00
2.577453657643360874e+00
2.568828394421216466e+00
2.568828394421216466e+00
2.523639515366069563e+00
2.469075350199895880e+00
2.469075350199895880e+00
2.439824457533493973e+00
2.439824457533493973e+00
2.475825556199835464e+00
2.505076448866237371e+00
2.505076448866237371e+00
2.490451002533036640e+00
2.490451002533036640e+00
2.488575945310831372e+00
2.474513016144291644e+00
2.474513016144291644e+00
2.473387981810968306e+00
2.521389446699423331e+00
2.521389446699423331e+00
2.548390270699179450e+00
2.548390270699179450e+00
2.569203405865657430e+00
2.585891415143284355e+00
2.585891415143284355e+00
2.556828028199102931e+00
2.556828028199102931e+00
2.540327524643696488e+00
2.476575579088717394e+00
2.476575579088717394e+00
2.437011871700186294e+00
2.437011871700186294e+00
2.448074709311197417e+00
2.461387615588854771e+00
2.461387615588854771e+00
2.446949674977874079e+00
2.506576494644001674e+00
2.506576494644001674e+00
2.509201574755088870e+00
2.509201574755088870e+00
2.455762443922238969e+00
2.504513931699575480e+00
2.504513931699575480e+00
2.543515121921445576e+00
2.543515121921445576e+00
2.531889767143772563e+00
2.553077913754691952e+00
2.553077913754691952e+00
2.546515213476973738e+00
2.546515213476973738e+00
2.526264595477157204e+00
2.534327341532639721e+00
2.534327341532639721e+00
2.539014984588152668e+00
2.539014984588152668e+00
2.526639606921598169e+00
2.498326242866298674e+00
2.498326242866298674e+00
2.469637867366557771e+00
2.469637867366557771e+00
2.484075807977538464e+00
2.470950407422101591e+00
2.470950407422101591e+00
2.469075350199895880e+00
2.512764183477279367e+00
2.512764183477279367e+00
2.531889767143772563e+00
2.531889767143772563e+00
2.562453199865718290e+00
2.586453932309945802e+00
2.586453932309945802e+00
2.534139835810419239e+00
2.534139835810419239e+00
2.501138828699606353e+00
2.508264046143986459e+00
2.508264046143986459e+00
2.511826654866176511e+00
2.511826654866176511e+00
2.505638966032898818e+00
2.436074343089083438e+00
2.436074343089083438e+00
2.433074251533554833e+00
2.460637592699972398e+00
2.460637592699972398e+00
2.447512192144535526e+00
2.447512192144535526e+00
2.508451551866206941e+00
2.550265327921384717e+00
2.550265327921384717e+00
2.552702902310250987e+00
2.552702902310250987e+00
2.578953703421124732e+00
2.534327341532639721e+00
2.493638599810785283e+00
2.493638599810785283e+00
2.472262947477644968e+00
2.458387524033326166e+00
2.458387524033326166e+00
2.458200018311105683e+00
2.458200018311105683e+00
2.466262764366588645e+00
2.495326151310770069e+00
2.495326151310770069e+00
2.477513107699820250e+00
2.477513107699820250e+00
2.464575212866603859e+00
2.508264046143986459e+00
2.508264046143986459e+00
2.553827936643574326e+00
2.553827936643574326e+00
2.558328073976867234e+00
2.582891323587756194e+00
2.582891323587756194e+00
2.583078829309976676e+00
2.583078829309976676e+00
2.554015442365794808e+00
2.515389263588366120e+00
2.515389263588366120e+00
2.489513473921933784e+00
2.475638050477614982e+00
2.475638050477614982e+00
2.499826288644062977e+00
2.499826288644062977e+00
2.480513199255348411e+00
2.465887752922147680e+00
2.465887752922147680e+00
2.456137455366679934e+00
2.456137455366679934e+00
2.447137180700094561e+00
2.494388622699667213e+00
2.494388622699667213e+00
2.525702078310495757e+00
2.525702078310495757e+00
2.522889492477187634e+00
2.570515945921201251e+00
2.570515945921201251e+00
2.557953062532425825e+00
2.524952055421613384e+00
2.524952055421613384e+00
2.510326609088412209e+00
2.510326609088412209e+00
2.507139011810663121e+00
2.505263954588457853e+00
2.505263954588457853e+00
2.475450544755394056e+00
2.475450544755394056e+00
2.448074709311197417e+00
2.446199652088991705e+00
2.446199652088991705e+00
2.485388348033082284e+00
2.530202215643787778e+00
2.530202215643787778e+00
2.551202856532486685e+00
2.569953428754539804e+00
2.569953428754539804e+00
2.562640705587938772e+00
2.562640705587938772e+00
2.528139652699362028e+00
2.502076357310709209e+00
2.502076357310709209e+00
2.495701162755211033e+00
2.495701162755211033e+00
2.489888485366374749e+00
2.507326517532883603e+00
2.507326517532883603e+00
2.443949583422345917e+00
2.407573473311563461e+00
2.407573473311563461e+00
2.458200018311105683e+00
2.458200018311105683e+00
2.455199926755577522e+00
2.506764000366222156e+00
2.506764000366222156e+00
2.554015442365794808e+00
2.554015442365794808e+00
2.602766930143131763e+00
2.623580065309610188e+00
2.623580065309610188e+00
2.563015717032380181e+00
2.563015717032380181e+00
2.536389904477065471e+00
2.538077455977050256e+00
2.538077455977050256e+00
2.497763725699636783e+00
2.497763725699636783e+00
2.486700888088625661e+00
2.472262947477644968e+00
2.472262947477644968e+00
2.462700155644398592e+00
2.457449995422223310e+00
2.457449995422223310e+00
2.461387615588854771e+00
2.461387615588854771e+00
2.470012878810998735e+00
2.508639057588427423e+00
2.508639057588427423e+00
2.555327982421338628e+00
2.555327982421338628e+00
2.545952696310312291e+00
2.575766106143375644e+00
2.575766106143375644e+00
2.560765648365733949e+00
2.560765648365733949e+00
2.512389172032837958e+00
2.503201391644032547e+00
2.503201391644032547e+00
2.478825647755364070e+00
2.481075716422009858e+00
2.481075716422009858e+00
2.485200842310861358e+00
2.485200842310861358e+00
2.446574663533433114e+00
2.455387432477798004e+00
2.455387432477798004e+00
2.478263130588702179e+00
2.478263130588702179e+00
2.492888576921902910e+00
2.529077181310464884e+00
2.529077181310464884e+00
2.566203314310129269e+00
2.566203314310129269e+00
2.566578325754570233e+00
2.574453566087832268e+00
2.574453566087832268e+00
2.544827661976988953e+00
2.532077272865993045e+00
2.532077272865993045e+00
2.501888851588488727e+00
2.501888851588488727e+00
2.473762993255409270e+00
2.452199835200048916e+00
2.452199835200048916e+00
2.454074892422254184e+00
2.454074892422254184e+00
2.456887478255561863e+00
2.459512558366649504e+00
2.459512558366649504e+00
2.456512466811120898e+00
2.456512466811120898e+00
2.494388622699667213e+00
2.563578234199041628e+00
2.563578234199041628e+00
2.596766747032074996e+00
2.596204229865413549e+00
2.596204229865413549e+00
2.563015717032380181e+00
2.563015717032380181e+00
2.525139561143833866e+00
2.518389355143894726e+00
2.518389355143894726e+00
2.479950682088686964e+00
2.479950682088686964e+00
2.466450270088809127e+00
2.488575945310831372e+00
2.488575945310831372e+00
2.487638416699728516e+00
2.487638416699728516e+00
2.475638050477614982e+00
2.475263039033173573e+00
2.475263039033173573e+00
2.465325235755485789e+00
2.491763542588580016e+00
2.491763542588580016e+00
2.520264412366099993e+00
2.538264961699270739e+00
2.538264961699270739e+00
2.570328440198980768e+00
2.570328440198980768e+00
2.555140476699118146e+00
2.514451734977264152e+00
2.514451734977264152e+00
2.491388531144139051e+00
2.491388531144139051e+00
2.492513565477461945e+00
2.531702261421552080e+00
2.531702261421552080e+00
2.516889309366130423e+00
2.516889309366130423e+00
2.479200659199805035e+00
2.481450727866450823e+00
2.481450727866450823e+00
2.470200384533219218e+00
2.470200384533219218e+00
2.452949858088931290e+00
2.509951597643971244e+00
2.509951597643971244e+00
2.534889858699301168e+00
2.547265236365856111e+00
2.547265236365856111e+00
2.579703726310007106e+00
2.579703726310007106e+00
2.550827845088045720e+00
2.492326059755241463e+00
2.492326059755241463e+00
2.494388622699667213e+00
2.494388622699667213e+00
2.488013428144169481e+00
2.499263771477401086e+00
2.499263771477401086e+00
2.501701345866268245e+00
2.501701345866268245e+00
2.492888576921902910e+00
2.478825647755364070e+00
2.478825647755364070e+00
2.450137272255623166e+00
2.450137272255623166e+00
2.473575487533188788e+00
2.506201483199560265e+00
2.506201483199560265e+00
2.545577684865871326e+00
2.560765648365733949e+00
2.560765648365733949e+00
2.575578600421155162e+00
2.575578600421155162e+00
2.533577318643757348e+00
2.525702078310495757e+00
2.525702078310495757e+00
2.524389538254951937e+00
2.524389538254951937e+00
2.490451002533036640e+00
2.487825922421948999e+00
2.487825922421948999e+00
2.461387615588854771e+00
2.461387615588854771e+00
2.453699880977813219e+00
2.457637501144443792e+00
2.457637501144443792e+00
2.453887386700033701e+00
2.506388988921781191e+00
2.506388988921781191e+00
2.537327433088168327e+00
2.537327433088168327e+00
2.542202581865901756e+00
2.580266243476668553e+00
2.580266243476668553e+00
2.561703176976836804e+00
2.561703176976836804e+00
2.529639698477126331e+00
2.503388897366253030e+00
2.503388897366253030e+00
2.494388622699667213e+00
2.494388622699667213e+00
2.492326059755241463e+00
2.479388164922025517e+00
2.479388164922025517e+00
2.485013336588640875e+00
2.485013336588640875e+00
2.492888576921902910e+00
2.471137913144322074e+00
2.471137913144322074e+00
2.473387981810968306e+00
2.515576769310586602e+00
2.515576769310586602e+00
2.534327341532639721e+00
2.534327341532639721e+00
2.559453108310190128e+00
2.584016357921079532e+00
2.584016357921079532e+00
2.573891048921170377e+00
2.573891048921170377e+00
2.515014252143925599e+00
2.493638599810785283e+00
2.493638599810785283e+00
2.460450086977751916e+00
2.483513290810876573e+00
2.483513290810876573e+00
2.481450727866450823e+00
2.481450727866450823e+00
2.460450086977751916e+00
2.466637775811029609e+00
2.466637775811029609e+00
2.451262306588946061e+00
2.451262306588946061e+00
2.471137913144322074e+00
2.513326700643940814e+00
2.513326700643940814e+00
2.546140202032532773e+00
2.546140202032532773e+00
2.582141300698873820e+00
2.600891872920926495e+00
2.600891872920926495e+00
2.562078188421277325e+00
2.562078188421277325e+00
2.523452009643849081e+00
2.495138645588549586e+00
2.495138645588549586e+00
2.461012604144413807e+00
2.448824732200079346e+00
2.448824732200079346e+00
2.435324320200201509e+00
2.435324320200201509e+00
2.446574663533433114e+00
2.473200476088747823e+00
2.473200476088747823e+00
2.503576403088473068e+00
2.503576403088473068e+00
2.539389996032593633e+00
2.562640705587938772e+00
2.562640705587938772e+00
2.551202856532486685e+00
2.551202856532486685e+00
2.590766563921018228e+00
2.581953794976653338e+00
2.581953794976653338e+00
2.511451643421735547e+00
2.494201116977446731e+00
2.494201116977446731e+00
2.463825189977721486e+00
2.463825189977721486e+00
2.436074343089083438e+00
2.470387890255439700e+00
2.470387890255439700e+00
2.454262398144474666e+00
2.454262398144474666e+00
2.478638142033143144e+00
2.479763176366466482e+00
2.479763176366466482e+00
2.491013519699698087e+00
2.491013519699698087e+00
2.531514755699331598e+00
2.554390453810235773e+00
2.554390453810235773e+00
2.570515945921201251e+00
2.570515945921201251e+00
2.595454206976531619e+00
2.572766014587847927e+00
2.572766014587847927e+00
2.522514481032746669e+00
2.503388897366253030e+00
2.503388897366253030e+00
2.476763084810937876e+00
2.476763084810937876e+00
2.474700521866512126e+00
2.460075075533310951e+00
2.460075075533310951e+00
2.445637134922330258e+00
2.445637134922330258e+00
2.468887844477675397e+00
2.452762352366710363e+00
2.452762352366710363e+00
2.467387798699911539e+00
2.467387798699911539e+00
2.503951414532914033e+00
2.532827295754875419e+00
2.532827295754875419e+00
2.550640339365825238e+00
2.591516586809900158e+00
2.591516586809900158e+00
2.555327982421338628e+00
2.555327982421338628e+00
2.512576677755058441e+00
2.508451551866206941e+00
2.508451551866206941e+00
2.495701162755211033e+00
2.495701162755211033e+00
2.499638782921842051e+00
2.503013885921811621e+00
2.503013885921811621e+00
2.492888576921902910e+00
2.492888576921902910e+00
2.460637592699972398e+00
2.442262031922361132e+00
2.442262031922361132e+00
2.479763176366466482e+00
2.479763176366466482e+00
2.519326883754997581e+00
2.545577684865871326e+00
2.545577684865871326e+00
2.546890224921415147e+00
2.538077455977050256e+00
2.538077455977050256e+00
2.509389080477309353e+00
2.509389080477309353e+00
2.514264229255043226e+00
2.515764275032807085e+00
2.515764275032807085e+00
2.511639149143956029e+00
2.511639149143956029e+00
2.491763542588580016e+00
2.484638325144199911e+00
2.484638325144199911e+00
2.480325693533127485e+00
2.480325693533127485e+00
2.471700430310983521e+00
2.463825189977721486e+00
2.463825189977721486e+00
2.500576311532944906e+00
2.500576311532944906e+00
2.532452284310434454e+00
2.552327890865810023e+00
2.552327890865810023e+00
2.574266060365611786e+00
2.566765831476790716e+00
2.566765831476790716e+00
2.505638966032898818e+00
2.497576219977416301e+00
2.497576219977416301e+00
2.485013336588640875e+00
2.485013336588640875e+00
2.483700796533097499e+00
2.482575762199774161e+00
2.482575762199774161e+00
2.491388531144139051e+00
2.491388531144139051e+00
2.455574938200018487e+00
2.477325601977599767e+00
2.477325601977599767e+00
2.517451826532791870e+00
2.517451826532791870e+00
2.543327616199224650e+00
2.547452742088076594e+00
2.547452742088076594e+00
2.566203314310129269e+00
2.559453108310190128e+00
2.559453108310190128e+00
2.517264320810571387e+00
2.517264320810571387e+00
2.497576219977416301e+00
2.487825922421948999e+00
2.487825922421948999e+00
2.483888302255317981e+00
2.483888302255317981e+00
2.465887752922147680e+00
2.447887203588976490e+00
2.447887203588976490e+00
2.483325785088656090e+00
2.483325785088656090e+00
2.471512924588763038e+00
2.480138187810907002e+00
2.480138187810907002e+00
2.510701620532853173e+00
2.546140202032532773e+00
2.546140202032532773e+00
2.567703360087893572e+00
2.567703360087893572e+00
2.577453657643360874e+00
2.534702352977080686e+00
2.534702352977080686e+00
2.515951780755027567e+00
2.515951780755027567e+00
2.496451185644092963e+00
2.481825739310891787e+00
2.481825739310891787e+00
2.481075716422009858e+00
2.481075716422009858e+00
2.478263130588702179e+00
2.474513016144291644e+00
2.474513016144291644e+00
2.468137821588793912e+00
2.506388988921781191e+00
2.506388988921781191e+00
2.524202032532731454e+00
2.548577776421399932e+00
2.548577776421399932e+00
2.571828485976745071e+00
2.571828485976745071e+00
2.565453291421246895e+00
2.538827478865932186e+00
2.538827478865932186e+00
2.523076998199408116e+00
2.504701437421796406e+00
2.504701437421796406e+00
2.485013336588640875e+00
2.485013336588640875e+00
2.462325144199957183e+00
2.452762352366710363e+00
2.452762352366710363e+00
2.469825373088778253e+00
2.469825373088778253e+00
2.479575670644245999e+00
2.464950224311044824e+00
2.464950224311044824e+00
2.505263954588457853e+00
2.505263954588457853e+00
2.544077639088107023e+00
2.559078096865749163e+00
2.559078096865749163e+00
2.570140934476760286e+00
2.570140934476760286e+00
2.548765282143620414e+00
2.502451368755150174e+00
2.502451368755150174e+00
2.505638966032898818e+00
2.496263679921872480e+00
2.496263679921872480e+00
2.495513657032990551e+00
2.495513657032990551e+00
2.490638508255257122e+00
2.493451094088564801e+00
2.493451094088564801e+00
2.491763542588580016e+00
2.491763542588580016e+00
2.473200476088747823e+00
2.477138096255378841e+00
2.477138096255378841e+00
2.512389172032837958e+00
2.512389172032837958e+00
2.520451918088320475e+00
2.551577867976928093e+00
2.551577867976928093e+00
2.574266060365611786e+00
2.555702993865779593e+00
2.555702993865779593e+00
2.530202215643787778e+00
2.530202215643787778e+00
2.509576586199530279e+00
2.490451002533036640e+00
2.490451002533036640e+00
2.481450727866450823e+00
2.481450727866450823e+00
2.469262855922116806e+00
2.458200018311105683e+00
2.458200018311105683e+00
2.468700338755454915e+00
2.468700338755454915e+00
2.451074800866725578e+00
2.474888027588732609e+00
2.474888027588732609e+00
2.518389355143894726e+00
2.518389355143894726e+00
2.539765007477034597e+00
2.568265877254555019e+00
2.568265877254555019e+00
2.569953428754539804e+00
2.525514572588274831e+00
2.525514572588274831e+00
2.499076265755180604e+00
2.499076265755180604e+00
2.494201116977446731e+00
2.492701071199682428e+00
2.492701071199682428e+00
2.493451094088564801e+00
2.493451094088564801e+00
2.482575762199774161e+00
2.484263313699758946e+00
2.484263313699758946e+00
2.485950865199743731e+00
2.485950865199743731e+00
2.478263130588702179e+00
2.495138645588549586e+00
2.495138645588549586e+00
2.520451918088320475e+00
2.520451918088320475e+00
2.551390362254707167e+00
2.577266151921139947e+00
2.577266151921139947e+00
2.574078554643390859e+00
2.574078554643390859e+00
2.519326883754997581e+00
2.500763817255165389e+00
2.500763817255165389e+00
2.481638233588671305e+00
2.478263130588702179e+00
2.478263130588702179e+00
2.470950407422101591e+00
2.470950407422101591e+00
2.478825647755364070e+00
2.486700888088625661e+00
2.486700888088625661e+00
2.462700155644398592e+00
2.462700155644398592e+00
2.466262764366588645e+00
2.512389172032837958e+00
2.512389172032837958e+00
2.533389812921536866e+00
2.533389812921536866e+00
2.563390728476821145e+00
2.569953428754539804e+00
2.569953428754539804e+00
2.557578051087984861e+00
2.549702810754722826e+00
2.549702810754722826e+00
2.527952146977141545e+00
2.527952146977141545e+00
2.475450544755394056e+00
2.470950407422101591e+00
2.470950407422101591e+00
2.462325144199957183e+00
2.462325144199957183e+00
2.465700247199926753e+00
2.476950590533158358e+00
2.476950590533158358e+00
2.466075258644368162e+00
2.466075258644368162e+00
2.469825373088778253e+00
2.505638966032898818e+00
2.505638966032898818e+00
2.496076174199651998e+00
2.496076174199651998e+00
2.510701620532853173e+00
2.584016357921079532e+00
2.584016357921079532e+00
2.562453199865718290e+00
2.532827295754875419e+00
2.532827295754875419e+00
2.504701437421796406e+00
2.504701437421796406e+00
2.497576219977416301e+00
2.501701345866268245e+00
2.501701345866268245e+00
2.485575853755302767e+00
2.485575853755302767e+00
2.477138096255378841e+00
2.465887752922147680e+00
2.465887752922147680e+00
2.458950041199987613e+00
2.458950041199987613e+00
2.483325785088656090e+00
2.518576860866115208e+00
2.518576860866115208e+00
2.535639881588183542e+00
2.535639881588183542e+00
2.551202856532486685e+00
2.558703085421308199e+00
2.558703085421308199e+00
2.538827478865932186e+00
2.518014343699453761e+00
2.518014343699453761e+00
2.500388805810724424e+00
2.500388805810724424e+00
2.489700979644154266e+00
2.488950956755272337e+00
2.488950956755272337e+00
2.491013519699698087e+00
2.491013519699698087e+00
2.496826197088534371e+00
2.478638142033143144e+00
2.478638142033143144e+00
2.463450178533280521e+00
2.463450178533280521e+00
2.503013885921811621e+00
2.540327524643696488e+00
2.540327524643696488e+00
2.546327707754753256e+00
2.546327707754753256e+00
2.586641438032166285e+00
2.565640797143467378e+00
2.565640797143467378e+00
2.517264320810571387e+00
2.521389446699423331e+00
2.521389446699423331e+00
2.497201208532975336e+00
2.497201208532975336e+00
2.477888119144261214e+00
2.464387707144383377e+00
2.464387707144383377e+00
2.420511368144779851e+00
2.420511368144779851e+00
2.445074617755668811e+00
2.451637318033387469e+00
2.451637318033387469e+00
2.481638233588671305e+00
2.481638233588671305e+00
2.529264687032685366e+00
2.545577684865871326e+00
2.545577684865871326e+00
2.557390545365764378e+00
2.557390545365764378e+00
2.582516312143315229e+00
2.558515579699087716e+00
2.558515579699087716e+00
2.509014069032868388e+00
2.494201116977446731e+00
2.494201116977446731e+00
2.485950865199743731e+00
2.485950865199743731e+00
2.488575945310831372e+00
2.483325785088656090e+00
2.483325785088656090e+00
2.479388164922025517e+00
2.479388164922025517e+00
2.469075350199895880e+00
2.458012512588885201e+00
2.458012512588885201e+00
2.488200933866389963e+00
2.518389355143894726e+00
2.518389355143894726e+00
2.531889767143772563e+00
2.531889767143772563e+00
2.565453291421246895e+00
2.580266243476668553e+00
2.580266243476668553e+00
2.542765099032563203e+00
2.542765099032563203e+00
2.509014069032868388e+00
2.491576036866359534e+00
2.491576036866359534e+00
2.483700796533097499e+00
2.483700796533097499e+00
2.489888485366374749e+00
2.485575853755302767e+00
2.485575853755302767e+00
2.477513107699820250e+00
2.477513107699820250e+00
2.470762901699881109e+00
2.473012970366527341e+00
2.473012970366527341e+00
2.519701895199438546e+00
2.546890224921415147e+00
2.546890224921415147e+00
2.548390270699179450e+00
2.548390270699179450e+00
2.579891232032227588e+00
2.564328257087923557e+00
2.564328257087923557e+00
2.530389721366008260e+00
2.530389721366008260e+00
2.515014252143925599e+00
2.489513473921933784e+00
2.489513473921933784e+00
2.481450727866450823e+00
2.481450727866450823e+00
2.453699880977813219e+00
2.445637134922330258e+00
2.445637134922330258e+00
2.465137730033265306e+00
2.465137730033265306e+00
2.461950132755516218e+00
2.484825830866420393e+00
2.484825830866420393e+00
2.526077089754936722e+00
2.535264870143742133e+00
2.535264870143742133e+00
2.533952330088198757e+00
2.533952330088198757e+00
2.559265602587969646e+00
2.544265144810327506e+00
2.544265144810327506e+00
2.521389446699423331e+00
2.521389446699423331e+00
2.512951689199499850e+00
2.497013702810754854e+00
2.497013702810754854e+00
2.493263588366343875e+00
2.493263588366343875e+00
2.468325327311013950e+00
2.466450270088809127e+00
2.466450270088809127e+00
2.472825464644306859e+00
2.472825464644306859e+00
2.454637409588916075e+00
2.475075533310953091e+00
2.475075533310953091e+00
2.505451460310678335e+00
2.528139652699362028e+00
2.528139652699362028e+00
2.563015717032380181e+00
2.563015717032380181e+00
2.580641254921109962e+00
2.538077455977050256e+00
2.538077455977050256e+00
2.503388897366253030e+00
2.503388897366253030e+00
2.502451368755150174e+00
2.505638966032898818e+00
2.505638966032898818e+00
2.494013611255226248e+00
2.494013611255226248e+00
2.489325968199713301e+00
2.477513107699820250e+00
2.477513107699820250e+00
2.469262855922116806e+00
2.469262855922116806e+00
2.470950407422101591e+00
2.496076174199651998e+00
2.496076174199651998e+00
2.528889675588243957e+00
2.545390179143650844e+00
2.545390179143650844e+00
2.563953245643482592e+00
2.563953245643482592e+00
2.560203131199072502e+00
2.515014252143925599e+00
2.515014252143925599e+00
2.496826197088534371e+00
2.496826197088534371e+00
2.497201208532975336e+00
2.486700888088625661e+00
2.486700888088625661e+00
2.486138370921964214e+00
2.486138370921964214e+00
2.486888393810846587e+00
2.482575762199774161e+00
2.482575762199774161e+00
2.459137546922208095e+00
2.459137546922208095e+00
2.461200109866634289e+00
2.513889217810602261e+00
2.513889217810602261e+00
2.532452284310434454e+00
2.532452284310434454e+00
2.537139927365947845e+00
2.549702810754722826e+00
2.549702810754722826e+00
2.534889858699301168e+00
2.520264412366099993e+00
2.520264412366099993e+00
2.525702078310495757e+00
2.525702078310495757e+00
2.503763908810693550e+00
2.492701071199682428e+00
2.492701071199682428e+00
2.487263405255287552e+00
2.487263405255287552e+00
2.485950865199743731e+00
2.477325601977599767e+00
2.477325601977599767e+00
2.451074800866725578e+00
2.451074800866725578e+00
2.462512649922177665e+00
2.504138920255134515e+00
2.504138920255134515e+00
2.528889675588243957e+00
2.557390545365764378e+00
2.557390545365764378e+00
2.581578783532212373e+00
2.581578783532212373e+00
2.560953154087954431e+00
2.533577318643757348e+00
2.533577318643757348e+00
2.511451643421735547e+00
2.511451643421735547e+00
2.497951231421857266e+00
2.485200842310861358e+00
2.485200842310861358e+00
2.469825373088778253e+00
2.469825373088778253e+00
2.472075441755424485e+00
2.466262764366588645e+00
2.466262764366588645e+00
2.446387157811212187e+00
2.446387157811212187e+00
2.485950865199743731e+00
2.519701895199438546e+00
2.519701895199438546e+00
2.529264687032685366e+00
2.566953337199011198e+00
2.566953337199011198e+00
2.584953886532181944e+00
2.584953886532181944e+00
2.533952330088198757e+00
2.497951231421857266e+00
2.497951231421857266e+00
2.480888210699789376e+00
2.480888210699789376e+00
2.477888119144261214e+00
2.485013336588640875e+00
2.485013336588640875e+00
2.483700796533097499e+00
2.483700796533097499e+00
2.478825647755364070e+00
2.467575304422132465e+00
2.467575304422132465e+00
2.457074983977782345e+00
2.457074983977782345e+00
2.494201116977446731e+00
2.531702261421552080e+00
2.531702261421552080e+00
2.546140202032532773e+00
2.563953245643482592e+00
2.563953245643482592e+00
2.551390362254707167e+00
2.551390362254707167e+00
2.528702169866023475e+00
2.511826654866176511e+00
2.511826654866176511e+00
2.490638508255257122e+00
2.490638508255257122e+00
2.494763634144108178e+00
2.483138279366435608e+00
2.483138279366435608e+00
2.476200567644276429e+00
2.476200567644276429e+00
2.477888119144261214e+00
2.457262489700002828e+00
2.457262489700002828e+00
2.472450453199865894e+00
2.524764549699392902e+00
2.524764549699392902e+00
2.538452467421491221e+00
2.538452467421491221e+00
2.551202856532486685e+00
2.574641071810052750e+00
2.574641071810052750e+00
2.551390362254707167e+00
2.551390362254707167e+00
2.500951322977385871e+00
2.490451002533036640e+00
2.490451002533036640e+00
2.483888302255317981e+00
2.483888302255317981e+00
2.486513382366405178e+00
2.485200842310861358e+00
2.485200842310861358e+00
2.490263496810816157e+00
2.490263496810816157e+00
2.479575670644245999e+00
2.450324777977843649e+00
2.450324777977843649e+00
2.478263130588702179e+00
2.478263130588702179e+00
2.520264412366099993e+00
2.531514755699331598e+00
2.531514755699331598e+00
2.556078005310220558e+00
2.579141209143345659e+00
2.579141209143345659e+00
2.553265419476912879e+00
2.553265419476912879e+00
2.525889584032716240e+00
2.499263771477401086e+00
2.499263771477401086e+00
2.494763634144108178e+00
2.494763634144108178e+00
2.488200933866389963e+00
2.464012695699941968e+00
2.464012695699941968e+00
2.460825098422192880e+00
2.460825098422192880e+00
2.455949949644459451e+00
2.452199835200048916e+00
2.452199835200048916e+00
2.496263679921872480e+00
2.496263679921872480e+00
2.523452009643849081e+00
2.528889675588243957e+00
2.528889675588243957e+00
2.565640797143467378e+00
2.565640797143467378e+00
2.570328440198980768e+00
2.547452742088076594e+00
2.547452742088076594e+00
2.534327341532639721e+00
2.516701803643909940e+00
2.516701803643909940e+00
2.500763817255165389e+00
2.500763817255165389e+00
2.491201025421918569e+00
2.467012787255470574e+00
2.467012787255470574e+00
2.457637501144443792e+00
2.457637501144443792e+00
2.442074526200140649e+00
2.448262215033417899e+00
2.448262215033417899e+00
2.493638599810785283e+00
2.493638599810785283e+00
2.516889309366130423e+00
2.550265327921384717e+00
2.550265327921384717e+00
2.579328714865566141e+00
2.564515762810144484e+00
2.564515762810144484e+00
2.528702169866023475e+00
2.528702169866023475e+00
2.510701620532853173e+00
2.495701162755211033e+00
2.495701162755211033e+00
2.495701162755211033e+00
2.495701162755211033e+00
2.481450727866450823e+00
2.469637867366557771e+00
2.469637867366557771e+00
2.466825281533250092e+00
2.466825281533250092e+00
2.449199743644520311e+00
2.466262764366588645e+00
2.466262764366588645e+00
2.511451643421735547e+00
2.511451643421735547e+00
2.533577318643757348e+00
2.554952970976897664e+00
2.554952970976897664e+00
2.576703634754478500e+00
2.551202856532486685e+00
2.551202856532486685e+00
2.522701986754967152e+00
2.522701986754967152e+00
2.512389172032837958e+00
2.496638691366313889e+00
2.496638691366313889e+00
2.495888668477431516e+00
2.495888668477431516e+00
2.489138462477492819e+00
2.475450544755394056e+00
2.475450544755394056e+00
2.469075350199895880e+00
2.469075350199895880e+00
2.452012329477828434e+00
2.474700521866512126e+00
2.474700521866512126e+00
2.522326975310525743e+00
2.522326975310525743e+00
2.536389904477065471e+00
2.567328348643452163e+00
2.567328348643452163e+00
2.572391003143406518e+00
2.541452558977019383e+00
2.541452558977019383e+00
2.522326975310525743e+00
2.522326975310525743e+00
2.508826563310647906e+00
2.496451185644092963e+00
2.496451185644092963e+00
2.489888485366374749e+00
2.489888485366374749e+00
2.472450453199865894e+00
2.469637867366557771e+00
2.469637867366557771e+00
2.448262215033417899e+00
2.448262215033417899e+00
2.444512100589007364e+00
2.502263863032929692e+00
2.502263863032929692e+00
2.529264687032685366e+00
2.524952055421613384e+00
2.524952055421613384e+00
2.546702719199194664e+00
2.546702719199194664e+00
2.554577959532456255e+00
2.525702078310495757e+00
2.525702078310495757e+00
2.518389355143894726e+00
2.518389355143894726e+00
2.501701345866268245e+00
2.502076357310709209e+00
2.502076357310709209e+00
2.495138645588549586e+00
2.495138645588549586e+00
2.479388164922025517e+00
2.477888119144261214e+00
2.477888119144261214e+00
2.455199926755577522e+00
2.455199926755577522e+00
2.465325235755485789e+00
2.509576586199530279e+00
2.509576586199530279e+00
2.520451918088320475e+00
2.533389812921536866e+00
2.533389812921536866e+00
2.564328257087923557e+00
2.564328257087923557e+00
2.551765373699148576e+00
2.517826837977233279e+00
2.517826837977233279e+00
2.506013977477339782e+00
2.506013977477339782e+00
2.493076082644123392e+00
2.497388714255195818e+00
2.497388714255195818e+00
2.483138279366435608e+00
2.483138279366435608e+00
2.478450636310922661e+00
2.477700613422040732e+00
2.477700613422040732e+00
2.457637501144443792e+00
2.457637501144443792e+00
2.479013153477584552e+00
2.534514847254860204e+00
2.534514847254860204e+00
2.551765373699148576e+00
2.551765373699148576e+00
2.563765739921262110e+00
2.556453016754661967e+00
2.556453016754661967e+00
2.524764549699392902e+00
2.507889034699545494e+00
2.507889034699545494e+00
2.496263679921872480e+00
2.496263679921872480e+00
2.484263313699758946e+00
2.482013245033112270e+00
2.482013245033112270e+00
2.466825281533250092e+00
2.466825281533250092e+00
2.469637867366557771e+00
2.466262764366588645e+00
2.466262764366588645e+00
2.447137180700094561e+00
2.488013428144169481e+00
2.488013428144169481e+00
2.523264503921628599e+00
2.523264503921628599e+00
2.529452192754905848e+00
2.573703543198950339e+00
2.573703543198950339e+00
2.572578508865627445e+00
2.572578508865627445e+00
2.537702444532609292e+00
2.517826837977233279e+00
2.517826837977233279e+00
2.500388805810724424e+00
2.500388805810724424e+00
2.495888668477431516e+00
2.491201025421918569e+00
2.491201025421918569e+00
2.482200750755333196e+00
2.482200750755333196e+00
2.475825556199835464e+00
2.453512375255592737e+00
2.453512375255592737e+00
2.458575029755546648e+00
2.509389080477309353e+00
2.509389080477309353e+00
2.534139835810419239e+00
2.534139835810419239e+00
2.549702810754722826e+00
2.571640980254524589e+00
2.571640980254524589e+00
2.562640705587938772e+00
2.562640705587938772e+00
2.527014618366038690e+00
2.510889126255073656e+00
2.510889126255073656e+00
2.491576036866359534e+00
2.491576036866359534e+00
2.486325876644184696e+00
2.480513199255348411e+00
2.480513199255348411e+00
2.478638142033143144e+00
2.485950865199743731e+00
2.485950865199743731e+00
2.456887478255561863e+00
2.456887478255561863e+00
2.471325418866542556e+00
2.514264229255043226e+00
2.514264229255043226e+00
2.530202215643787778e+00
2.530202215643787778e+00
2.540327524643696488e+00
2.572015991698965554e+00
2.572015991698965554e+00
2.555327982421338628e+00
2.555327982421338628e+00
2.519889400921659028e+00
2.508451551866206941e+00
2.508451551866206941e+00
2.501138828699606353e+00
2.497951231421857266e+00
2.497951231421857266e+00
2.479388164922025517e+00
2.479388164922025517e+00
2.467762810144352947e+00
2.469637867366557771e+00
2.469637867366557771e+00
2.430636677144688562e+00
2.430636677144688562e+00
2.462512649922177665e+00
2.510701620532853173e+00
2.510701620532853173e+00
2.529827204199346813e+00
2.529827204199346813e+00
2.572391003143406518e+00
2.578953703421124732e+00
2.578953703421124732e+00
2.535452375865963059e+00
2.504701437421796406e+00
2.504701437421796406e+00
2.486513382366405178e+00
2.486513382366405178e+00
2.489138462477492819e+00
2.489700979644154266e+00
2.489700979644154266e+00
2.476388073366496911e+00
2.476388073366496911e+00
2.472637958922086376e+00
2.462137638477736701e+00
2.462137638477736701e+00
2.461950132755516218e+00
2.461950132755516218e+00
2.509014069032868388e+00
2.539765007477034597e+00
2.539765007477034597e+00
2.554952970976897664e+00
2.554952970976897664e+00
2.581578783532212373e+00
2.571640980254524589e+00
2.571640980254524589e+00
2.532827295754875419e+00
2.515951780755027567e+00
2.515951780755027567e+00
2.493638599810785283e+00
2.493638599810785283e+00
2.489325968199713301e+00
2.480138187810907002e+00
2.480138187810907002e+00
2.466825281533250092e+00
2.466825281533250092e+00
2.466825281533250092e+00
2.450699789422284613e+00
2.450699789422284613e+00
2.467387798699911539e+00
2.467387798699911539e+00
2.513139194921720332e+00
2.529264687032685366e+00
2.529264687032685366e+00
2.548952787865840897e+00
2.578766197698904250e+00
2.578766197698904250e+00
2.561140659810174913e+00
2.561140659810174913e+00
2.527014618366038690e+00
2.509764091921750762e+00
2.509764091921750762e+00
2.486700888088625661e+00
2.477325601977599767e+00
2.465325235755485789e+00
2.465325235755485789e+00
2.464200201422162451e+00
2.464200201422162451e+00
2.452574846644489881e+00
2.484825830866420393e+00
2.484825830866420393e+00
2.525702078310495757e+00
2.525702078310495757e+00
2.524389538254951937e+00
2.550265327921384717e+00
2.550265327921384717e+00
2.571828485976745071e+00
2.571828485976745071e+00
2.545202673421430362e+00
2.520639423810540958e+00
2.520639423810540958e+00
2.504138920255134515e+00
2.487263405255287552e+00
2.487263405255287552e+00
2.489325968199713301e+00
2.489325968199713301e+00
2.482200750755333196e+00
2.479763176366466482e+00
2.479763176366466482e+00
2.465887752922147680e+00
2.465887752922147680e+00
2.450699789422284613e+00
2.493451094088564801e+00
2.493451094088564801e+00
2.524577043977172419e+00
2.524577043977172419e+00
2.529264687032685366e+00
2.555890499588000075e+00
2.555890499588000075e+00
2.557578051087984861e+00
2.531327249977111116e+00
2.531327249977111116e+00
2.511076631977294138e+00
2.511076631977294138e+00
2.487825922421948999e+00
2.485950865199743731e+00
2.485950865199743731e+00
2.480325693533127485e+00
2.480325693533127485e+00
2.475263039033173573e+00
2.474138004699850679e+00
2.474138004699850679e+00
2.458387524033326166e+00
2.458387524033326166e+00
2.468700338755454915e+00
2.512764183477279367e+00
2.530014709921567295e+00
2.549515305032502344e+00
2.575203588976714197e+00
2.575203588976714197e+00
2.559453108310190128e+00
2.526077089754936722e+00
2.526077089754936722e+00
2.511826654866176511e+00
2.511826654866176511e+00
2.489700979644154266e+00
2.485388348033082284e+00
2.485388348033082284e+00
2.478825647755364070e+00
2.478825647755364070e+00
2.465137730033265306e+00
2.462325144199957183e+00
2.462325144199957183e+00
2.456512466811120898e+00
2.476575579088717394e+00
2.476575579088717394e+00
2.523827021088290046e+00
2.523827021088290046e+00
2.534702352977080686e+00
2.563015717032380181e+00
2.563015717032380181e+00
2.584953886532181944e+00
2.584953886532181944e+00
2.557015533921323414e+00
2.516514297921689458e+00
2.516514297921689458e+00
2.504701437421796406e+00
2.504701437421796406e+00
2.486700888088625661e+00
2.476763084810937876e+00
2.476763084810937876e+00
2.470950407422101591e+00
2.470950407422101591e+00
2.468700338755454915e+00
2.457449995422223310e+00
2.457449995422223310e+00
2.439449446089053009e+00
2.481075716422009858e+00
2.481075716422009858e+00
2.528889675588243957e+00
2.528889675588243957e+00
2.539952513199255080e+00
2.567515854365672645e+00
2.567515854365672645e+00
2.570328440198980768e+00
2.570328440198980768e+00
2.548015259254738041e+00
2.519139378032776655e+00
2.519139378032776655e+00
2.504888943144016888e+00
2.504888943144016888e+00
2.492513565477461945e+00
2.491576036866359534e+00
2.491576036866359534e+00
2.475825556199835464e+00
2.475825556199835464e+00
2.472075441755424485e+00
2.457825006866664719e+00
2.457825006866664719e+00
2.448074709311197417e+00
2.492326059755241463e+00
2.492326059755241463e+00
2.524764549699392902e+00
2.524764549699392902e+00
2.544827661976988953e+00
2.576891140476698983e+00
2.576891140476698983e+00
2.560765648365733949e+00
2.560765648365733949e+00
2.526264595477157204e+00
2.516139286477248493e+00
2.516139286477248493e+00
2.500951322977385871e+00
2.496076174199651998e+00
2.496076174199651998e+00
2.485763359477523249e+00
2.485763359477523249e+00
2.480513199255348411e+00
2.473200476088747823e+00
2.473200476088747823e+00
2.448449720755638381e+00
2.448449720755638381e+00
2.454262398144474666e+00
2.506951506088442638e+00
2.506951506088442638e+00
2.531139744254890633e+00
2.531139744254890633e+00
2.550077822199164235e+00
2.579703726310007106e+00
2.579703726310007106e+00
2.561328165532395840e+00
2.561328165532395840e+00
2.525889584032716240e+00
2.511826654866176511e+00
2.511826654866176511e+00
2.498701254310739639e+00
2.498701254310739639e+00
2.498138737144077748e+00
2.474888027588732609e+00
2.474888027588732609e+00
2.461950132755516218e+00
2.455199926755577522e+00
2.455199926755577522e+00
2.439449446089053009e+00
2.439449446089053009e+00
2.464762718588824342e+00
2.512764183477279367e+00
2.512764183477279367e+00
2.522514481032746669e+00
2.557578051087984861e+00
2.557578051087984861e+00
2.571453474532304107e+00
2.571453474532304107e+00
2.546327707754753256e+00
2.513701712088381779e+00
2.513701712088381779e+00
2.500951322977385871e+00
2.491013519699698087e+00
2.491013519699698087e+00
2.488013428144169481e+00
2.488013428144169481e+00
2.482200750755333196e+00
2.481263222144230340e+00
2.481263222144230340e+00
2.466637775811029609e+00
2.466637775811029609e+00
2.463262672811060039e+00
2.507326517532883603e+00
2.507326517532883603e+00
2.542577593310342721e+00
2.542577593310342721e+00
2.544265144810327506e+00
2.557953062532425825e+00
2.557953062532425825e+00
2.566578325754570233e+00
2.566578325754570233e+00
2.538264961699270739e+00
2.506951506088442638e+00
2.506951506088442638e+00
2.476388073366496911e+00
2.464762718588824342e+00
2.464762718588824342e+00
2.464575212866603859e+00
2.464575212866603859e+00
2.468137821588793912e+00
2.475638050477614982e+00
2.475638050477614982e+00
2.459325052644428578e+00
2.459325052644428578e+00
2.467575304422132465e+00
2.515389263588366120e+00
2.515389263588366120e+00
2.534889858699301168e+00
2.534889858699301168e+00
2.550265327921384717e+00
2.577266151921139947e+00
