2.521576952421643814e+00
2.521576952421643814e+00
2.521576952421643814e+00
2.521576952421643814e+00
2.518576860866115208e+00
2.518576860866115208e+00
2.518576860866115208e+00
2.497951231421857266e+00
2.497951231421857266e+00
2.497951231421857266e+00
2.445262123477889293e+00
2.445262123477889293e+00
2.445262123477889293e+00
2.445262123477889293e+00
2.438699423200171079e+00
2.438699423200171079e+00
2.438699423200171079e+00
2.452574846644489881e+00
2.452574846644489881e+00
2.452574846644489881e+00
2.452574846644489881e+00
2.471887936033204003e+00
2.471887936033204003e+00
2.471887936033204003e+00
2.532077272865993045e+00
2.532077272865993045e+00
2.532077272865993045e+00
2.532077272865993045e+00
2.549327799310281861e+00
2.549327799310281861e+00
2.549327799310281861e+00
2.521951963866084778e+00
2.521951963866084778e+00
2.521951963866084778e+00
2.521951963866084778e+00
2.470200384533219218e+00
2.470200384533219218e+00
2.470200384533219218e+00
2.446949674977874079e+00
2.446949674977874079e+00
2.446949674977874079e+00
2.564328257087923557e+00
2.564328257087923557e+00
2.564328257087923557e+00
2.564328257087923557e+00
2.562078188421277325e+00
2.562078188421277325e+00
2.562078188421277325e+00
2.498326242866298674e+00
2.498326242866298674e+00
2.498326242866298674e+00
2.498326242866298674e+00
2.468137821588793912e+00
2.468137821588793912e+00
2.468137821588793912e+00
2.454449903866695148e+00
2.454449903866695148e+00
2.454449903866695148e+00
2.462700155644398592e+00
2.462700155644398592e+00
2.462700155644398592e+00
2.462700155644398592e+00
2.473200476088747823e+00
2.473200476088747823e+00
2.473200476088747823e+00
2.451637318033387469e+00
2.451637318033387469e+00
2.451637318033387469e+00
2.451637318033387469e+00
2.482575762199774161e+00
2.482575762199774161e+00
2.482575762199774161e+00
2.505451460310678335e+00
2.505451460310678335e+00
2.505451460310678335e+00
2.505451460310678335e+00
2.534139835810419239e+00
2.534139835810419239e+00
2.534139835810419239e+00
2.569015900143436948e+00
2.569015900143436948e+00
2.569015900143436948e+00
2.569015900143436948e+00
2.596204229865413549e+00
2.596204229865413549e+00
2.596204229865413549e+00
2.532827295754875419e+00
2.532827295754875419e+00
2.532827295754875419e+00
2.452199835200048916e+00
2.452199835200048916e+00
2.452199835200048916e+00
2.452199835200048916e+00
2.479388164922025517e+00
2.479388164922025517e+00
2.496076174199651998e+00
2.496076174199651998e+00
2.496076174199651998e+00
2.513514206366161297e+00
2.513514206366161297e+00
2.513514206366161297e+00
2.513514206366161297e+00
2.507701528977324568e+00
2.507701528977324568e+00
2.507701528977324568e+00
2.497951231421857266e+00
2.497951231421857266e+00
2.497951231421857266e+00
2.497951231421857266e+00
2.474513016144291644e+00
2.474513016144291644e+00
2.474513016144291644e+00
2.452387340922269399e+00
2.452387340922269399e+00
2.452387340922269399e+00
2.423323953978087530e+00
2.423323953978087530e+00
2.423323953978087530e+00
2.423323953978087530e+00
2.427824091311380439e+00
2.427824091311380439e+00
2.427824091311380439e+00
2.531514755699331598e+00
2.531514755699331598e+00
2.531514755699331598e+00
2.531514755699331598e+00
2.584766380809961461e+00
2.584766380809961461e+00
2.584766380809961461e+00
2.573516037476729856e+00
2.573516037476729856e+00
2.573516037476729856e+00
2.562078188421277325e+00
2.562078188421277325e+00
2.562078188421277325e+00
2.562078188421277325e+00
2.496076174199651998e+00
2.496076174199651998e+00
2.496076174199651998e+00
2.446199652088991705e+00
2.446199652088991705e+00
2.446199652088991705e+00
2.487450910977508034e+00
2.487450910977508034e+00
2.487450910977508034e+00
2.487450910977508034e+00
2.488763451033051854e+00
2.488763451033051854e+00
2.488763451033051854e+00
2.485763359477523249e+00
2.485763359477523249e+00
2.485763359477523249e+00
2.485763359477523249e+00
2.518764366588335690e+00
2.518764366588335690e+00
2.518764366588335690e+00
2.487450910977508034e+00
2.487450910977508034e+00
2.487450910977508034e+00
2.449949766533402684e+00
2.449949766533402684e+00
2.449949766533402684e+00
2.449949766533402684e+00
2.440574480422376347e+00
2.440574480422376347e+00
2.440574480422376347e+00
2.509201574755088870e+00
2.509201574755088870e+00
2.509201574755088870e+00
2.509201574755088870e+00
2.549890316476943308e+00
2.549890316476943308e+00
2.549890316476943308e+00
2.555327982421338628e+00
2.555327982421338628e+00
2.555327982421338628e+00
2.536577410199285953e+00
2.536577410199285953e+00
2.536577410199285953e+00
2.536577410199285953e+00
2.460825098422192880e+00
2.460825098422192880e+00
2.460825098422192880e+00
2.480888210699789376e+00
2.480888210699789376e+00
2.480888210699789376e+00
2.480888210699789376e+00
2.558515579699087716e+00
2.558515579699087716e+00
2.558515579699087716e+00
2.534702352977080686e+00
2.534702352977080686e+00
2.534702352977080686e+00
2.534702352977080686e+00
2.497201208532975336e+00
2.497201208532975336e+00
2.497201208532975336e+00
2.465700247199926753e+00
2.465700247199926753e+00
2.465700247199926753e+00
2.460262581255531433e+00
2.460262581255531433e+00
2.460262581255531433e+00
2.460262581255531433e+00
2.455012421033357040e+00
2.455012421033357040e+00
2.455012421033357040e+00
2.434011780144657688e+00
2.434011780144657688e+00
2.434011780144657688e+00
2.467950315866573430e+00
2.467950315866573430e+00
2.467950315866573430e+00
2.467950315866573430e+00
2.494013611255226248e+00
2.494013611255226248e+00
2.494013611255226248e+00
2.494763634144108178e+00
2.494763634144108178e+00
2.494763634144108178e+00
2.494763634144108178e+00
2.514076723532822744e+00
2.514076723532822744e+00
2.514076723532822744e+00
2.575766106143375644e+00
2.575766106143375644e+00
2.575766106143375644e+00
2.581016266365550926e+00
2.581016266365550926e+00
2.581016266365550926e+00
2.581016266365550926e+00
2.570703451643421733e+00
2.570703451643421733e+00
2.570703451643421733e+00
2.531139744254890633e+00
2.531139744254890633e+00
2.531139744254890633e+00
2.531139744254890633e+00
2.560765648365733949e+00
2.560765648365733949e+00
2.560765648365733949e+00
2.581016266365550926e+00
2.581016266365550926e+00
2.581016266365550926e+00
2.485388348033082284e+00
2.485388348033082284e+00
2.485388348033082284e+00
2.485388348033082284e+00
2.479950682088686964e+00
2.479950682088686964e+00
2.479950682088686964e+00
2.427824091311380439e+00
2.427824091311380439e+00
2.427824091311380439e+00
2.427824091311380439e+00
2.370259834589678594e+00
2.370259834589678594e+00
2.370259834589678594e+00
2.355259376812036454e+00
2.355259376812036454e+00
2.355259376812036454e+00
2.382072695089572090e+00
2.382072695089572090e+00
2.382072695089572090e+00
2.382072695089572090e+00
2.479200659199805035e+00
2.479200659199805035e+00
2.479200659199805035e+00
2.589829035309915373e+00
2.589829035309915373e+00
2.589829035309915373e+00
2.589829035309915373e+00
2.562640705587938772e+00
2.562640705587938772e+00
2.562640705587938772e+00
2.525514572588274831e+00
2.525514572588274831e+00
2.525514572588274831e+00
2.540515030365916971e+00
2.540515030365916971e+00
2.540515030365916971e+00
2.540515030365916971e+00
2.512201666310617476e+00
2.512201666310617476e+00
2.512201666310617476e+00
2.472075441755424485e+00
2.472075441755424485e+00
2.472075441755424485e+00
2.475075533310953091e+00
2.475075533310953091e+00
2.475075533310953091e+00
2.475075533310953091e+00
2.485575853755302767e+00
2.485575853755302767e+00
2.485575853755302767e+00
2.532639790032654936e+00
2.532639790032654936e+00
2.532639790032654936e+00
2.532639790032654936e+00
2.525889584032716240e+00
2.525889584032716240e+00
2.525889584032716240e+00
2.533202307199316383e+00
2.533202307199316383e+00
2.533202307199316383e+00
2.533202307199316383e+00
2.541827570421460791e+00
2.541827570421460791e+00
2.541827570421460791e+00
2.508451551866206941e+00
2.508451551866206941e+00
2.508451551866206941e+00
2.493826105533005766e+00
2.493826105533005766e+00
2.493826105533005766e+00
2.493826105533005766e+00
2.459325052644428578e+00
2.459325052644428578e+00
2.459325052644428578e+00
2.437761894589068223e+00
2.437761894589068223e+00
2.437761894589068223e+00
2.437761894589068223e+00
2.498701254310739639e+00
2.498701254310739639e+00
2.498701254310739639e+00
2.523264503921628599e+00
2.523264503921628599e+00
2.523264503921628599e+00
2.532264778588213971e+00
2.532264778588213971e+00
2.532264778588213971e+00
2.532264778588213971e+00
2.593579149754326352e+00
2.593579149754326352e+00
2.593579149754326352e+00
2.505826471755119300e+00
2.505826471755119300e+00
2.505826471755119300e+00
2.505826471755119300e+00
2.459887569811090469e+00
2.459887569811090469e+00
2.459887569811090469e+00
2.460262581255531433e+00
2.460262581255531433e+00
2.460262581255531433e+00
2.460262581255531433e+00
2.510889126255073656e+00
2.510889126255073656e+00
2.510889126255073656e+00
2.463825189977721486e+00
2.463825189977721486e+00
2.463825189977721486e+00
2.404198370311593891e+00
2.404198370311593891e+00
2.404198370311593891e+00
2.404198370311593891e+00
2.387697866756187448e+00
2.387697866756187448e+00
2.387697866756187448e+00
2.446762169255653596e+00
2.446762169255653596e+00
2.446762169255653596e+00
2.446762169255653596e+00
2.580828760643330444e+00
2.580828760643330444e+00
2.580828760643330444e+00
2.602579424420911280e+00
2.602579424420911280e+00
2.602579424420911280e+00
2.538264961699270739e+00
2.538264961699270739e+00
2.538264961699270739e+00
2.538264961699270739e+00
2.539389996032593633e+00
2.539389996032593633e+00
2.539389996032593633e+00
2.563390728476821145e+00
2.563390728476821145e+00
2.563390728476821145e+00
2.563390728476821145e+00
2.499263771477401086e+00
2.499263771477401086e+00
2.499263771477401086e+00
2.510514114810632691e+00
2.510514114810632691e+00
2.510514114810632691e+00
2.468512833033234433e+00
2.468512833033234433e+00
2.468512833033234433e+00
2.468512833033234433e+00
2.357134434034241721e+00
2.357134434034241721e+00
2.357134434034241721e+00
2.396885647144993747e+00
2.396885647144993747e+00
2.396885647144993747e+00
2.396885647144993747e+00
2.523452009643849081e+00
2.523452009643849081e+00
2.523452009643849081e+00
2.560765648365733949e+00
2.560765648365733949e+00
2.560765648365733949e+00
2.560765648365733949e+00
2.527764641254921063e+00
2.527764641254921063e+00
2.527764641254921063e+00
2.543890133365886541e+00
2.543890133365886541e+00
2.543890133365886541e+00
2.581391277809991891e+00
2.581391277809991891e+00
2.581391277809991891e+00
2.581391277809991891e+00
2.570515945921201251e+00
2.570515945921201251e+00
2.570515945921201251e+00
2.548390270699179450e+00
2.548390270699179450e+00
2.548390270699179450e+00
2.491763542588580016e+00
2.491763542588580016e+00
2.491763542588580016e+00
2.491763542588580016e+00
2.460825098422192880e+00
2.460825098422192880e+00
2.460825098422192880e+00
2.536014893032624506e+00
2.536014893032624506e+00
2.536014893032624506e+00
2.536014893032624506e+00
2.517264320810571387e+00
2.517264320810571387e+00
2.517264320810571387e+00
2.579703726310007106e+00
2.579703726310007106e+00
2.579703726310007106e+00
2.452574846644489881e+00
2.452574846644489881e+00
2.452574846644489881e+00
2.452574846644489881e+00
2.430636677144688562e+00
2.430636677144688562e+00
2.430636677144688562e+00
2.459887569811090469e+00
2.459887569811090469e+00
2.459887569811090469e+00
2.459887569811090469e+00
2.485388348033082284e+00
2.485388348033082284e+00
2.485388348033082284e+00
2.503013885921811621e+00
2.503013885921811621e+00
2.503013885921811621e+00
2.443387066255684470e+00
2.443387066255684470e+00
2.443387066255684470e+00
2.443387066255684470e+00
2.413573656422620228e+00
2.413573656422620228e+00
2.413573656422620228e+00
2.453137363811151772e+00
2.453137363811151772e+00
2.453137363811151772e+00
2.453137363811151772e+00
2.488388439588610446e+00
2.488388439588610446e+00
2.488388439588610446e+00
2.499638782921842051e+00
2.499638782921842051e+00
2.499638782921842051e+00
2.499638782921842051e+00
2.546702719199194664e+00
2.546702719199194664e+00
2.546702719199194664e+00
2.531139744254890633e+00
2.531139744254890633e+00
2.531139744254890633e+00
2.491013519699698087e+00
2.491013519699698087e+00
2.491013519699698087e+00
2.491013519699698087e+00
2.397635670033875677e+00
2.397635670033875677e+00
2.397635670033875677e+00
2.453512375255592737e+00
2.453512375255592737e+00
2.453512375255592737e+00
2.453512375255592737e+00
2.516326792199468976e+00
2.516326792199468976e+00
2.516326792199468976e+00
2.562078188421277325e+00
2.562078188421277325e+00
2.562078188421277325e+00
2.648330820642719630e+00
2.648330820642719630e+00
2.648330820642719630e+00
2.648330820642719630e+00
2.643268166142765718e+00
2.643268166142765718e+00
2.643268166142765718e+00
2.596204229865413549e+00
2.596204229865413549e+00
2.596204229865413549e+00
2.596204229865413549e+00
2.530389721366008260e+00
2.530389721366008260e+00
2.530389721366008260e+00
2.455574938200018487e+00
2.455574938200018487e+00
2.455574938200018487e+00
2.455574938200018487e+00
2.512014160588396994e+00
2.512014160588396994e+00
2.512014160588396994e+00
2.439824457533493973e+00
2.439824457533493973e+00
2.439824457533493973e+00
2.460262581255531433e+00
2.460262581255531433e+00
2.460262581255531433e+00
2.460262581255531433e+00
2.416198736533707869e+00
2.416198736533707869e+00
2.416198736533707869e+00
2.407948484756004870e+00
2.407948484756004870e+00
2.407948484756004870e+00
2.407948484756004870e+00
2.444137089144566399e+00
2.444137089144566399e+00
2.444137089144566399e+00
2.495701162755211033e+00
2.495701162755211033e+00
2.495701162755211033e+00
2.423698965422528495e+00
2.423698965422528495e+00
2.423698965422528495e+00
2.423698965422528495e+00
2.493826105533005766e+00
2.493826105533005766e+00
2.493826105533005766e+00
2.569953428754539804e+00
2.569953428754539804e+00
2.569953428754539804e+00
2.569953428754539804e+00
2.543140110477004168e+00
2.543140110477004168e+00
2.543140110477004168e+00
2.514451734977264152e+00
2.514451734977264152e+00
2.514451734977264152e+00
2.514451734977264152e+00
2.524389538254951937e+00
2.524389538254951937e+00
2.524389538254951937e+00
2.551390362254707167e+00
2.551390362254707167e+00
2.551390362254707167e+00
2.500576311532944906e+00
2.500576311532944906e+00
2.500576311532944906e+00
2.500576311532944906e+00
2.482575762199774161e+00
2.482575762199774161e+00
2.482575762199774161e+00
2.588704000976592479e+00
2.588704000976592479e+00
2.588704000976592479e+00
2.588704000976592479e+00
2.508826563310647906e+00
2.508826563310647906e+00
2.508826563310647906e+00
2.441699514755699685e+00
2.441699514755699685e+00
2.441699514755699685e+00
2.441699514755699685e+00
2.421073885311441742e+00
2.421073885311441742e+00
2.421073885311441742e+00
2.482200750755333196e+00
2.482200750755333196e+00
2.482200750755333196e+00
2.473387981810968306e+00
2.473387981810968306e+00
2.473387981810968306e+00
2.473387981810968306e+00
2.499076265755180604e+00
2.499076265755180604e+00
2.499076265755180604e+00
2.494201116977446731e+00
2.494201116977446731e+00
2.494201116977446731e+00
2.494201116977446731e+00
2.518764366588335690e+00
2.518764366588335690e+00
2.518764366588335690e+00
2.493826105533005766e+00
2.493826105533005766e+00
2.493826105533005766e+00
2.467387798699911539e+00
2.467387798699911539e+00
2.467387798699911539e+00
2.467387798699911539e+00
2.581766289254432856e+00
2.581766289254432856e+00
2.581766289254432856e+00
2.544077639088107023e+00
2.544077639088107023e+00
2.544077639088107023e+00
2.544077639088107023e+00
2.523452009643849081e+00
2.523452009643849081e+00
2.523452009643849081e+00
2.511826654866176511e+00
2.511826654866176511e+00
2.511826654866176511e+00
2.516514297921689458e+00
2.516514297921689458e+00
2.516514297921689458e+00
2.516514297921689458e+00
2.523452009643849081e+00
2.523452009643849081e+00
2.523452009643849081e+00
2.489888485366374749e+00
2.489888485366374749e+00
2.489888485366374749e+00
2.489888485366374749e+00
2.482200750755333196e+00
2.482200750755333196e+00
2.482200750755333196e+00
2.509201574755088870e+00
2.509201574755088870e+00
2.509201574755088870e+00
2.509201574755088870e+00
2.551577867976928093e+00
2.551577867976928093e+00
2.551577867976928093e+00
2.591516586809900158e+00
2.591516586809900158e+00
2.591516586809900158e+00
2.624705099642933526e+00
2.624705099642933526e+00
2.624705099642933526e+00
2.624705099642933526e+00
2.463262672811060039e+00
2.463262672811060039e+00
2.463262672811060039e+00
2.299757683034760802e+00
2.299757683034760802e+00
2.299757683034760802e+00
2.299757683034760802e+00
2.401385784478286212e+00
2.401385784478286212e+00
2.401385784478286212e+00
2.670268990142521393e+00
2.670268990142521393e+00
2.670268990142521393e+00
2.698582354197820887e+00
2.698582354197820887e+00
2.698582354197820887e+00
2.698582354197820887e+00
2.572203497421186036e+00
2.572203497421186036e+00
2.572203497421186036e+00
2.360134525589770327e+00
2.360134525589770327e+00
2.360134525589770327e+00
2.360134525589770327e+00
2.255131321146275347e+00
2.255131321146275347e+00
2.255131321146275347e+00
2.251006195257423848e+00
2.251006195257423848e+00
2.251006195257423848e+00
2.358259468367565059e+00
2.358259468367565059e+00
2.358259468367565059e+00
2.358259468367565059e+00
2.398948210089419053e+00
2.398948210089419053e+00
2.398948210089419053e+00
2.509576586199530279e+00
2.509576586199530279e+00
2.509576586199530279e+00
2.509576586199530279e+00
2.592454115421003014e+00
2.592454115421003014e+00
2.592454115421003014e+00
2.667456404309213713e+00
2.667456404309213713e+00
2.667456404309213713e+00
2.667456404309213713e+00
2.633142857142857007e+00
2.633142857142857007e+00
2.633142857142857007e+00
2.620579973754082026e+00
2.620579973754082026e+00
2.620579973754082026e+00
2.629767754142887881e+00
2.629767754142887881e+00
2.629767754142887881e+00
2.574828577532273233e+00
2.574828577532273233e+00
2.574828577532273233e+00
2.574828577532273233e+00
2.469450361644337288e+00
2.469450361644337288e+00
2.408323496200445835e+00
2.449387249366740793e+00
2.449387249366740793e+00
2.459887569811090469e+00
2.459887569811090469e+00
2.454449903866695148e+00
2.536202398754844989e+00
2.536202398754844989e+00
2.483888302255317981e+00
2.534139835810419239e+00
2.534139835810419239e+00
2.523076998199408116e+00
2.523076998199408116e+00
2.563390728476821145e+00
2.532452284310434454e+00
2.532452284310434454e+00
2.519889400921659028e+00
2.519889400921659028e+00
2.458950041199987613e+00
2.384885280922879769e+00
2.384885280922879769e+00
2.420511368144779851e+00
2.420511368144779851e+00
2.469075350199895880e+00
2.446574663533433114e+00
2.446574663533433114e+00
2.515201757866145638e+00
2.581766289254432856e+00
2.581766289254432856e+00
2.599016815698721228e+00
2.599016815698721228e+00
2.584016357921079532e+00
2.548015259254738041e+00
2.548015259254738041e+00
2.540140018921475562e+00
2.540140018921475562e+00
2.480325693533127485e+00
2.297695120090334608e+00
2.297695120090334608e+00
2.330321115756706529e+00
2.330321115756706529e+00
2.320758323923459709e+00
2.484450819421979428e+00
2.484450819421979428e+00
2.549327799310281861e+00
2.549327799310281861e+00
2.656206060975981664e+00
2.676269173253578604e+00
2.676269173253578604e+00
2.595829218420972584e+00
2.595829218420972584e+00
2.571640980254524589e+00
2.558328073976867234e+00
2.558328073976867234e+00
2.533202307199316383e+00
2.462325144199957183e+00
2.462325144199957183e+00
2.433449262977995797e+00
2.433449262977995797e+00
2.324320932645649762e+00
2.401010773033844803e+00
2.401010773033844803e+00
2.397073152867214230e+00
2.397073152867214230e+00
2.569578417310098839e+00
2.703832514419995725e+00
2.703832514419995725e+00
2.635017914365062275e+00
2.635017914365062275e+00
2.599391827143162192e+00
2.433074251533554833e+00
2.433074251533554833e+00
2.430449171422468080e+00
2.430449171422468080e+00
2.457074983977782345e+00
2.426699056978057101e+00
2.426699056978057101e+00
2.533952330088198757e+00
2.554202948088015290e+00
2.554202948088015290e+00
2.611767204809717136e+00
2.611767204809717136e+00
2.625830133976256420e+00
2.476200567644276429e+00
2.476200567644276429e+00
2.260568987090670667e+00
2.260568987090670667e+00
2.281007110812707683e+00
2.461012604144413807e+00
2.461012604144413807e+00
2.575203588976714197e+00
2.575203588976714197e+00
2.667456404309213713e+00
2.548952787865840897e+00
2.548952787865840897e+00
2.413948667867061193e+00
2.413948667867061193e+00
2.421636402478102745e+00
2.530202215643787778e+00
2.530202215643787778e+00
2.310633014923550999e+00
2.447512192144535526e+00
2.447512192144535526e+00
2.523264503921628599e+00
2.523264503921628599e+00
2.593954161198767316e+00
2.752021485030671233e+00
2.752021485030671233e+00
2.654331003753776841e+00
2.654331003753776841e+00
2.493263588366343875e+00
2.426699056978057101e+00
2.426699056978057101e+00
2.440011963255714900e+00
2.440011963255714900e+00
2.384322763756218322e+00
2.471700430310983521e+00
2.471700430310983521e+00
2.589454023865474408e+00
2.589454023865474408e+00
2.519514389477218064e+00
2.445824640644550740e+00
2.445824640644550740e+00
2.518951872310556173e+00
2.717332926419873562e+00
2.717332926419873562e+00
2.675331644642475748e+00
2.675331644642475748e+00
2.579141209143345659e+00
2.599954344309823639e+00
2.599954344309823639e+00
2.431011688589129527e+00
2.431011688589129527e+00
2.390697958311716054e+00
2.324320932645649762e+00
2.324320932645649762e+00
2.234318185979796478e+00
2.482388256477553679e+00
2.482388256477553679e+00
2.633330362865077490e+00
2.633330362865077490e+00
2.601079378643146978e+00
2.569203405865657430e+00
2.569203405865657430e+00
2.427636585589159957e+00
2.427636585589159957e+00
2.217630176702169997e+00
2.288694845423749680e+00
2.288694845423749680e+00
2.425761528366954689e+00
2.425761528366954689e+00
2.623017548142948741e+00
2.675144138920255266e+00
2.675144138920255266e+00
2.761209265419477088e+00
2.761209265419477088e+00
2.718832972197637865e+00
2.533764824365978274e+00
2.533764824365978274e+00
2.396510635700552783e+00
2.396510635700552783e+00
2.350946745200964472e+00
2.572766014587847927e+00
2.572766014587847927e+00
2.580266243476668553e+00
2.693144688253425567e+00
2.693144688253425567e+00
2.648705832087161038e+00
2.648705832087161038e+00
2.495326151310770069e+00
2.403823358867152926e+00
2.403823358867152926e+00
2.425949034089175171e+00
2.425949034089175171e+00
2.389760429700613198e+00
2.480138187810907002e+00
2.480138187810907002e+00
2.465700247199926753e+00
2.465700247199926753e+00
2.441887020477920167e+00
2.454262398144474666e+00
2.454262398144474666e+00
2.441324503311258276e+00
2.441324503311258276e+00
2.431199194311350009e+00
2.381135166478469234e+00
2.381135166478469234e+00
2.383197729422894984e+00
2.582891323587756194e+00
2.582891323587756194e+00
2.845399334696493199e+00
2.845399334696493199e+00
2.754459059419537947e+00
2.623955076754051152e+00
2.623955076754051152e+00
2.519514389477218064e+00
2.519514389477218064e+00
2.202817224646748340e+00
2.155940794091616652e+00
2.155940794091616652e+00
2.364634662923062791e+00
2.697832331308938958e+00
2.697832331308938958e+00
2.927901852473524968e+00
2.927901852473524968e+00
2.833398968474379664e+00
2.614392284920804332e+00
2.614392284920804332e+00
2.518764366588335690e+00
2.518764366588335690e+00
2.441512009033478758e+00
2.202629718924527857e+00
2.202629718924527857e+00
2.284569719534897736e+00
2.507701528977324568e+00
2.507701528977324568e+00
2.443574571977904952e+00
2.443574571977904952e+00
2.387135349589526001e+00
2.552327890865810023e+00
2.552327890865810023e+00
2.676081667531358121e+00
2.676081667531358121e+00
2.695582262642292726e+00
2.507514023255104085e+00
2.507514023255104085e+00
2.338571367534409973e+00
2.338571367534409973e+00
2.384135258033997840e+00
2.363134617145298488e+00
2.363134617145298488e+00
2.410198553422650658e+00
2.410198553422650658e+00
2.396323129978331856e+00
2.698582354197820887e+00
2.698582354197820887e+00
2.779397320474867872e+00
2.690707113864559297e+00
2.690707113864559297e+00
2.611579699087496653e+00
2.611579699087496653e+00
2.358071962645344577e+00
2.337633838923307117e+00
2.337633838923307117e+00
2.487638416699728516e+00
2.487638416699728516e+00
2.431199194311350009e+00
2.385635303811762142e+00
2.385635303811762142e+00
2.517451826532791870e+00
2.517451826532791870e+00
2.499451277199621568e+00
2.338383861812189490e+00
2.338383861812189490e+00
2.557765556810205343e+00
2.791210180974761368e+00
2.791210180974761368e+00
2.579328714865566141e+00
2.579328714865566141e+00
2.543140110477004168e+00
2.714707846308785921e+00
2.714707846308785921e+00
2.629580248420667399e+00
2.629580248420667399e+00
2.606142033143101333e+00
2.362947111423078006e+00
2.362947111423078006e+00
2.156878322702719064e+00
2.188941801202429094e+00
2.188941801202429094e+00
2.361259559923093665e+00
2.361259559923093665e+00
2.464762718588824342e+00
2.561328165532395840e+00
2.561328165532395840e+00
2.689957090975676923e+00
2.689957090975676923e+00
2.661081209753715537e+00
2.623017548142948741e+00
2.623017548142948741e+00
2.653205969420453503e+00
2.590204046754356337e+00
2.590204046754356337e+00
2.591516586809900158e+00
2.591516586809900158e+00
2.352446790978728330e+00
2.386760338145085036e+00
2.386760338145085036e+00
2.348884182256538722e+00
2.348884182256538722e+00
2.373447431867427682e+00
2.417698782311472172e+00
2.417698782311472172e+00
2.495888668477431516e+00
2.495888668477431516e+00
2.729333292641987541e+00
2.678331736198004354e+00
2.678331736198004354e+00
2.587391460921048658e+00
2.537139927365947845e+00
2.537139927365947845e+00
2.492888576921902910e+00
2.492888576921902910e+00
2.404198370311593891e+00
2.305945371868038052e+00
2.305945371868038052e+00
2.349259193700979687e+00
2.349259193700979687e+00
2.377760063478499664e+00
2.462887661366619074e+00
2.462887661366619074e+00
2.701769951475569975e+00
2.701769951475569975e+00
2.770959562974944390e+00
2.825711233863338112e+00
2.825711233863338112e+00
2.352446790978728330e+00
2.352446790978728330e+00
1.991310769981994078e+00
2.166253608813745402e+00
2.166253608813745402e+00
2.530202215643787778e+00
2.624517593920713043e+00
2.624517593920713043e+00
2.696144779808954173e+00
2.696144779808954173e+00
2.672706564531388107e+00
2.737958555864131505e+00
2.737958555864131505e+00
2.595829218420972584e+00
2.595829218420972584e+00
2.412448622089296890e+00
2.181066560869167059e+00
2.181066560869167059e+00
2.384697775200659287e+00
2.471137913144322074e+00
2.471137913144322074e+00
2.551577867976928093e+00
2.551577867976928093e+00
2.677206701864681015e+00
2.667081392864772749e+00
2.667081392864772749e+00
2.630517777031769810e+00
2.630517777031769810e+00
2.436824365977965812e+00
2.384322763756218322e+00
2.384322763756218322e+00
2.259818964201788294e+00
2.259818964201788294e+00
2.364822168645283273e+00
2.502826380199591139e+00
2.502826380199591139e+00
2.730458326975310435e+00
2.801335489974669635e+00
2.801335489974669635e+00
2.607079561754204189e+00
2.607079561754204189e+00
2.495513657032990551e+00
2.477325601977599767e+00
2.477325601977599767e+00
2.249881160924100509e+00
2.249881160924100509e+00
2.176378917813653668e+00
2.293007477034821662e+00
2.293007477034821662e+00
2.411323587755973996e+00
2.411323587755973996e+00
2.710582720419934866e+00
2.756709128086184180e+00
2.756709128086184180e+00
2.652268440809351091e+00
2.652268440809351091e+00
2.664643818475905590e+00
2.596954252754295922e+00
2.596954252754295922e+00
2.505263954588457853e+00
2.537889950254829774e+00
2.537889950254829774e+00
2.527202124088259172e+00
2.527202124088259172e+00
2.538827478865932186e+00
2.320195806756797818e+00
2.320195806756797818e+00
2.178628986480300345e+00
2.178628986480300345e+00
2.258318918424023991e+00
2.563765739921262110e+00
2.563765739921262110e+00
2.605579515976439886e+00
2.605579515976439886e+00
2.455012421033357040e+00
2.306882900479140464e+00
2.306882900479140464e+00
2.341946470534379099e+00
2.341946470534379099e+00
2.637080477309488025e+00
2.852712057863094230e+00
2.852712057863094230e+00
2.620392468031861544e+00
2.677394207586901498e+00
2.677394207586901498e+00
2.620392468031861544e+00
2.620392468031861544e+00
2.541265053254798900e+00
2.353571825312051669e+00
2.329946104312265120e+00
2.329946104312265120e+00
2.156690816980498582e+00
2.327696035645618888e+00
2.327696035645618888e+00
2.509951597643971244e+00
2.509951597643971244e+00
2.588141483809930588e+00
2.762146794030579500e+00
2.762146794030579500e+00
2.612329721976378583e+00
2.612329721976378583e+00
2.520639423810540958e+00
2.526452101199377687e+00
2.526452101199377687e+00
2.634080385753959863e+00
2.634080385753959863e+00
2.643455671864986201e+00
2.374947477645191540e+00
2.374947477645191540e+00
2.375509994811853431e+00
2.375509994811853431e+00
2.481075716422009858e+00
2.437386883144627259e+00
2.437386883144627259e+00
2.629955259865108363e+00
2.629955259865108363e+00
2.642518143253883789e+00
2.370447340311899076e+00
2.370447340311899076e+00
2.338571367534409973e+00
2.401198278756065729e+00
2.401198278756065729e+00
2.755021576586199394e+00
2.755021576586199394e+00
2.745646290475173501e+00
2.463637684255501004e+00
2.463637684255501004e+00
2.269006744590594149e+00
2.269006744590594149e+00
2.620392468031861544e+00
2.630517777031769810e+00
2.630517777031769810e+00
2.458950041199987613e+00
2.458950041199987613e+00
2.261881527146214044e+00
2.191191869869075770e+00
2.191191869869075770e+00
2.291319925534837321e+00
2.291319925534837321e+00
2.502826380199591139e+00
2.721083040864284097e+00
2.721083040864284097e+00
2.673831598864711445e+00
2.574453566087832268e+00
2.574453566087832268e+00
2.643643177587206683e+00
2.722583086642048400e+00
2.722583086642048400e+00
2.598641804254280263e+00
2.598641804254280263e+00
2.353196813867610704e+00
2.263569078646198829e+00
2.263569078646198829e+00
2.374759971922971058e+00
2.506388988921781191e+00
2.506388988921781191e+00
2.652080935087130609e+00
2.548577776421399932e+00
2.548577776421399932e+00
2.536952421643726918e+00
2.536952421643726918e+00
2.469262855922116806e+00
2.490263496810816157e+00
2.490263496810816157e+00
2.316633198034607766e+00
2.316633198034607766e+00
2.532639790032654936e+00
2.544452650532547988e+00
2.544452650532547988e+00
2.602579424420911280e+00
2.602579424420911280e+00
2.405885921811578676e+00
2.439449446089053009e+00
2.439449446089053009e+00
2.544640156254768470e+00
2.635205420087282757e+00
2.635205420087282757e+00
2.425949034089175171e+00
2.425949034089175171e+00
2.368197271645252844e+00
2.355446882534256936e+00
2.355446882534256936e+00
2.342883999145481511e+00
2.342883999145481511e+00
2.615329813531907188e+00
2.703832514419995725e+00
2.703832514419995725e+00
2.861524826807458677e+00
2.777522263252662604e+00
2.777522263252662604e+00
2.557390545365764378e+00
2.557390545365764378e+00
2.281757133701590057e+00
2.146190496536149350e+00
2.146190496536149350e+00
2.266194158757286470e+00
2.266194158757286470e+00
2.561890682699057287e+00
2.620579973754082026e+00
2.620579973754082026e+00
2.565640797143467378e+00
2.565640797143467378e+00
2.452012329477828434e+00
2.588891506698812961e+00
2.588891506698812961e+00
2.720708029419843133e+00
2.720708029419843133e+00
2.491013519699698087e+00
2.281007110812707683e+00
2.281007110812707683e+00
2.383197729422894984e+00
2.425574022644734207e+00
2.425574022644734207e+00
2.486138370921964214e+00
2.486138370921964214e+00
2.586453932309945802e+00
2.448074709311197417e+00
2.448074709311197417e+00
2.449012237922299828e+00
2.657331095309305002e+00
2.657331095309305002e+00
2.558703085421308199e+00
2.558703085421308199e+00
2.506764000366222156e+00
2.529452192754905848e+00
2.529452192754905848e+00
2.533389812921536866e+00
2.555702993865779593e+00
2.555702993865779593e+00
2.607642078920865636e+00
2.607642078920865636e+00
2.540890041810357936e+00
2.517639332255012796e+00
2.517639332255012796e+00
2.297882625812555535e+00
2.297882625812555535e+00
2.364822168645283273e+00
2.555515488143559111e+00
2.555515488143559111e+00
2.706832605975524331e+00
2.706832605975524331e+00
2.586078920865504838e+00
2.638393017365031845e+00
2.638393017365031845e+00
2.455949949644459451e+00
2.361072054200873183e+00
2.361072054200873183e+00
2.227942991424298746e+00
2.227942991424298746e+00
2.185566698202459968e+00
2.401198278756065729e+00
2.401198278756065729e+00
2.537139927365947845e+00
2.537139927365947845e+00
2.771897091586047246e+00
2.891713248084963439e+00
2.891713248084963439e+00
2.692019653920102229e+00
2.692019653920102229e+00
2.474513016144291644e+00
2.441887020477920167e+00
2.441887020477920167e+00
2.218567705313272853e+00
2.363697134311959935e+00
2.363697134311959935e+00
2.563578234199041628e+00
2.563578234199041628e+00
2.644393200476088612e+00
2.580828760643330444e+00
2.580828760643330444e+00
2.529639698477126331e+00
2.529639698477126331e+00
2.243130954924161813e+00
2.301632740256966070e+00
2.301632740256966070e+00
2.499076265755180604e+00
2.499076265755180604e+00
2.714332834864345401e+00
2.791585192419202333e+00
2.791585192419202333e+00
2.598829309976500745e+00
2.598829309976500745e+00
2.504326425977354997e+00
2.507139011810663121e+00
2.507139011810663121e+00
2.328446058534500818e+00
2.269006744590594149e+00
2.269006744590594149e+00
2.479950682088686964e+00
2.479950682088686964e+00
2.418448805200354101e+00
2.499451277199621568e+00
2.499451277199621568e+00
2.555140476699118146e+00
2.555140476699118146e+00
2.538452467421491221e+00
2.750521439252906930e+00
2.750521439252906930e+00
2.606517044587542742e+00
2.606517044587542742e+00
2.480325693533127485e+00
2.645893246253852915e+00
2.645893246253852915e+00
2.467387798699911539e+00
2.406635944700461049e+00
2.406635944700461049e+00
2.381697683645130681e+00
2.381697683645130681e+00
2.424823999755851833e+00
2.442824549089022579e+00
2.442824549089022579e+00
2.468700338755454915e+00
2.468700338755454915e+00
2.409823541978209693e+00
2.470762901699881109e+00
2.470762901699881109e+00
2.514264229255043226e+00
2.514264229255043226e+00
2.512389172032837958e+00
2.791397686696981850e+00
2.791397686696981850e+00
2.562265694143497807e+00
2.562265694143497807e+00
2.673831598864711445e+00
2.638580523087252327e+00
2.638580523087252327e+00
2.446762169255653596e+00
2.207879879146702695e+00
2.207879879146702695e+00
2.304632831812494231e+00
2.304632831812494231e+00
2.476013061922055947e+00
2.652455946531571573e+00
2.652455946531571573e+00
2.506951506088442638e+00
2.506951506088442638e+00
2.394823084200567997e+00
2.488200933866389963e+00
2.488200933866389963e+00
2.483138279366435608e+00
2.483138279366435608e+00
2.499451277199621568e+00
2.510701620532853173e+00
2.510701620532853173e+00
2.625642628254035937e+00
2.625642628254035937e+00
2.627705191198462131e+00
2.651330912198248235e+00
2.651330912198248235e+00
2.603891964476455101e+00
2.467200292977691056e+00
2.467200292977691056e+00
2.395573107089449927e+00
2.395573107089449927e+00
2.384135258033997840e+00
2.368759788811914291e+00
2.368759788811914291e+00
2.347196630756553937e+00
2.347196630756553937e+00
2.440949491866817311e+00
2.441136997589037794e+00
2.441136997589037794e+00
2.469825373088778253e+00
2.548952787865840897e+00
2.548952787865840897e+00
2.740396130252998219e+00
2.740396130252998219e+00
2.675144138920255266e+00
2.572203497421186036e+00
2.572203497421186036e+00
2.465137730033265306e+00
2.465137730033265306e+00
2.536952421643726918e+00
2.581391277809991891e+00
2.581391277809991891e+00
2.478638142033143144e+00
2.478638142033143144e+00
2.407573473311563461e+00
2.500201300088503942e+00
2.500201300088503942e+00
2.589079012421033443e+00
2.589079012421033443e+00
2.511451643421735547e+00
2.467762810144352947e+00
2.467762810144352947e+00
2.411323587755973996e+00
2.233568163090914993e+00
2.233568163090914993e+00
2.316070680867946319e+00
2.316070680867946319e+00
2.564328257087923557e+00
2.735520981475264790e+00
2.735520981475264790e+00
2.653393475142674429e+00
2.653393475142674429e+00
2.649080843531602003e+00
2.580641254921109962e+00
2.580641254921109962e+00
2.501138828699606353e+00
2.501138828699606353e+00
2.506201483199560265e+00
2.512389172032837958e+00
2.512389172032837958e+00
2.487825922421948999e+00
2.487825922421948999e+00
2.441324503311258276e+00
2.403073335978270997e+00
2.403073335978270997e+00
2.314570635090182460e+00
2.451074800866725578e+00
2.451074800866725578e+00
2.469637867366557771e+00
2.469637867366557771e+00
2.450699789422284613e+00
2.546140202032532773e+00
2.546140202032532773e+00
2.672894070253609033e+00
2.672894070253609033e+00
2.638768028809472810e+00
2.509014069032868388e+00
2.509014069032868388e+00
2.514639240699484635e+00
2.514639240699484635e+00
2.481263222144230340e+00
2.569953428754539804e+00
2.569953428754539804e+00
2.520451918088320475e+00
2.520451918088320475e+00
2.457637501144443792e+00
2.366134708700827094e+00
2.366134708700827094e+00
2.390510452589495571e+00
2.612517227698599065e+00
2.612517227698599065e+00
2.636517960142826578e+00
2.636517960142826578e+00
2.581578783532212373e+00
2.440949491866817311e+00
2.440949491866817311e+00
2.431761711478011456e+00
2.431761711478011456e+00
2.566578325754570233e+00
2.626955168309579758e+00
2.626955168309579758e+00
2.580078737754448071e+00
2.580078737754448071e+00
2.520076906643879511e+00
2.474888027588732609e+00
2.474888027588732609e+00
2.358446974089785542e+00
2.260193975646229259e+00
2.260193975646229259e+00
2.199254615924558287e+00
2.199254615924558287e+00
2.467387798699911539e+00
2.623205053865169223e+00
2.623205053865169223e+00
2.625642628254035937e+00
2.625642628254035937e+00
2.694269722586748905e+00
2.709082674642170563e+00
2.709082674642170563e+00
2.665768852809228928e+00
2.665768852809228928e+00
2.562078188421277325e+00
2.501701345866268245e+00
2.501701345866268245e+00
2.364634662923062791e+00
2.364634662923062791e+00
2.392385509811700839e+00
2.404573381756035300e+00
2.404573381756035300e+00
2.479200659199805035e+00
2.479200659199805035e+00
2.516701803643909940e+00
2.537139927365947845e+00
2.537139927365947845e+00
2.432324228644673347e+00
2.391822992645039392e+00
2.391822992645039392e+00
2.491951048310800498e+00
2.491951048310800498e+00
2.649455854976042968e+00
2.674019104586931928e+00
2.674019104586931928e+00
2.543702627643666059e+00
2.543702627643666059e+00
2.468700338755454915e+00
2.386010315256203107e+00
2.386010315256203107e+00
2.425011505478072316e+00
2.334821253089998994e+00
2.334821253089998994e+00
2.586828943754386767e+00
2.643830683309427609e+00
2.574266060365611786e+00
2.574266060365611786e+00
2.539389996032593633e+00
2.539389996032593633e+00
2.540515030365916971e+00
2.474888027588732609e+00
2.474888027588732609e+00
2.358821985534226506e+00
2.358821985534226506e+00
2.536952421643726918e+00
2.587578966643269140e+00
2.587578966643269140e+00
2.520826929532761884e+00
2.496451185644092963e+00
2.496451185644092963e+00
2.527202124088259172e+00
2.527202124088259172e+00
2.527577135532700581e+00
2.584766380809961461e+00
2.584766380809961461e+00
2.493638599810785283e+00
2.493638599810785283e+00
2.398010681478316641e+00
2.341383953367717208e+00
2.341383953367717208e+00
2.425199011200292798e+00
2.425199011200292798e+00
2.538827478865932186e+00
2.605767021698660368e+00
2.605767021698660368e+00
2.551765373699148576e+00
2.551765373699148576e+00
2.609892147587511868e+00
2.645893246253852915e+00
2.645893246253852915e+00
2.556453016754661967e+00
2.451262306588946061e+00
2.451262306588946061e+00
2.422573931089205601e+00
2.422573931089205601e+00
2.297882625812555535e+00
2.350946745200964472e+00
2.350946745200964472e+00
2.534139835810419239e+00
2.534139835810419239e+00
2.528139652699362028e+00
2.631455305642872666e+00
2.631455305642872666e+00
2.671206518753624248e+00
2.671206518753624248e+00
2.541640064699239865e+00
2.474700521866512126e+00
2.474700521866512126e+00
2.482575762199774161e+00
2.366322214423047576e+00
2.366322214423047576e+00
2.292819971312600735e+00
2.524577043977172419e+00
2.524577043977172419e+00
2.660143681142613126e+00
2.660143681142613126e+00
2.680581804864650142e+00
2.572203497421186036e+00
2.572203497421186036e+00
2.454262398144474666e+00
2.464950224311044824e+00
2.464950224311044824e+00
2.454824915311136557e+00
2.454824915311136557e+00
2.519701895199438546e+00
2.468887844477675397e+00
2.468887844477675397e+00
2.307070406201360946e+00
2.307070406201360946e+00
2.421261391033662225e+00
2.590016541032135855e+00
2.590016541032135855e+00
2.680019287697988695e+00
2.680019287697988695e+00
2.587766472365489623e+00
2.500763817255165389e+00
2.500763817255165389e+00
2.450324777977843649e+00
2.474700521866512126e+00
2.474700521866512126e+00
2.456137455366679934e+00
2.456137455366679934e+00
2.543327616199224650e+00
2.492326059755241463e+00
2.492326059755241463e+00
2.537889950254829774e+00
2.537889950254829774e+00
2.530014709921567295e+00
2.519326883754997581e+00
2.519326883754997581e+00
2.451262306588946061e+00
2.451262306588946061e+00
2.466075258644368162e+00
2.551577867976928093e+00
2.551577867976928093e+00
2.525889584032716240e+00
2.635017914365062275e+00
2.635017914365062275e+00
2.557765556810205343e+00
2.557765556810205343e+00
2.463075167088839557e+00
2.448824732200079346e+00
2.448824732200079346e+00
2.446762169255653596e+00
2.446762169255653596e+00
2.500763817255165389e+00
2.508639057588427423e+00
2.508639057588427423e+00
2.538452467421491221e+00
2.538452467421491221e+00
2.524577043977172419e+00
2.512576677755058441e+00
2.512576677755058441e+00
2.484075807977538464e+00
2.484075807977538464e+00
2.475075533310953091e+00
2.479575670644245999e+00
2.479575670644245999e+00
2.352259285256507848e+00
2.393885555589465142e+00
2.393885555589465142e+00
2.549140293588061379e+00
2.549140293588061379e+00
2.582328806421094747e+00
2.552327890865810023e+00
2.552327890865810023e+00
2.495326151310770069e+00
2.459887569811090469e+00
2.459887569811090469e+00
2.431011688589129527e+00
2.431011688589129527e+00
2.399323221533860018e+00
2.592454115421003014e+00
2.592454115421003014e+00
2.615892330698568635e+00
2.659018646809289788e+00
2.659018646809289788e+00
2.730645832697530917e+00
2.730645832697530917e+00
2.662206244087038876e+00
2.425761528366954689e+00
2.425761528366954689e+00
2.481075716422009858e+00
2.481075716422009858e+00
2.535077364421521651e+00
2.315883175145725836e+00
2.315883175145725836e+00
2.277444502090518075e+00
2.277444502090518075e+00
2.353759331034272151e+00
2.427636585589159957e+00
2.427636585589159957e+00
2.519889400921659028e+00
2.519889400921659028e+00
2.597516769920956925e+00
2.643268166142765718e+00
2.643268166142765718e+00
2.603516953032014136e+00
2.538264961699270739e+00
2.538264961699270739e+00
2.549327799310281861e+00
2.549327799310281861e+00
2.568265877254555019e+00
2.551202856532486685e+00
2.551202856532486685e+00
2.498701254310739639e+00
2.498701254310739639e+00
2.374759971922971058e+00
2.395010589922788480e+00
2.395010589922788480e+00
2.476763084810937876e+00
2.476763084810937876e+00
2.503388897366253030e+00
2.497576219977416301e+00
2.497576219977416301e+00
2.423511459700308013e+00
2.572203497421186036e+00
2.572203497421186036e+00
2.601454390087587942e+00
2.601454390087587942e+00
2.544265144810327506e+00
2.570140934476760286e+00
2.570140934476760286e+00
2.585891415143284355e+00
2.585891415143284355e+00
2.530577227088229186e+00
2.454262398144474666e+00
2.454262398144474666e+00
2.417511276589251690e+00
2.417511276589251690e+00
2.455574938200018487e+00
2.502451368755150174e+00
2.502451368755150174e+00
2.455949949644459451e+00
2.496826197088534371e+00
2.496826197088534371e+00
2.474700521866512126e+00
2.474700521866512126e+00
2.497201208532975336e+00
2.584953886532181944e+00
2.584953886532181944e+00
2.572203497421186036e+00
2.572203497421186036e+00
2.602016907254249833e+00
2.538077455977050256e+00
2.538077455977050256e+00
2.497201208532975336e+00
2.497201208532975336e+00
2.414511185033723084e+00
2.464200201422162451e+00
2.464200201422162451e+00
2.489325968199713301e+00
2.489325968199713301e+00
2.492513565477461945e+00
2.489513473921933784e+00
2.489513473921933784e+00
2.480325693533127485e+00
2.550640339365825238e+00
2.550640339365825238e+00
2.409636036255989211e+00
2.409636036255989211e+00
2.390697958311716054e+00
2.408323496200445835e+00
2.408323496200445835e+00
2.551577867976928093e+00
2.551577867976928093e+00
2.595829218420972584e+00
2.656581072420422629e+00
2.656581072420422629e+00
2.598079287087618372e+00
2.598079287087618372e+00
2.552327890865810023e+00
2.481075716422009858e+00
2.481075716422009858e+00
2.426511551255836618e+00
2.426511551255836618e+00
2.508076540421765976e+00
2.482763267921994643e+00
2.482763267921994643e+00
2.415261207922605013e+00
2.461200109866634289e+00
2.461200109866634289e+00
2.474513016144291644e+00
2.474513016144291644e+00
2.566015808587908342e+00
2.555702993865779593e+00
2.555702993865779593e+00
2.545765190588091809e+00
2.545765190588091809e+00
2.523639515366069563e+00
2.513326700643940814e+00
2.513326700643940814e+00
2.510326609088412209e+00
2.510326609088412209e+00
2.501513840144047762e+00
2.512201666310617476e+00
2.512201666310617476e+00
2.508451551866206941e+00
2.507326517532883603e+00
2.507326517532883603e+00
2.523452009643849081e+00
2.518764366588335690e+00
2.518764366588335690e+00
2.444324594866786882e+00
2.445262123477889293e+00
2.445262123477889293e+00
2.484075807977538464e+00
2.484075807977538464e+00
2.515951780755027567e+00
2.542577593310342721e+00
2.542577593310342721e+00
2.585328897976622908e+00
2.585328897976622908e+00
2.550640339365825238e+00
2.512389172032837958e+00
2.512389172032837958e+00
2.534889858699301168e+00
2.534889858699301168e+00
2.481825739310891787e+00
2.411698599200414961e+00
2.411698599200414961e+00
2.424823999755851833e+00
2.424823999755851833e+00
2.455574938200018487e+00
2.437011871700186294e+00
2.437011871700186294e+00
2.426699056978057101e+00
2.451262306588946061e+00
2.451262306588946061e+00
2.535639881588183542e+00
2.535639881588183542e+00
2.618892422254097241e+00
2.621892513809625402e+00
2.621892513809625402e+00
2.629955259865108363e+00
2.629955259865108363e+00
2.587391460921048658e+00
2.552140385143589540e+00
2.552140385143589540e+00
2.534139835810419239e+00
2.534139835810419239e+00
2.483888302255317981e+00
2.385822809533982625e+00
2.385822809533982625e+00
2.340258919034394314e+00
2.340258919034394314e+00
2.410011047700430176e+00
2.407010956144902014e+00
2.407010956144902014e+00
2.474888027588732609e+00
2.575953611865596571e+00
2.575953611865596571e+00
2.642518143253883789e+00
2.642518143253883789e+00
2.613642262031922403e+00
2.550077822199164235e+00
2.550077822199164235e+00
2.500013794366283459e+00
2.500013794366283459e+00
2.482575762199774161e+00
2.523452009643849081e+00
2.523452009643849081e+00
2.536202398754844989e+00
2.536202398754844989e+00
2.493451094088564801e+00
2.478075624866481697e+00
2.478075624866481697e+00
2.473950498977630197e+00
2.476013061922055947e+00
2.476013061922055947e+00
2.429886654255806189e+00
2.429886654255806189e+00
2.489888485366374749e+00
2.485013336588640875e+00
2.485013336588640875e+00
2.427824091311380439e+00
2.427824091311380439e+00
2.523639515366069563e+00
2.539014984588152668e+00
2.539014984588152668e+00
2.534327341532639721e+00
2.534327341532639721e+00
2.534327341532639721e+00
2.532639790032654936e+00
2.532639790032654936e+00
2.562828211310159254e+00
2.535827387310404024e+00
2.535827387310404024e+00
2.526827112643818651e+00
2.526827112643818651e+00
2.515576769310586602e+00
2.455762443922238969e+00
2.455762443922238969e+00
2.417511276589251690e+00
2.417511276589251690e+00
2.464575212866603859e+00
2.501513840144047762e+00
2.501513840144047762e+00
2.502263863032929692e+00
2.502263863032929692e+00
2.529452192754905848e+00
2.478638142033143144e+00
2.478638142033143144e+00
2.535639881588183542e+00
2.535639881588183542e+00
2.531139744254890633e+00
2.534327341532639721e+00
2.534327341532639721e+00
2.527389629810480098e+00
2.527389629810480098e+00
2.512014160588396994e+00
2.515014252143925599e+00
2.515014252143925599e+00
2.529639698477126331e+00
2.444699606311227846e+00
2.444699606311227846e+00
2.383385235145115466e+00
2.383385235145115466e+00
2.476388073366496911e+00
2.525702078310495757e+00
2.525702078310495757e+00
2.539765007477034597e+00
2.539765007477034597e+00
2.563765739921262110e+00
2.545390179143650844e+00
2.545390179143650844e+00
2.575953611865596571e+00
2.575953611865596571e+00
2.520826929532761884e+00
2.380010132145145896e+00
2.380010132145145896e+00
2.392385509811700839e+00
2.506388988921781191e+00
2.506388988921781191e+00
2.527764641254921063e+00
2.527764641254921063e+00
2.521389446699423331e+00
2.536577410199285953e+00
2.536577410199285953e+00
2.512951689199499850e+00
2.536389904477065471e+00
2.536389904477065471e+00
2.567703360087893572e+00
2.567703360087893572e+00
2.487825922421948999e+00
2.497013702810754854e+00
2.497013702810754854e+00
2.506013977477339782e+00
2.506013977477339782e+00
2.493451094088564801e+00
2.507701528977324568e+00
2.507701528977324568e+00
2.530952238532670151e+00
2.530952238532670151e+00
2.540890041810357936e+00
2.534139835810419239e+00
2.534139835810419239e+00
2.488388439588610446e+00
2.488388439588610446e+00
2.484638325144199911e+00
2.434011780144657688e+00
2.434011780144657688e+00
2.414698690755943566e+00
2.414698690755943566e+00
2.482200750755333196e+00
2.466825281533250092e+00
2.466825281533250092e+00
2.519514389477218064e+00
2.596016724143193066e+00
2.596016724143193066e+00
2.504513931699575480e+00
2.504513931699575480e+00
2.527014618366038690e+00
2.540140018921475562e+00
2.540140018921475562e+00
2.526639606921598169e+00
2.526639606921598169e+00
2.524014526810510528e+00
2.471512924588763038e+00
2.471512924588763038e+00
2.454074892422254184e+00
2.454074892422254184e+00
2.434386791589098653e+00
2.410948576311533031e+00
2.410948576311533031e+00
2.458012512588885201e+00
2.458012512588885201e+00
2.526639606921598169e+00
2.555327982421338628e+00
2.555327982421338628e+00
2.561140659810174913e+00
2.547827753532517558e+00
2.547827753532517558e+00
2.571265968810083624e+00
2.571265968810083624e+00
2.520076906643879511e+00
2.447699697866756008e+00
2.447699697866756008e+00
2.432699240089114312e+00
2.432699240089114312e+00
2.449012237922299828e+00
2.510514114810632691e+00
2.510514114810632691e+00
2.548202764976958523e+00
2.502263863032929692e+00
2.502263863032929692e+00
2.501701345866268245e+00
2.501701345866268245e+00
2.514639240699484635e+00
2.563390728476821145e+00
2.563390728476821145e+00
2.573891048921170377e+00
2.573891048921170377e+00
2.611204687643055244e+00
2.476200567644276429e+00
2.476200567644276429e+00
2.412448622089296890e+00
2.412448622089296890e+00
2.412448622089296890e+00
2.409073519089327764e+00
2.409073519089327764e+00
2.502638874477370656e+00
2.502638874477370656e+00
2.527952146977141545e+00
2.595079195532090210e+00
2.595079195532090210e+00
2.525139561143833866e+00
2.525139561143833866e+00
2.425386516922513280e+00
2.432136722922452865e+00
2.432136722922452865e+00
2.463637684255501004e+00
2.479575670644245999e+00
2.479575670644245999e+00
2.537889950254829774e+00
2.537889950254829774e+00
2.606329538865321815e+00
2.617204870754112456e+00
2.617204870754112456e+00
2.567703360087893572e+00
2.567703360087893572e+00
2.517076815088350905e+00
2.462700155644398592e+00
2.462700155644398592e+00
2.436074343089083438e+00
2.436074343089083438e+00
2.479013153477584552e+00
2.479763176366466482e+00
2.479763176366466482e+00
2.499638782921842051e+00
2.491576036866359534e+00
2.491576036866359534e+00
2.485763359477523249e+00
2.485763359477523249e+00
2.532639790032654936e+00
2.520264412366099993e+00
2.520264412366099993e+00
2.548577776421399932e+00
2.548577776421399932e+00
2.534889858699301168e+00
2.440761986144596829e+00
2.440761986144596829e+00
2.450324777977843649e+00
2.450324777977843649e+00
2.496826197088534371e+00
2.538264961699270739e+00
2.538264961699270739e+00
2.534514847254860204e+00
2.534514847254860204e+00
2.478450636310922661e+00
2.443762077700125435e+00
2.443762077700125435e+00
2.458012512588885201e+00
2.398573198644978088e+00
2.398573198644978088e+00
2.455762443922238969e+00
2.455762443922238969e+00
2.551952879421369058e+00
2.585328897976622908e+00
2.585328897976622908e+00
2.609329630420849977e+00
2.611392193365276171e+00
2.611392193365276171e+00
2.588516495254371552e+00
2.588516495254371552e+00
2.545765190588091809e+00
2.496451185644092963e+00
2.496451185644092963e+00
2.453324869533372254e+00
2.453324869533372254e+00
2.397260658589434712e+00
2.374947477645191540e+00
2.374947477645191540e+00
2.393698049867244659e+00
2.393698049867244659e+00
2.465700247199926753e+00
2.545952696310312291e+00
2.545952696310312291e+00
2.560015625476852019e+00
2.560015625476852019e+00
2.596766747032074996e+00
2.573328531754509374e+00
2.573328531754509374e+00
2.570328440198980768e+00
2.570328440198980768e+00
2.536202398754844989e+00
2.475825556199835464e+00
2.475825556199835464e+00
2.415448713644825496e+00
2.408323496200445835e+00
2.408323496200445835e+00
2.423323953978087530e+00
2.423323953978087530e+00
2.468137821588793912e+00
2.473762993255409270e+00
2.473762993255409270e+00
2.527577135532700581e+00
2.527577135532700581e+00
2.495513657032990551e+00
2.484075807977538464e+00
2.484075807977538464e+00
2.520826929532761884e+00
2.520826929532761884e+00
2.538264961699270739e+00
2.567703360087893572e+00
2.567703360087893572e+00
2.579141209143345659e+00
2.579141209143345659e+00
2.553077913754691952e+00
2.502263863032929692e+00
2.502263863032929692e+00
2.480138187810907002e+00
2.505451460310678335e+00
2.505451460310678335e+00
2.478638142033143144e+00
2.478638142033143144e+00
2.469450361644337288e+00
2.465887752922147680e+00
2.465887752922147680e+00
2.468325327311013950e+00
2.468325327311013950e+00
2.442074526200140649e+00
2.478263130588702179e+00
2.478263130588702179e+00
2.569765923032319321e+00
2.569765923032319321e+00
2.611017181920834762e+00
2.608204596087527527e+00
2.608204596087527527e+00
2.558890591143528681e+00
2.558890591143528681e+00
2.489888485366374749e+00
2.452949858088931290e+00
2.452949858088931290e+00
2.435886837366862956e+00
2.415448713644825496e+00
2.415448713644825496e+00
2.462887661366619074e+00
2.462887661366619074e+00
2.474888027588732609e+00
2.481263222144230340e+00
2.481263222144230340e+00
2.469637867366557771e+00
2.469637867366557771e+00
2.474888027588732609e+00
2.521201940977202849e+00
2.521201940977202849e+00
2.548952787865840897e+00
2.548952787865840897e+00
2.575953611865596571e+00
2.581766289254432856e+00
2.581766289254432856e+00
2.590579058198797746e+00
2.590579058198797746e+00
2.555140476699118146e+00
2.497201208532975336e+00
2.497201208532975336e+00
2.485763359477523249e+00
2.456512466811120898e+00
2.456512466811120898e+00
2.426511551255836618e+00
2.426511551255836618e+00
2.410011047700430176e+00
2.443762077700125435e+00
2.443762077700125435e+00
2.485763359477523249e+00
2.485763359477523249e+00
2.541827570421460791e+00
2.530202215643787778e+00
2.530202215643787778e+00
2.543890133365886541e+00
2.543890133365886541e+00
2.557015533921323414e+00
2.575016083254493715e+00
2.575016083254493715e+00
2.569953428754539804e+00
2.569953428754539804e+00
2.504701437421796406e+00
2.426324045533616136e+00
2.426324045533616136e+00
2.447137180700094561e+00
2.471887936033204003e+00
2.471887936033204003e+00
2.470200384533219218e+00
2.470200384533219218e+00
2.518201849421674243e+00
2.529264687032685366e+00
2.529264687032685366e+00
2.508451551866206941e+00
2.477325601977599767e+00
2.477325601977599767e+00
2.491576036866359534e+00
2.491576036866359534e+00
2.519514389477218064e+00
2.523639515366069563e+00
2.523639515366069563e+00
2.545202673421430362e+00
2.545202673421430362e+00
2.537139927365947845e+00
2.502638874477370656e+00
2.502638874477370656e+00
2.506764000366222156e+00
2.506764000366222156e+00
2.498701254310739639e+00
2.499263771477401086e+00
2.499263771477401086e+00
2.490826013977477604e+00
2.490826013977477604e+00
2.473200476088747823e+00
2.488013428144169481e+00
2.488013428144169481e+00
2.477513107699820250e+00
2.491013519699698087e+00
2.491013519699698087e+00
2.517076815088350905e+00
2.517076815088350905e+00
2.541265053254798900e+00
2.622080019531845885e+00
2.622080019531845885e+00
2.535639881588183542e+00
2.535639881588183542e+00
2.501326334421826836e+00
2.458762535477767130e+00
2.458762535477767130e+00
2.443199560533463544e+00
2.443199560533463544e+00
2.479575670644245999e+00
2.494576128421887695e+00
2.494576128421887695e+00
2.510139103366191726e+00
2.487638416699728516e+00
2.487638416699728516e+00
2.446949674977874079e+00
2.446949674977874079e+00
2.426324045533616136e+00
2.495888668477431516e+00
2.495888668477431516e+00
2.530952238532670151e+00
2.530952238532670151e+00
2.541827570421460791e+00
2.559265602587969646e+00
2.559265602587969646e+00
2.548577776421399932e+00
2.548577776421399932e+00
2.504326425977354997e+00
2.486325876644184696e+00
2.486325876644184696e+00
2.487450910977508034e+00
2.487450910977508034e+00
2.493826105533005766e+00
2.494013611255226248e+00
2.494013611255226248e+00
2.467012787255470574e+00
2.467012787255470574e+00
2.465887752922147680e+00
2.453887386700033701e+00
2.453887386700033701e+00
2.476575579088717394e+00
2.513326700643940814e+00
2.513326700643940814e+00
2.564328257087923557e+00
2.564328257087923557e+00
2.566390820032349751e+00
2.576891140476698983e+00
2.576891140476698983e+00
2.519326883754997581e+00
2.519326883754997581e+00
2.488013428144169481e+00
2.490075991088595231e+00
2.490075991088595231e+00
2.490263496810816157e+00
2.490263496810816157e+00
2.464387707144383377e+00
2.440199468977935382e+00
2.440199468977935382e+00
2.438511917477950597e+00
2.443387066255684470e+00
2.443387066255684470e+00
2.494951139866329104e+00
2.494951139866329104e+00
2.572578508865627445e+00
2.544452650532547988e+00
2.544452650532547988e+00
2.536389904477065471e+00
2.536389904477065471e+00
2.577641163365581356e+00
2.597141758476516404e+00
2.597141758476516404e+00
2.548015259254738041e+00
2.548015259254738041e+00
2.477325601977599767e+00
2.433074251533554833e+00
2.433074251533554833e+00
2.437386883144627259e+00
2.437386883144627259e+00
2.488013428144169481e+00
2.490638508255257122e+00
2.490638508255257122e+00
2.446199652088991705e+00
2.477138096255378841e+00
2.477138096255378841e+00
2.481075716422009858e+00
2.481075716422009858e+00
2.480700704977568893e+00
2.546327707754753256e+00
2.546327707754753256e+00
2.543140110477004168e+00
2.543140110477004168e+00
2.552515396588030505e+00
2.572578508865627445e+00
2.572578508865627445e+00
2.561328165532395840e+00
2.561328165532395840e+00
2.545952696310312291e+00
2.540702536088137453e+00
2.540702536088137453e+00
2.516326792199468976e+00
2.516326792199468976e+00
2.494763634144108178e+00
2.477325601977599767e+00
2.477325601977599767e+00
2.451074800866725578e+00
2.399698232978301426e+00
2.399698232978301426e+00
2.389947935422834124e+00
2.406260933256020085e+00
2.406260933256020085e+00
2.480325693533127485e+00
2.560765648365733949e+00
2.560765648365733949e+00
2.561890682699057287e+00
2.565828302865687860e+00
2.565828302865687860e+00
2.545390179143650844e+00
2.545390179143650844e+00
2.514076723532822744e+00
2.498138737144077748e+00
2.498138737144077748e+00
2.487638416699728516e+00
2.487638416699728516e+00
2.481638233588671305e+00
2.460637592699972398e+00
2.460637592699972398e+00
2.459325052644428578e+00
2.459325052644428578e+00
2.486325876644184696e+00
2.489513473921933784e+00
2.489513473921933784e+00
2.512576677755058441e+00
2.512576677755058441e+00
2.543890133365886541e+00
2.552140385143589540e+00
2.552140385143589540e+00
2.585516403698843391e+00
2.579703726310007106e+00
2.579703726310007106e+00
2.546140202032532773e+00
2.546140202032532773e+00
2.477513107699820250e+00
2.433261757255775315e+00
2.433261757255775315e+00
2.414698690755943566e+00
2.414698690755943566e+00
2.439261940366832526e+00
2.458950041199987613e+00
2.458950041199987613e+00
2.444887112033448329e+00
2.444887112033448329e+00
2.452012329477828434e+00
2.490638508255257122e+00
2.490638508255257122e+00
2.532452284310434454e+00
2.532452284310434454e+00
2.547265236365856111e+00
2.556078005310220558e+00
2.556078005310220558e+00
2.579141209143345659e+00
2.579141209143345659e+00
2.522514481032746669e+00
2.509201574755088870e+00
2.509201574755088870e+00
2.514451734977264152e+00
2.494013611255226248e+00
2.494013611255226248e+00
2.504138920255134515e+00
2.480888210699789376e+00
2.480888210699789376e+00
2.470387890255439700e+00
2.467950315866573430e+00
2.467950315866573430e+00
2.458387524033326166e+00
2.498888760032960121e+00
2.498888760032960121e+00
2.531139744254890633e+00
2.531139744254890633e+00
2.523827021088290046e+00
2.550265327921384717e+00
2.550265327921384717e+00
2.566203314310129269e+00
2.541077547532578418e+00
2.541077547532578418e+00
2.511264137699515064e+00
2.511264137699515064e+00
2.460262581255531433e+00
2.443762077700125435e+00
2.443762077700125435e+00
2.437386883144627259e+00
2.437386883144627259e+00
2.475263039033173573e+00
2.462700155644398592e+00
2.462700155644398592e+00
2.462887661366619074e+00
2.461575121311075254e+00
2.461575121311075254e+00
2.513701712088381779e+00
2.513701712088381779e+00
2.540327524643696488e+00
2.542577593310342721e+00
2.542577593310342721e+00
2.563578234199041628e+00
2.563578234199041628e+00
2.551202856532486685e+00
2.551577867976928093e+00
2.551577867976928093e+00
2.497763725699636783e+00
2.497763725699636783e+00
2.452387340922269399e+00
2.450887295144505096e+00
2.450887295144505096e+00
2.459512558366649504e+00
2.489325968199713301e+00
2.489325968199713301e+00
2.479950682088686964e+00
2.479950682088686964e+00
2.440386974700155864e+00
2.482013245033112270e+00
2.482013245033112270e+00
2.565828302865687860e+00
2.565828302865687860e+00
2.583078829309976676e+00
2.570890957365642215e+00
2.570890957365642215e+00
2.561328165532395840e+00
2.561328165532395840e+00
2.543890133365886541e+00
2.508076540421765976e+00
2.508076540421765976e+00
2.493076082644123392e+00
2.493076082644123392e+00
2.465512741477706271e+00
2.465887752922147680e+00
2.465887752922147680e+00
2.459887569811090469e+00
2.464950224311044824e+00
2.464950224311044824e+00
2.465887752922147680e+00
2.465887752922147680e+00
2.466450270088809127e+00
2.493263588366343875e+00
2.493263588366343875e+00
2.530577227088229186e+00
2.541452558977019383e+00
2.541452558977019383e+00
2.551390362254707167e+00
2.551390362254707167e+00
2.558515579699087716e+00
2.541827570421460791e+00
2.541827570421460791e+00
2.503576403088473068e+00
2.503576403088473068e+00
2.482575762199774161e+00
2.459887569811090469e+00
2.459887569811090469e+00
2.449199743644520311e+00
2.449199743644520311e+00
2.452199835200048916e+00
2.514076723532822744e+00
2.514076723532822744e+00
2.508264046143986459e+00
2.508264046143986459e+00
2.455199926755577522e+00
2.478263130588702179e+00
2.478263130588702179e+00
2.525514572588274831e+00
2.526639606921598169e+00
2.526639606921598169e+00
2.554952970976897664e+00
2.554952970976897664e+00
2.551390362254707167e+00
2.532639790032654936e+00
2.532639790032654936e+00
2.512576677755058441e+00
2.512576677755058441e+00
2.473950498977630197e+00
2.469825373088778253e+00
2.469825373088778253e+00
2.464950224311044824e+00
2.464950224311044824e+00
2.469637867366557771e+00
2.476575579088717394e+00
2.476575579088717394e+00
2.469075350199895880e+00
2.478638142033143144e+00
2.478638142033143144e+00
2.511076631977294138e+00
2.511076631977294138e+00
2.508076540421765976e+00
2.524014526810510528e+00
2.524014526810510528e+00
2.547452742088076594e+00
2.547452742088076594e+00
2.562078188421277325e+00
2.555515488143559111e+00
2.555515488143559111e+00
2.520451918088320475e+00
2.520451918088320475e+00
2.488388439588610446e+00
2.443574571977904952e+00
2.443574571977904952e+00
2.425949034089175171e+00
2.446012146366771223e+00
2.446012146366771223e+00
2.469637867366557771e+00
2.469637867366557771e+00
2.482388256477553679e+00
2.497576219977416301e+00
2.497576219977416301e+00
2.542202581865901756e+00
2.542202581865901756e+00
2.557765556810205343e+00
2.550640339365825238e+00
2.550640339365825238e+00
2.549327799310281861e+00
2.549327799310281861e+00
2.528327158421582510e+00
2.522514481032746669e+00
2.522514481032746669e+00
2.475825556199835464e+00
2.458387524033326166e+00
2.458387524033326166e+00
2.471512924588763038e+00
2.471512924588763038e+00
2.475263039033173573e+00
2.466637775811029609e+00
2.466637775811029609e+00
2.478450636310922661e+00
2.478450636310922661e+00
2.454637409588916075e+00
2.499826288644062977e+00
2.499826288644062977e+00
2.512389172032837958e+00
2.512389172032837958e+00
2.492138554033020981e+00
2.534889858699301168e+00
2.534889858699301168e+00
2.566953337199011198e+00
2.566953337199011198e+00
2.545952696310312291e+00
2.504513931699575480e+00
2.504513931699575480e+00
2.484825830866420393e+00
2.484825830866420393e+00
2.487450910977508034e+00
2.480700704977568893e+00
2.480700704977568893e+00
2.495138645588549586e+00
2.493638599810785283e+00
2.493638599810785283e+00
2.476950590533158358e+00
2.476950590533158358e+00
2.458950041199987613e+00
2.498513748588519157e+00
2.498513748588519157e+00
2.540890041810357936e+00
2.540890041810357936e+00
2.548577776421399932e+00
2.557765556810205343e+00
2.557765556810205343e+00
2.547640247810297076e+00
2.547640247810297076e+00
2.523264503921628599e+00
2.516514297921689458e+00
2.516514297921689458e+00
2.511451643421735547e+00
2.474138004699850679e+00
2.474138004699850679e+00
2.444699606311227846e+00
2.444699606311227846e+00
2.428761619922483295e+00
2.438699423200171079e+00
2.438699423200171079e+00
2.436074343089083438e+00
2.436074343089083438e+00
2.473762993255409270e+00
2.515764275032807085e+00
2.515764275032807085e+00
2.544640156254768470e+00
2.554577959532456255e+00
2.554577959532456255e+00
2.570515945921201251e+00
2.570515945921201251e+00
2.561140659810174913e+00
2.525702078310495757e+00
2.525702078310495757e+00
2.497576219977416301e+00
2.497576219977416301e+00
2.485950865199743731e+00
2.494013611255226248e+00
2.494013611255226248e+00
2.490075991088595231e+00
2.490075991088595231e+00
2.478075624866481697e+00
2.474138004699850679e+00
2.474138004699850679e+00
2.447699697866756008e+00
2.472075441755424485e+00
2.472075441755424485e+00
2.505638966032898818e+00
2.505638966032898818e+00
2.539202490310373150e+00
2.565265785699026413e+00
2.565265785699026413e+00
2.573141026032288892e+00
2.573141026032288892e+00
2.541640064699239865e+00
2.497951231421857266e+00
2.497951231421857266e+00
2.479575670644245999e+00
2.479575670644245999e+00
2.473012970366527341e+00
2.460637592699972398e+00
2.460637592699972398e+00
2.431761711478011456e+00
2.431761711478011456e+00
2.437949400311288706e+00
2.473200476088747823e+00
2.473200476088747823e+00
2.464950224311044824e+00
2.501138828699606353e+00
2.501138828699606353e+00
2.548577776421399932e+00
2.548577776421399932e+00
2.556828028199102931e+00
2.570328440198980768e+00
2.570328440198980768e+00
2.575578600421155162e+00
2.575578600421155162e+00
2.550452833643604755e+00
2.513326700643940814e+00
2.513326700643940814e+00
2.489888485366374749e+00
2.489888485366374749e+00
2.480513199255348411e+00
2.467387798699911539e+00
2.467387798699911539e+00
2.447887203588976490e+00
2.447887203588976490e+00
2.460262581255531433e+00
2.427824091311380439e+00
2.427824091311380439e+00
2.412448622089296890e+00
2.503388897366253030e+00
2.503388897366253030e+00
2.564890774254585448e+00
2.564890774254585448e+00
2.551015350810266202e+00
2.572766014587847927e+00
2.572766014587847927e+00
2.548577776421399932e+00
2.548577776421399932e+00
2.522326975310525743e+00
2.503013885921811621e+00
2.503013885921811621e+00
2.479388164922025517e+00
2.479388164922025517e+00
2.485763359477523249e+00
2.474513016144291644e+00
2.474513016144291644e+00
2.483700796533097499e+00
2.483700796533097499e+00
2.461200109866634289e+00
2.434574297311319135e+00
2.434574297311319135e+00
2.443762077700125435e+00
2.489888485366374749e+00
2.489888485366374749e+00
2.530202215643787778e+00
2.530202215643787778e+00
2.551202856532486685e+00
2.568265877254555019e+00
2.568265877254555019e+00
2.555890499588000075e+00
2.555890499588000075e+00
2.524764549699392902e+00
2.515951780755027567e+00
2.515951780755027567e+00
2.500763817255165389e+00
2.500763817255165389e+00
2.502451368755150174e+00
2.485950865199743731e+00
2.485950865199743731e+00
2.468887844477675397e+00
2.468887844477675397e+00
2.474138004699850679e+00
2.467200292977691056e+00
2.467200292977691056e+00
2.481825739310891787e+00
2.511639149143956029e+00
2.511639149143956029e+00
2.525139561143833866e+00
2.525139561143833866e+00
2.552515396588030505e+00
2.547077730643635629e+00
2.547077730643635629e+00
2.513889217810602261e+00
2.513889217810602261e+00
2.485200842310861358e+00
2.479388164922025517e+00
2.479388164922025517e+00
2.462325144199957183e+00
2.462325144199957183e+00
2.457262489700002828e+00
2.449199743644520311e+00
2.449199743644520311e+00
2.459700064088869986e+00
2.507701528977324568e+00
2.507701528977324568e+00
2.485013336588640875e+00
2.505451460310678335e+00
2.505451460310678335e+00
2.529452192754905848e+00
2.540515030365916971e+00
2.540515030365916971e+00
2.563203222754600663e+00
2.565828302865687860e+00
2.565828302865687860e+00
2.538827478865932186e+00
2.538827478865932186e+00
2.513889217810602261e+00
2.497951231421857266e+00
2.497951231421857266e+00
2.482950773644215126e+00
2.482950773644215126e+00
2.476763084810937876e+00
2.470762901699881109e+00
2.470762901699881109e+00
2.446387157811212187e+00
2.413386150700399746e+00
2.413386150700399746e+00
2.446199652088991705e+00
2.446199652088991705e+00
2.542390087588122238e+00
2.535452375865963059e+00
2.535452375865963059e+00
2.543515121921445576e+00
2.543515121921445576e+00
2.576516129032258018e+00
2.570515945921201251e+00
2.570515945921201251e+00
2.538452467421491221e+00
2.538452467421491221e+00
2.507326517532883603e+00
2.475450544755394056e+00
2.475450544755394056e+00
2.456699972533341381e+00
2.442449537644581614e+00
2.442449537644581614e+00
2.442637043366802097e+00
2.442637043366802097e+00
2.449387249366740793e+00
2.444512100589007364e+00
2.444512100589007364e+00
2.488013428144169481e+00
2.488013428144169481e+00
2.532639790032654936e+00
2.553452925199133361e+00
2.553452925199133361e+00
2.562078188421277325e+00
2.562078188421277325e+00
2.566765831476790716e+00
2.550265327921384717e+00
2.550265327921384717e+00
2.511826654866176511e+00
2.511826654866176511e+00
2.500201300088503942e+00
2.487825922421948999e+00
2.488763451033051854e+00
2.488763451033051854e+00
2.475638050477614982e+00
2.475638050477614982e+00
2.462512649922177665e+00
2.438886928922391562e+00
2.438886928922391562e+00
2.439636951811273491e+00
2.474513016144291644e+00
2.474513016144291644e+00
2.517451826532791870e+00
2.517451826532791870e+00
2.542390087588122238e+00
2.546702719199194664e+00
2.546702719199194664e+00
2.569578417310098839e+00
2.569578417310098839e+00
2.551015350810266202e+00
2.526827112643818651e+00
2.526827112643818651e+00
2.515764275032807085e+00
2.487450910977508034e+00
2.487450910977508034e+00
2.467762810144352947e+00
2.467762810144352947e+00
2.441887020477920167e+00
2.436261848811303921e+00
2.436261848811303921e+00
2.447887203588976490e+00
2.447887203588976490e+00
2.430261665700247153e+00
2.488388439588610446e+00
2.488388439588610446e+00
2.547452742088076594e+00
2.547452742088076594e+00
2.558328073976867234e+00
2.588516495254371552e+00
2.588516495254371552e+00
2.582891323587756194e+00
2.539952513199255080e+00
2.539952513199255080e+00
2.511826654866176511e+00
2.511826654866176511e+00
2.491388531144139051e+00
2.478638142033143144e+00
2.478638142033143144e+00
2.477700613422040732e+00
2.477700613422040732e+00
2.469450361644337288e+00
2.474325510422071162e+00
2.474325510422071162e+00
2.460262581255531433e+00
2.460262581255531433e+00
2.456699972533341381e+00
2.498138737144077748e+00
2.498138737144077748e+00
2.539577501754814115e+00
2.539577501754814115e+00
2.557390545365764378e+00
2.560578142643513466e+00
2.560578142643513466e+00
2.522139469588305261e+00
2.482575762199774161e+00
2.482575762199774161e+00
2.488950956755272337e+00
2.488950956755272337e+00
2.486325876644184696e+00
2.487825922421948999e+00
2.487825922421948999e+00
2.474700521866512126e+00
2.474700521866512126e+00
2.466262764366588645e+00
2.462700155644398592e+00
2.462700155644398592e+00
2.457074983977782345e+00
2.471700430310983521e+00
2.471700430310983521e+00
2.530952238532670151e+00
2.545765190588091809e+00
2.545765190588091809e+00
2.541640064699239865e+00
2.541640064699239865e+00
2.552327890865810023e+00
2.518951872310556173e+00
2.518951872310556173e+00
2.506013977477339782e+00
2.506013977477339782e+00
2.494388622699667213e+00
2.494388622699667213e+00
2.494388622699667213e+00
2.494763634144108178e+00
2.494763634144108178e+00
2.479013153477584552e+00
2.473950498977630197e+00
2.473950498977630197e+00
2.468700338755454915e+00
2.457074983977782345e+00
2.457074983977782345e+00
2.484075807977538464e+00
2.484075807977538464e+00
2.519326883754997581e+00
2.524764549699392902e+00
2.524764549699392902e+00
2.560953154087954431e+00
2.578016174810022321e+00
2.578016174810022321e+00
2.548577776421399932e+00
2.548577776421399932e+00
2.527014618366038690e+00
2.506576494644001674e+00
2.506576494644001674e+00
2.489325968199713301e+00
2.489325968199713301e+00
2.484075807977538464e+00
2.460825098422192880e+00
2.460825098422192880e+00
2.466075258644368162e+00
2.466075258644368162e+00
2.419761345255897922e+00
2.425574022644734207e+00
2.425574022644734207e+00
2.467012787255470574e+00
2.467012787255470574e+00
2.504888943144016888e+00
2.528889675588243957e+00
2.528889675588243957e+00
2.565828302865687860e+00
2.562453199865718290e+00
2.562453199865718290e+00
2.536577410199285953e+00
2.536577410199285953e+00
2.500576311532944906e+00
2.469450361644337288e+00
2.469450361644337288e+00
2.485763359477523249e+00
2.485763359477523249e+00
2.485388348033082284e+00
2.492513565477461945e+00
2.492513565477461945e+00
2.495513657032990551e+00
2.495513657032990551e+00
2.489513473921933784e+00
2.481825739310891787e+00
2.481825739310891787e+00
2.505451460310678335e+00
2.505451460310678335e+00
2.525327066866054349e+00
2.542390087588122238e+00
2.542390087588122238e+00
2.555702993865779593e+00
2.549140293588061379e+00
2.549140293588061379e+00
2.532452284310434454e+00
2.532452284310434454e+00
2.511826654866176511e+00
2.475263039033173573e+00
2.475263039033173573e+00
2.477138096255378841e+00
2.477138096255378841e+00
2.456324961088900860e+00
2.452574846644489881e+00
2.452574846644489881e+00
2.440574480422376347e+00
2.440574480422376347e+00
2.433824274422437206e+00
2.471325418866542556e+00
2.471325418866542556e+00
2.520826929532761884e+00
2.520826929532761884e+00
2.542015076143681274e+00
2.563578234199041628e+00
2.563578234199041628e+00
2.575203588976714197e+00
2.543140110477004168e+00
2.543140110477004168e+00
2.519139378032776655e+00
2.519139378032776655e+00
2.500201300088503942e+00
2.483700796533097499e+00
2.483700796533097499e+00
2.466262764366588645e+00
2.466262764366588645e+00
2.465700247199926753e+00
2.462512649922177665e+00
2.462512649922177665e+00
2.453512375255592737e+00
2.453512375255592737e+00
2.456324961088900860e+00
2.498701254310739639e+00
2.498701254310739639e+00
2.539765007477034597e+00
2.539765007477034597e+00
2.544077639088107023e+00
2.558515579699087716e+00
2.558515579699087716e+00
2.541265053254798900e+00
2.516701803643909940e+00
2.516701803643909940e+00
2.500013794366283459e+00
2.500013794366283459e+00
2.494951139866329104e+00
2.483888302255317981e+00
2.483888302255317981e+00
2.473575487533188788e+00
2.473575487533188788e+00
2.461950132755516218e+00
2.462325144199957183e+00
2.462325144199957183e+00
2.464950224311044824e+00
2.464950224311044824e+00
2.481450727866450823e+00
2.530764732810449669e+00
2.530764732810449669e+00
2.549515305032502344e+00
2.545015167699209435e+00
2.545015167699209435e+00
2.555140476699118146e+00
2.555140476699118146e+00
2.540140018921475562e+00
2.506388988921781191e+00
2.506388988921781191e+00
2.477700613422040732e+00
2.477700613422040732e+00
2.467762810144352947e+00
2.470762901699881109e+00
2.470762901699881109e+00
2.471512924588763038e+00
2.471512924588763038e+00
2.472825464644306859e+00
2.481075716422009858e+00
2.481075716422009858e+00
2.470575395977660182e+00
2.470575395977660182e+00
2.492701071199682428e+00
2.527764641254921063e+00
2.527764641254921063e+00
2.537702444532609292e+00
2.550827845088045720e+00
2.550827845088045720e+00
2.562265694143497807e+00
2.562265694143497807e+00
2.525514572588274831e+00
2.497013702810754854e+00
2.497013702810754854e+00
2.477513107699820250e+00
2.477513107699820250e+00
2.471137913144322074e+00
2.465325235755485789e+00
2.465325235755485789e+00
2.456887478255561863e+00
2.456887478255561863e+00
2.460825098422192880e+00
2.468325327311013950e+00
2.468325327311013950e+00
2.458950041199987613e+00
2.458950041199987613e+00
2.490638508255257122e+00
2.533764824365978274e+00
2.533764824365978274e+00
2.545390179143650844e+00
2.545390179143650844e+00
2.559265602587969646e+00
2.551202856532486685e+00
2.551202856532486685e+00
2.525889584032716240e+00
2.497576219977416301e+00
2.497576219977416301e+00
2.482388256477553679e+00
2.482388256477553679e+00
2.474325510422071162e+00
2.474700521866512126e+00
2.474700521866512126e+00
2.475075533310953091e+00
2.475075533310953091e+00
2.477513107699820250e+00
2.468887844477675397e+00
2.468887844477675397e+00
2.470950407422101591e+00
2.511076631977294138e+00
2.511076631977294138e+00
2.541265053254798900e+00
2.541265053254798900e+00
2.536202398754844989e+00
2.550265327921384717e+00
2.550265327921384717e+00
2.543702627643666059e+00
2.518389355143894726e+00
2.518389355143894726e+00
2.491388531144139051e+00
2.491388531144139051e+00
2.473387981810968306e+00
2.473200476088747823e+00
2.473200476088747823e+00
2.481825739310891787e+00
2.481825739310891787e+00
2.482763267921994643e+00
2.485763359477523249e+00
2.485763359477523249e+00
2.467200292977691056e+00
2.467200292977691056e+00
2.466450270088809127e+00
2.517826837977233279e+00
2.517826837977233279e+00
2.537889950254829774e+00
2.537889950254829774e+00
2.551390362254707167e+00
2.561890682699057287e+00
2.561890682699057287e+00
2.541452558977019383e+00
2.541452558977019383e+00
2.507139011810663121e+00
2.490826013977477604e+00
2.490826013977477604e+00
2.473387981810968306e+00
2.463262672811060039e+00
2.463262672811060039e+00
2.455199926755577522e+00
2.455199926755577522e+00
2.447887203588976490e+00
2.467387798699911539e+00
2.467387798699911539e+00
2.465512741477706271e+00
2.465512741477706271e+00
2.495701162755211033e+00
2.536014893032624506e+00
2.536014893032624506e+00
2.541827570421460791e+00
2.541827570421460791e+00
2.549702810754722826e+00
2.568640888698995983e+00
2.568640888698995983e+00
2.522701986754967152e+00
2.522701986754967152e+00
2.502638874477370656e+00
2.503013885921811621e+00
2.503013885921811621e+00
2.485575853755302767e+00
2.481263222144230340e+00
2.481263222144230340e+00
2.470200384533219218e+00
2.470200384533219218e+00
2.468700338755454915e+00
2.477513107699820250e+00
2.477513107699820250e+00
2.464012695699941968e+00
2.464012695699941968e+00
2.487075899533067069e+00
2.518764366588335690e+00
2.518764366588335690e+00
2.516326792199468976e+00
2.543702627643666059e+00
2.543702627643666059e+00
2.548015259254738041e+00
2.548015259254738041e+00
2.521389446699423331e+00
2.510326609088412209e+00
2.510326609088412209e+00
2.494576128421887695e+00
2.479763176366466482e+00
2.479763176366466482e+00
2.474513016144291644e+00
2.474513016144291644e+00
2.470762901699881109e+00
2.471512924588763038e+00
2.471512924588763038e+00
2.458762535477767130e+00
2.458762535477767130e+00
2.448449720755638381e+00
2.494763634144108178e+00
2.494763634144108178e+00
2.526639606921598169e+00
2.526639606921598169e+00
2.530764732810449669e+00
2.554015442365794808e+00
2.554015442365794808e+00
2.548952787865840897e+00
2.523452009643849081e+00
2.523452009643849081e+00
2.512951689199499850e+00
2.512951689199499850e+00
2.495138645588549586e+00
2.486138370921964214e+00
2.486138370921964214e+00
2.474325510422071162e+00
2.474325510422071162e+00
2.464575212866603859e+00
2.471512924588763038e+00
2.471512924588763038e+00
2.455574938200018487e+00
2.455574938200018487e+00
2.464950224311044824e+00
2.510889126255073656e+00
2.510889126255073656e+00
2.533389812921536866e+00
2.533389812921536866e+00
2.550640339365825238e+00
2.561515671254616322e+00
2.561515671254616322e+00
2.544640156254768470e+00
2.514264229255043226e+00
2.514264229255043226e+00
2.500013794366283459e+00
2.500013794366283459e+00
2.484825830866420393e+00
2.480325693533127485e+00
2.480325693533127485e+00
2.474888027588732609e+00
2.474888027588732609e+00
2.467575304422132465e+00
2.468512833033234433e+00
2.468512833033234433e+00
2.455387432477798004e+00
2.455387432477798004e+00
2.476575579088717394e+00
2.512764183477279367e+00
2.512764183477279367e+00
2.536764915921506436e+00
2.557578051087984861e+00
2.557578051087984861e+00
2.554202948088015290e+00
2.554202948088015290e+00
2.530764732810449669e+00
2.508076540421765976e+00
2.508076540421765976e+00
2.498888760032960121e+00
2.498888760032960121e+00
2.495326151310770069e+00
2.481263222144230340e+00
2.481263222144230340e+00
2.465137730033265306e+00
2.465137730033265306e+00
2.457637501144443792e+00
2.457825006866664719e+00
2.457825006866664719e+00
2.466075258644368162e+00
2.466075258644368162e+00
2.499826288644062977e+00
2.533577318643757348e+00
2.533577318643757348e+00
2.542577593310342721e+00
2.558328073976867234e+00
2.558328073976867234e+00
2.549702810754722826e+00
2.549702810754722826e+00
2.517264320810571387e+00
2.500763817255165389e+00
2.500763817255165389e+00
2.484825830866420393e+00
2.484825830866420393e+00
2.479575670644245999e+00
2.478825647755364070e+00
2.478825647755364070e+00
2.480513199255348411e+00
2.480513199255348411e+00
2.484638325144199911e+00
2.460262581255531433e+00
2.460262581255531433e+00
2.456324961088900860e+00
2.456324961088900860e+00
2.496826197088534371e+00
2.524014526810510528e+00
2.524014526810510528e+00
2.536577410199285953e+00
2.557390545365764378e+00
2.557390545365764378e+00
2.544827661976988953e+00
2.544827661976988953e+00
2.515201757866145638e+00
2.500013794366283459e+00
2.500013794366283459e+00
2.483138279366435608e+00
2.483138279366435608e+00
2.473575487533188788e+00
2.471512924588763038e+00
2.471512924588763038e+00
2.466075258644368162e+00
2.466075258644368162e+00
2.460825098422192880e+00
2.453887386700033701e+00
2.453887386700033701e+00
2.474325510422071162e+00
2.518389355143894726e+00
2.518389355143894726e+00
2.532639790032654936e+00
2.547077730643635629e+00
2.547077730643635629e+00
2.563203222754600663e+00
2.563203222754600663e+00
2.534139835810419239e+00
2.510514114810632691e+00
2.510514114810632691e+00
2.498138737144077748e+00
2.498138737144077748e+00
2.480325693533127485e+00
2.476200567644276429e+00
2.476200567644276429e+00
2.476013061922055947e+00
2.476013061922055947e+00
2.470200384533219218e+00
2.470012878810998735e+00
2.470012878810998735e+00
2.456512466811120898e+00
2.456512466811120898e+00
2.481450727866450823e+00
2.515576769310586602e+00
2.515576769310586602e+00
2.515014252143925599e+00
2.537889950254829774e+00
2.537889950254829774e+00
2.547077730643635629e+00
2.547077730643635629e+00
2.528889675588243957e+00
2.509014069032868388e+00
2.509014069032868388e+00
2.494951139866329104e+00
2.494951139866329104e+00
2.488200933866389963e+00
2.488200933866389963e+00
2.488200933866389963e+00
2.479200659199805035e+00
2.479200659199805035e+00
2.475638050477614982e+00
2.469637867366557771e+00
2.469637867366557771e+00
2.463262672811060039e+00
2.463262672811060039e+00
2.501138828699606353e+00
2.526077089754936722e+00
2.526077089754936722e+00
2.533202307199316383e+00
2.533202307199316383e+00
2.555140476699118146e+00
2.547640247810297076e+00
2.547640247810297076e+00
2.516701803643909940e+00
2.493451094088564801e+00
2.493451094088564801e+00
2.481263222144230340e+00
2.481263222144230340e+00
2.477325601977599767e+00
2.478263130588702179e+00
2.478263130588702179e+00
2.472450453199865894e+00
2.472450453199865894e+00
2.474700521866512126e+00
2.458200018311105683e+00
2.458200018311105683e+00
2.466637775811029609e+00
2.466637775811029609e+00
2.512576677755058441e+00
2.525702078310495757e+00
2.525702078310495757e+00
2.539952513199255080e+00
2.539952513199255080e+00
2.559640614032411055e+00
2.543890133365886541e+00
2.543890133365886541e+00
2.510139103366191726e+00
2.496826197088534371e+00
2.496826197088534371e+00
2.481075716422009858e+00
2.481075716422009858e+00
2.479763176366466482e+00
2.475075533310953091e+00
2.475075533310953091e+00
2.467387798699911539e+00
2.467387798699911539e+00
2.469262855922116806e+00
2.461012604144413807e+00
2.461012604144413807e+00
2.479013153477584552e+00
2.479013153477584552e+00
2.523452009643849081e+00
2.540702536088137453e+00
2.540702536088137453e+00
2.556828028199102931e+00
2.564515762810144484e+00
2.564515762810144484e+00
2.536389904477065471e+00
2.536389904477065471e+00
2.507701528977324568e+00
2.491388531144139051e+00
2.491388531144139051e+00
2.474138004699850679e+00
2.474138004699850679e+00
2.474325510422071162e+00
2.467575304422132465e+00
2.467575304422132465e+00
2.463075167088839557e+00
2.463075167088839557e+00
2.458950041199987613e+00
2.453887386700033701e+00
2.453887386700033701e+00
2.493076082644123392e+00
2.493076082644123392e+00
2.532077272865993045e+00
2.536764915921506436e+00
2.536764915921506436e+00
2.560390636921292984e+00
2.556453016754661967e+00
2.556453016754661967e+00
2.516701803643909940e+00
2.516701803643909940e+00
2.494576128421887695e+00
2.485575853755302767e+00
2.485575853755302767e+00
2.481638233588671305e+00
2.481638233588671305e+00
2.484075807977538464e+00
2.477325601977599767e+00
2.477325601977599767e+00
2.479763176366466482e+00
2.479763176366466482e+00
2.462325144199957183e+00
2.458950041199987613e+00
2.458950041199987613e+00
2.505451460310678335e+00
2.505451460310678335e+00
2.527952146977141545e+00
2.532639790032654936e+00
2.532639790032654936e+00
2.550265327921384717e+00
2.539577501754814115e+00
2.539577501754814115e+00
2.514264229255043226e+00
2.514264229255043226e+00
2.495888668477431516e+00
2.469825373088778253e+00
2.469825373088778253e+00
2.467575304422132465e+00
2.467575304422132465e+00
2.469825373088778253e+00
2.466637775811029609e+00
2.466637775811029609e+00
2.471700430310983521e+00
2.471700430310983521e+00
2.459137546922208095e+00
2.476013061922055947e+00
2.476013061922055947e+00
2.525139561143833866e+00
2.542577593310342721e+00
2.542577593310342721e+00
2.552890408032471470e+00
2.552890408032471470e+00
2.567703360087893572e+00
2.543140110477004168e+00
2.543140110477004168e+00
2.505451460310678335e+00
2.505451460310678335e+00
2.484638325144199911e+00
2.466637775811029609e+00
2.466637775811029609e+00
2.468700338755454915e+00
2.468700338755454915e+00
2.467950315866573430e+00
2.469450361644337288e+00
2.469450361644337288e+00
2.464012695699941968e+00
2.457825006866664719e+00
2.457825006866664719e+00
2.486700888088625661e+00
2.486700888088625661e+00
2.527577135532700581e+00
2.541265053254798900e+00
2.541265053254798900e+00
2.559453108310190128e+00
2.559453108310190128e+00
2.555515488143559111e+00
2.528139652699362028e+00
2.528139652699362028e+00
2.501888851588488727e+00
2.501888851588488727e+00
2.488013428144169481e+00
2.476200567644276429e+00
2.476200567644276429e+00
2.479200659199805035e+00
2.479200659199805035e+00
2.473200476088747823e+00
2.466825281533250092e+00
2.466825281533250092e+00
2.467387798699911539e+00
2.461012604144413807e+00
2.461012604144413807e+00
2.493638599810785283e+00
2.530577227088229186e+00
2.530577227088229186e+00
2.535264870143742133e+00
2.535264870143742133e+00
2.557015533921323414e+00
2.546702719199194664e+00
2.546702719199194664e+00
2.517639332255012796e+00
2.517639332255012796e+00
2.490826013977477604e+00
2.478450636310922661e+00
2.478450636310922661e+00
2.477325601977599767e+00
2.477325601977599767e+00
2.480138187810907002e+00
2.470950407422101591e+00
2.470950407422101591e+00
2.471887936033204003e+00
2.471887936033204003e+00
2.461012604144413807e+00
2.469637867366557771e+00
2.469637867366557771e+00
2.511826654866176511e+00
2.535827387310404024e+00
2.535827387310404024e+00
2.545577684865871326e+00
2.545577684865871326e+00
2.563203222754600663e+00
2.546140202032532773e+00
2.546140202032532773e+00
2.512764183477279367e+00
2.512764183477279367e+00
2.496263679921872480e+00
2.482013245033112270e+00
2.482013245033112270e+00
2.481075716422009858e+00
2.481075716422009858e+00
2.472075441755424485e+00
2.458012512588885201e+00
2.458012512588885201e+00
2.465137730033265306e+00
2.465137730033265306e+00
2.455949949644459451e+00
2.475450544755394056e+00
2.475450544755394056e+00
2.521201940977202849e+00
2.533764824365978274e+00
2.533764824365978274e+00
2.539014984588152668e+00
2.539014984588152668e+00
2.557953062532425825e+00
2.536952421643726918e+00
2.536952421643726918e+00
2.510139103366191726e+00
2.510139103366191726e+00
2.501701345866268245e+00
2.485763359477523249e+00
2.485763359477523249e+00
2.480325693533127485e+00
2.480325693533127485e+00
2.474138004699850679e+00
2.464762718588824342e+00
2.464762718588824342e+00
2.462137638477736701e+00
2.462137638477736701e+00
2.449387249366740793e+00
2.480888210699789376e+00
2.480888210699789376e+00
2.525514572588274831e+00
2.538827478865932186e+00
2.538827478865932186e+00
2.560015625476852019e+00
2.557765556810205343e+00
2.557765556810205343e+00
2.526827112643818651e+00
2.501701345866268245e+00
2.501701345866268245e+00
2.487450910977508034e+00
2.479950682088686964e+00
2.479950682088686964e+00
2.481075716422009858e+00
2.481075716422009858e+00
2.463825189977721486e+00
2.461387615588854771e+00
2.461387615588854771e+00
2.456699972533341381e+00
2.456699972533341381e+00
2.454074892422254184e+00
2.497576219977416301e+00
2.497576219977416301e+00
2.530952238532670151e+00
2.530952238532670151e+00
2.529639698477126331e+00
2.552515396588030505e+00
2.552515396588030505e+00
2.545202673421430362e+00
2.545202673421430362e+00
2.517826837977233279e+00
2.500013794366283459e+00
2.500013794366283459e+00
2.485575853755302767e+00
2.485575853755302767e+00
2.478263130588702179e+00
2.478450636310922661e+00
2.478450636310922661e+00
2.475263039033173573e+00
2.477700613422040732e+00
2.477700613422040732e+00
2.458387524033326166e+00
2.458387524033326166e+00
2.465887752922147680e+00
2.509014069032868388e+00
2.509014069032868388e+00
2.527202124088259172e+00
2.527202124088259172e+00
2.535827387310404024e+00
2.556640522476882449e+00
2.556640522476882449e+00
2.538077455977050256e+00
2.508826563310647906e+00
2.508826563310647906e+00
2.500576311532944906e+00
2.500576311532944906e+00
2.486138370921964214e+00
2.482950773644215126e+00
2.482950773644215126e+00
2.476575579088717394e+00
2.476575579088717394e+00
2.468137821588793912e+00
2.470387890255439700e+00
2.470387890255439700e+00
2.460450086977751916e+00
2.483325785088656090e+00
2.483325785088656090e+00
2.524202032532731454e+00
2.535264870143742133e+00
2.535264870143742133e+00
2.548390270699179450e+00
2.548390270699179450e+00
2.555515488143559111e+00
2.529452192754905848e+00
2.529452192754905848e+00
2.502826380199591139e+00
2.502826380199591139e+00
2.489700979644154266e+00
2.479575670644245999e+00
2.479575670644245999e+00
2.478825647755364070e+00
2.471700430310983521e+00
2.471700430310983521e+00
2.464575212866603859e+00
2.464575212866603859e+00
2.468137821588793912e+00
2.458575029755546648e+00
2.458575029755546648e+00
2.492888576921902910e+00
2.492888576921902910e+00
2.527577135532700581e+00
2.532452284310434454e+00
2.532452284310434454e+00
2.557765556810205343e+00
2.557765556810205343e+00
2.552890408032471470e+00
2.522139469588305261e+00
2.522139469588305261e+00
2.498326242866298674e+00
2.482950773644215126e+00
2.482950773644215126e+00
2.479013153477584552e+00
2.479013153477584552e+00
2.474325510422071162e+00
2.468137821588793912e+00
2.468137821588793912e+00
2.476388073366496911e+00
2.476388073366496911e+00
2.469825373088778253e+00
2.459325052644428578e+00
2.459325052644428578e+00
2.520826929532761884e+00
2.520826929532761884e+00
2.544452650532547988e+00
2.540327524643696488e+00
2.540327524643696488e+00
2.563390728476821145e+00
2.540327524643696488e+00
2.540327524643696488e+00
2.503763908810693550e+00
2.503763908810693550e+00
2.493638599810785283e+00
2.476200567644276429e+00
2.476200567644276429e+00
2.469825373088778253e+00
2.469825373088778253e+00
2.473012970366527341e+00
2.467387798699911539e+00
2.467387798699911539e+00
2.464387707144383377e+00
2.464387707144383377e+00
2.448824732200079346e+00
2.467762810144352947e+00
2.467762810144352947e+00
2.516889309366130423e+00
2.530952238532670151e+00
2.530952238532670151e+00
2.540140018921475562e+00
2.540140018921475562e+00
2.559265602587969646e+00
2.535077364421521651e+00
2.535077364421521651e+00
2.504888943144016888e+00
2.504888943144016888e+00
2.487638416699728516e+00
2.470950407422101591e+00
2.470950407422101591e+00
2.473387981810968306e+00
2.466450270088809127e+00
2.466450270088809127e+00
2.468325327311013950e+00
2.468325327311013950e+00
2.473950498977630197e+00
2.467762810144352947e+00
2.467762810144352947e+00
2.495888668477431516e+00
2.495888668477431516e+00
2.537139927365947845e+00
2.540890041810357936e+00
2.540890041810357936e+00
2.553265419476912879e+00
2.553265419476912879e+00
2.557765556810205343e+00
2.526827112643818651e+00
2.526827112643818651e+00
2.502076357310709209e+00
2.502076357310709209e+00
2.488575945310831372e+00
2.478638142033143144e+00
2.478638142033143144e+00
2.479575670644245999e+00
2.472075441755424485e+00
2.472075441755424485e+00
2.462887661366619074e+00
2.462887661366619074e+00
2.454074892422254184e+00
2.460825098422192880e+00
2.460825098422192880e+00
2.493638599810785283e+00
2.493638599810785283e+00
2.530952238532670151e+00
2.532452284310434454e+00
2.532452284310434454e+00
2.551202856532486685e+00
2.551202856532486685e+00
2.542202581865901756e+00
2.516514297921689458e+00
2.516514297921689458e+00
2.503576403088473068e+00
2.503576403088473068e+00
2.490638508255257122e+00
2.485200842310861358e+00
2.485200842310861358e+00
2.482388256477553679e+00
2.469825373088778253e+00
2.469825373088778253e+00
2.470200384533219218e+00
2.470200384533219218e+00
2.457449995422223310e+00
2.467012787255470574e+00
2.467012787255470574e+00
2.513701712088381779e+00
2.513701712088381779e+00
2.537889950254829774e+00
2.539202490310373150e+00
2.539202490310373150e+00
2.557953062532425825e+00
2.557953062532425825e+00
2.540140018921475562e+00
2.512576677755058441e+00
2.512576677755058441e+00
2.498513748588519157e+00
2.482575762199774161e+00
2.482575762199774161e+00
2.481638233588671305e+00
2.481638233588671305e+00
2.475263039033173573e+00
2.467762810144352947e+00
2.467762810144352947e+00
2.468700338755454915e+00
2.468700338755454915e+00
2.454637409588916075e+00
2.472450453199865894e+00
2.472450453199865894e+00
2.520451918088320475e+00
2.520451918088320475e+00
2.532827295754875419e+00
2.548390270699179450e+00
2.548390270699179450e+00
2.559453108310190128e+00
2.559453108310190128e+00
2.533577318643757348e+00
2.502826380199591139e+00
2.502826380199591139e+00
2.490638508255257122e+00
2.476388073366496911e+00
2.476388073366496911e+00
2.480888210699789376e+00
2.480888210699789376e+00
2.477138096255378841e+00
2.468887844477675397e+00
2.468887844477675397e+00
2.465512741477706271e+00
2.465512741477706271e+00
2.455762443922238969e+00
2.489700979644154266e+00
2.489700979644154266e+00
2.531702261421552080e+00
2.531702261421552080e+00
2.535827387310404024e+00
2.550452833643604755e+00
2.550452833643604755e+00
2.549890316476943308e+00
2.549890316476943308e+00
2.522701986754967152e+00
2.494576128421887695e+00
2.494576128421887695e+00
2.480513199255348411e+00
2.480513199255348411e+00
2.471137913144322074e+00
2.470950407422101591e+00
2.470950407422101591e+00
2.467575304422132465e+00
2.474138004699850679e+00
2.474138004699850679e+00
2.464950224311044824e+00
2.464950224311044824e+00
2.467200292977691056e+00
2.511451643421735547e+00
2.511451643421735547e+00
2.540702536088137453e+00
2.540702536088137453e+00
2.545952696310312291e+00
2.567328348643452163e+00
2.567328348643452163e+00
2.549140293588061379e+00
2.509764091921750762e+00
2.509764091921750762e+00
2.481825739310891787e+00
2.481825739310891787e+00
2.466450270088809127e+00
2.462887661366619074e+00
2.462887661366619074e+00
2.466825281533250092e+00
2.466825281533250092e+00
2.466825281533250092e+00
2.470762901699881109e+00
2.470762901699881109e+00
2.459137546922208095e+00
2.459137546922208095e+00
2.469262855922116806e+00
2.514451734977264152e+00
2.514451734977264152e+00
2.532639790032654936e+00
2.532639790032654936e+00
2.544265144810327506e+00
2.564140751365703075e+00
2.564140751365703075e+00
2.538264961699270739e+00
2.506388988921781191e+00
2.506388988921781191e+00
2.498138737144077748e+00
2.498138737144077748e+00
2.480700704977568893e+00
2.478825647755364070e+00
2.478825647755364070e+00
2.472262947477644968e+00
2.472262947477644968e+00
2.468137821588793912e+00
2.464950224311044824e+00
2.464950224311044824e+00
2.454074892422254184e+00
2.454074892422254184e+00
2.477700613422040732e+00
2.525327066866054349e+00
2.525327066866054349e+00
2.537514938810388809e+00
2.537514938810388809e+00
2.557203039643543896e+00
2.563015717032380181e+00
2.563015717032380181e+00
2.540140018921475562e+00
2.540140018921475562e+00
2.514639240699484635e+00
2.497388714255195818e+00
2.497388714255195818e+00
2.474888027588732609e+00
2.470012878810998735e+00
2.470012878810998735e+00
2.469637867366557771e+00
2.469637867366557771e+00
2.465700247199926753e+00
2.459325052644428578e+00
2.459325052644428578e+00
2.454074892422254184e+00
2.454074892422254184e+00
2.490075991088595231e+00
2.519139378032776655e+00
2.519139378032776655e+00
2.531702261421552080e+00
2.550640339365825238e+00
2.550640339365825238e+00
2.543702627643666059e+00
2.543702627643666059e+00
2.522701986754967152e+00
2.503951414532914033e+00
2.503951414532914033e+00
2.483888302255317981e+00
2.483888302255317981e+00
2.472825464644306859e+00
2.478450636310922661e+00
2.478450636310922661e+00
2.468700338755454915e+00
2.468700338755454915e+00
2.470762901699881109e+00
2.463825189977721486e+00
2.463825189977721486e+00
2.464387707144383377e+00
2.505076448866237371e+00
2.505076448866237371e+00
2.525889584032716240e+00
2.525889584032716240e+00
2.534139835810419239e+00
2.561328165532395840e+00
2.561328165532395840e+00
2.546327707754753256e+00
2.546327707754753256e+00
2.521201940977202849e+00
2.508076540421765976e+00
2.508076540421765976e+00
2.490826013977477604e+00
2.490826013977477604e+00
2.483888302255317981e+00
2.477700613422040732e+00
2.477700613422040732e+00
2.473575487533188788e+00
2.473575487533188788e+00
2.472825464644306859e+00
2.460825098422192880e+00
2.460825098422192880e+00
2.467575304422132465e+00
2.467575304422132465e+00
2.511639149143956029e+00
2.521389446699423331e+00
2.521389446699423331e+00
2.525139561143833866e+00
2.542952604754783685e+00
2.542952604754783685e+00
2.524764549699392902e+00
2.524764549699392902e+00
2.501326334421826836e+00
2.496451185644092963e+00
2.496451185644092963e+00
2.481075716422009858e+00
2.481075716422009858e+00
2.479200659199805035e+00
2.473387981810968306e+00
2.473387981810968306e+00
2.466262764366588645e+00
2.468325327311013950e+00
2.468325327311013950e+00
2.456512466811120898e+00
2.456512466811120898e+00
2.482575762199774161e+00
2.527389629810480098e+00
2.527389629810480098e+00
2.538452467421491221e+00
2.538452467421491221e+00
2.548015259254738041e+00
2.551015350810266202e+00
2.551015350810266202e+00
2.529264687032685366e+00
2.507326517532883603e+00
2.490826013977477604e+00
2.490826013977477604e+00
2.482763267921994643e+00
2.482763267921994643e+00
2.480700704977568893e+00
2.471887936033204003e+00
2.471887936033204003e+00
2.468700338755454915e+00
2.468700338755454915e+00
2.466637775811029609e+00
2.462325144199957183e+00
2.462325144199957183e+00
2.500951322977385871e+00
2.500951322977385871e+00
2.527764641254921063e+00
2.526639606921598169e+00
2.526639606921598169e+00
2.551015350810266202e+00
2.551015350810266202e+00
2.547452742088076594e+00
2.516139286477248493e+00
2.516139286477248493e+00
2.497576219977416301e+00
2.497576219977416301e+00
2.482013245033112270e+00
2.477700613422040732e+00
2.477700613422040732e+00
2.472825464644306859e+00
2.463450178533280521e+00
2.463450178533280521e+00
2.464950224311044824e+00
2.464950224311044824e+00
2.458575029755546648e+00
2.470012878810998735e+00
2.470012878810998735e+00
2.516889309366130423e+00
2.516889309366130423e+00
2.539577501754814115e+00
2.546327707754753256e+00
2.546327707754753256e+00
2.563390728476821145e+00
2.563390728476821145e+00
2.534327341532639721e+00
2.505638966032898818e+00
2.505638966032898818e+00
2.497951231421857266e+00
2.497951231421857266e+00
2.483888302255317981e+00
2.479763176366466482e+00
2.479763176366466482e+00
2.472825464644306859e+00
2.472825464644306859e+00
2.466450270088809127e+00
2.467575304422132465e+00
2.467575304422132465e+00
2.453137363811151772e+00
2.474138004699850679e+00
2.474138004699850679e+00
2.517264320810571387e+00
2.528139652699362028e+00
2.528139652699362028e+00
2.539765007477034597e+00
2.539765007477034597e+00
2.556640522476882449e+00
2.531514755699331598e+00
2.531514755699331598e+00
2.504888943144016888e+00
2.504888943144016888e+00
2.495513657032990551e+00
2.482388256477553679e+00
2.482388256477553679e+00
2.481450727866450823e+00
2.464575212866603859e+00
2.464575212866603859e+00
2.461387615588854771e+00
2.461387615588854771e+00
2.465887752922147680e+00
2.462325144199957183e+00
2.462325144199957183e+00
2.496263679921872480e+00
2.496263679921872480e+00
2.538639973143711703e+00
2.543140110477004168e+00
2.543140110477004168e+00
2.559078096865749163e+00
2.559078096865749163e+00
2.555702993865779593e+00
2.531139744254890633e+00
2.531139744254890633e+00
2.510701620532853173e+00
2.510701620532853173e+00
2.485950865199743731e+00
2.475075533310953091e+00
2.475075533310953091e+00
2.470575395977660182e+00
2.450512283700064131e+00
2.450512283700064131e+00
2.457262489700002828e+00
2.457262489700002828e+00
2.455949949644459451e+00
2.458575029755546648e+00
2.458575029755546648e+00
2.500388805810724424e+00
2.500388805810724424e+00
2.532264778588213971e+00
2.535452375865963059e+00
2.535452375865963059e+00
2.561515671254616322e+00
2.561515671254616322e+00
2.538827478865932186e+00
2.519139378032776655e+00
2.519139378032776655e+00
2.501701345866268245e+00
2.501701345866268245e+00
2.482200750755333196e+00
2.471887936033204003e+00
2.471887936033204003e+00
2.467575304422132465e+00
2.456699972533341381e+00
2.456699972533341381e+00
2.464200201422162451e+00
2.464200201422162451e+00
2.460262581255531433e+00
2.473950498977630197e+00
2.473950498977630197e+00
2.522701986754967152e+00
2.522701986754967152e+00
2.539765007477034597e+00
2.548015259254738041e+00
2.548015259254738041e+00
2.563203222754600663e+00
2.537889950254829774e+00
2.537889950254829774e+00
2.509576586199530279e+00
2.509576586199530279e+00
2.497013702810754854e+00
2.485013336588640875e+00
2.485013336588640875e+00
2.485013336588640875e+00
2.485013336588640875e+00
2.478450636310922661e+00
2.470012878810998735e+00
2.470012878810998735e+00
2.464950224311044824e+00
2.464950224311044824e+00
2.455387432477798004e+00
2.476388073366496911e+00
2.476388073366496911e+00
2.515951780755027567e+00
2.529077181310464884e+00
2.529077181310464884e+00
2.549140293588061379e+00
2.549140293588061379e+00
2.553452925199133361e+00
2.516889309366130423e+00
2.516889309366130423e+00
2.498888760032960121e+00
2.498888760032960121e+00
2.486700888088625661e+00
2.473387981810968306e+00
2.473387981810968306e+00
2.472262947477644968e+00
2.472262947477644968e+00
2.466262764366588645e+00
2.467950315866573430e+00
2.467950315866573430e+00
2.466450270088809127e+00
2.466450270088809127e+00
2.459887569811090469e+00
2.496076174199651998e+00
2.496076174199651998e+00
2.528514664143802992e+00
2.528514664143802992e+00
2.534327341532639721e+00
2.549327799310281861e+00
2.549327799310281861e+00
2.553265419476912879e+00
2.517639332255012796e+00
2.517639332255012796e+00
2.503201391644032547e+00
2.503201391644032547e+00
2.494201116977446731e+00
2.479200659199805035e+00
2.479200659199805035e+00
2.477888119144261214e+00
2.477888119144261214e+00
2.472075441755424485e+00
2.470762901699881109e+00
2.470762901699881109e+00
2.459512558366649504e+00
2.459512558366649504e+00
2.467012787255470574e+00
2.510514114810632691e+00
2.510514114810632691e+00
2.543140110477004168e+00
2.543890133365886541e+00
2.543890133365886541e+00
2.559640614032411055e+00
2.559640614032411055e+00
2.540515030365916971e+00
2.509201574755088870e+00
2.509201574755088870e+00
2.496076174199651998e+00
2.478825647755364070e+00
2.478825647755364070e+00
2.478825647755364070e+00
2.478825647755364070e+00
2.469825373088778253e+00
2.458950041199987613e+00
2.458950041199987613e+00
2.458012512588885201e+00
2.458012512588885201e+00
2.451074800866725578e+00
2.470387890255439700e+00
2.470387890255439700e+00
2.510326609088412209e+00
2.510326609088412209e+00
2.530764732810449669e+00
2.549702810754722826e+00
2.549702810754722826e+00
2.563203222754600663e+00
2.563203222754600663e+00
2.533952330088198757e+00
2.500951322977385871e+00
2.500951322977385871e+00
2.490451002533036640e+00
2.490451002533036640e+00
2.480700704977568893e+00
2.484450819421979428e+00
2.484450819421979428e+00
2.483888302255317981e+00
2.477325601977599767e+00
2.477325601977599767e+00
2.477138096255378841e+00
2.477138096255378841e+00
2.467762810144352947e+00
2.489513473921933784e+00
2.489513473921933784e+00
2.524764549699392902e+00
2.524764549699392902e+00
2.532264778588213971e+00
2.549702810754722826e+00
2.549702810754722826e+00
2.553077913754691952e+00
2.553077913754691952e+00
2.519514389477218064e+00
2.495138645588549586e+00
2.495138645588549586e+00
2.482200750755333196e+00
2.470012878810998735e+00
2.470012878810998735e+00
2.469825373088778253e+00
2.469825373088778253e+00
2.460262581255531433e+00
2.458575029755546648e+00
2.458575029755546648e+00
2.455199926755577522e+00
2.455199926755577522e+00
2.452949858088931290e+00
2.501888851588488727e+00
2.501888851588488727e+00
2.540327524643696488e+00
2.540327524643696488e+00
2.541827570421460791e+00
2.563390728476821145e+00
2.563390728476821145e+00
2.554202948088015290e+00
2.554202948088015290e+00
2.524389538254951937e+00
2.506764000366222156e+00
2.506764000366222156e+00
2.489138462477492819e+00
2.483138279366435608e+00
2.483138279366435608e+00
2.477888119144261214e+00
2.477888119144261214e+00
2.465325235755485789e+00
2.462325144199957183e+00
2.462325144199957183e+00
2.452199835200048916e+00
2.452199835200048916e+00
2.458200018311105683e+00
2.507326517532883603e+00
2.507326517532883603e+00
2.528514664143802992e+00
2.541077547532578418e+00
2.541077547532578418e+00
2.561140659810174913e+00
2.561140659810174913e+00
2.533014801477095901e+00
2.499826288644062977e+00
2.499826288644062977e+00
2.492326059755241463e+00
2.492326059755241463e+00
2.477325601977599767e+00
2.478825647755364070e+00
2.478825647755364070e+00
2.474888027588732609e+00
2.474888027588732609e+00
2.469450361644337288e+00
2.473762993255409270e+00
2.473762993255409270e+00
2.462137638477736701e+00
2.462137638477736701e+00
2.479763176366466482e+00
2.523827021088290046e+00
2.523827021088290046e+00
2.530952238532670151e+00
2.547640247810297076e+00
2.547640247810297076e+00
2.560203131199072502e+00
2.560203131199072502e+00
2.529077181310464884e+00
2.501326334421826836e+00
2.501326334421826836e+00
2.491013519699698087e+00
2.491013519699698087e+00
2.477325601977599767e+00
2.473200476088747823e+00
2.473200476088747823e+00
2.469262855922116806e+00
2.469262855922116806e+00
2.471887936033204003e+00
2.473575487533188788e+00
2.473575487533188788e+00
2.462137638477736701e+00
2.462137638477736701e+00
2.491201025421918569e+00
2.525889584032716240e+00
2.525889584032716240e+00
2.519889400921659028e+00
2.519889400921659028e+00
2.542202581865901756e+00
2.553640430921353843e+00
2.553640430921353843e+00
2.528327158421582510e+00
2.506013977477339782e+00
2.506013977477339782e+00
2.487825922421948999e+00
2.487825922421948999e+00
2.475825556199835464e+00
2.478638142033143144e+00
2.478638142033143144e+00
2.469262855922116806e+00
2.468700338755454915e+00
2.468700338755454915e+00
2.459137546922208095e+00
2.459137546922208095e+00
2.457637501144443792e+00
2.504701437421796406e+00
2.504701437421796406e+00
2.532077272865993045e+00
2.532077272865993045e+00
2.538827478865932186e+00
2.556640522476882449e+00
2.556640522476882449e+00
2.539765007477034597e+00
2.539765007477034597e+00
2.514639240699484635e+00
2.504513931699575480e+00
2.504513931699575480e+00
2.489138462477492819e+00
2.489138462477492819e+00
2.488013428144169481e+00
2.481075716422009858e+00
2.481075716422009858e+00
2.468700338755454915e+00
2.469825373088778253e+00
2.469825373088778253e+00
2.455762443922238969e+00
2.455762443922238969e+00
2.470387890255439700e+00
2.510701620532853173e+00
2.510701620532853173e+00
2.526452101199377687e+00
2.526452101199377687e+00
2.539202490310373150e+00
2.557765556810205343e+00
2.557765556810205343e+00
2.534702352977080686e+00
2.534702352977080686e+00
2.494576128421887695e+00
2.489138462477492819e+00
2.489138462477492819e+00
2.480138187810907002e+00
2.480138187810907002e+00
2.481263222144230340e+00
2.478263130588702179e+00
2.478263130588702179e+00
2.467387798699911539e+00
2.467387798699911539e+00
2.469450361644337288e+00
2.461387615588854771e+00
2.461387615588854771e+00
2.483325785088656090e+00
2.526827112643818651e+00
2.526827112643818651e+00
2.533764824365978274e+00
2.547265236365856111e+00
2.547265236365856111e+00
2.552140385143589540e+00
2.552140385143589540e+00
2.526827112643818651e+00
2.505076448866237371e+00
2.505076448866237371e+00
2.497388714255195818e+00
2.487450910977508034e+00
2.487450910977508034e+00
2.483700796533097499e+00
2.483700796533097499e+00
2.477513107699820250e+00
2.465887752922147680e+00
2.465887752922147680e+00
2.457074983977782345e+00
2.457074983977782345e+00
2.452574846644489881e+00
2.489325968199713301e+00
2.489325968199713301e+00
2.526452101199377687e+00
2.526452101199377687e+00
2.532077272865993045e+00
2.554390453810235773e+00
2.554390453810235773e+00
2.550452833643604755e+00
2.550452833643604755e+00
2.518576860866115208e+00
2.499263771477401086e+00
2.499263771477401086e+00
2.476950590533158358e+00
2.468512833033234433e+00
2.468512833033234433e+00
2.469450361644337288e+00
2.469450361644337288e+00
2.461575121311075254e+00
2.467575304422132465e+00
2.467575304422132465e+00
2.464200201422162451e+00
2.464200201422162451e+00
2.473012970366527341e+00
2.515201757866145638e+00
2.515201757866145638e+00
2.536389904477065471e+00
2.536389904477065471e+00
2.537139927365947845e+00
2.557765556810205343e+00
2.557765556810205343e+00
2.537139927365947845e+00
2.537139927365947845e+00
2.499826288644062977e+00
2.494763634144108178e+00
2.494763634144108178e+00
2.480700704977568893e+00
2.480700704977568893e+00
2.480700704977568893e+00
2.479388164922025517e+00
2.479388164922025517e+00
2.475450544755394056e+00
2.472075441755424485e+00
2.472075441755424485e+00
2.458012512588885201e+00
2.458012512588885201e+00
2.472450453199865894e+00
2.516514297921689458e+00
2.516514297921689458e+00
2.531514755699331598e+00
2.531514755699331598e+00
2.545577684865871326e+00
2.561328165532395840e+00
2.561328165532395840e+00
2.532264778588213971e+00
2.532264778588213971e+00
2.501326334421826836e+00
2.489513473921933784e+00
2.489513473921933784e+00
2.476950590533158358e+00
2.476950590533158358e+00
2.475825556199835464e+00
2.473762993255409270e+00
2.473762993255409270e+00
2.465887752922147680e+00
2.461387615588854771e+00
2.461387615588854771e+00
2.453137363811151772e+00
2.453137363811151772e+00
2.485388348033082284e+00
2.527764641254921063e+00
2.527764641254921063e+00
2.537139927365947845e+00
2.537139927365947845e+00
2.554015442365794808e+00
2.555140476699118146e+00
2.555140476699118146e+00
2.525327066866054349e+00
2.525327066866054349e+00
2.505451460310678335e+00
2.493451094088564801e+00
2.493451094088564801e+00
2.481450727866450823e+00
2.478825647755364070e+00
2.478825647755364070e+00
2.471512924588763038e+00
2.471512924588763038e+00
2.467762810144352947e+00
2.453512375255592737e+00
2.453512375255592737e+00
2.449574755088961275e+00
2.449574755088961275e+00
2.492701071199682428e+00
2.526452101199377687e+00
2.526452101199377687e+00
2.534139835810419239e+00
2.534139835810419239e+00
2.556078005310220558e+00
2.548202764976958523e+00
2.548202764976958523e+00
2.521576952421643814e+00
2.521576952421643814e+00
2.501888851588488727e+00
2.490263496810816157e+00
2.490263496810816157e+00
2.479388164922025517e+00
2.479200659199805035e+00
2.479200659199805035e+00
2.464012695699941968e+00
2.464012695699941968e+00
2.459700064088869986e+00
2.448824732200079346e+00
2.448824732200079346e+00
2.463825189977721486e+00
2.463825189977721486e+00
2.513326700643940814e+00
2.531139744254890633e+00
2.531139744254890633e+00
2.544640156254768470e+00
2.544640156254768470e+00
2.565078279976805931e+00
2.539389996032593633e+00
2.539389996032593633e+00
2.515764275032807085e+00
2.500388805810724424e+00
2.500388805810724424e+00
2.482763267921994643e+00
2.482763267921994643e+00
2.480700704977568893e+00
2.475075533310953091e+00
2.475075533310953091e+00
2.468137821588793912e+00
2.468137821588793912e+00
2.467012787255470574e+00
2.440761986144596829e+00
2.440761986144596829e+00
2.465512741477706271e+00
2.514264229255043226e+00
2.514264229255043226e+00
2.522889492477187634e+00
2.522889492477187634e+00
2.544640156254768470e+00
2.562640705587938772e+00
2.562640705587938772e+00
2.530577227088229186e+00
2.530577227088229186e+00
2.502263863032929692e+00
2.491013519699698087e+00
2.491013519699698087e+00
2.478825647755364070e+00
2.475263039033173573e+00
2.475263039033173573e+00
2.470950407422101591e+00
2.470950407422101591e+00
2.463075167088839557e+00
2.468512833033234433e+00
2.468512833033234433e+00
2.462887661366619074e+00
2.462887661366619074e+00
2.490638508255257122e+00
2.533202307199316383e+00
2.533202307199316383e+00
2.539014984588152668e+00
2.539014984588152668e+00
2.558140568254646752e+00
2.555327982421338628e+00
2.555327982421338628e+00
2.523264503921628599e+00
2.523264503921628599e+00
2.510514114810632691e+00
2.490826013977477604e+00
2.490826013977477604e+00
2.476763084810937876e+00
2.476763084810937876e+00
2.478450636310922661e+00
2.467575304422132465e+00
2.467575304422132465e+00
2.464575212866603859e+00
2.452949858088931290e+00
2.452949858088931290e+00
2.459137546922208095e+00
2.459137546922208095e+00
2.501888851588488727e+00
2.522326975310525743e+00
2.522326975310525743e+00
2.522514481032746669e+00
2.522514481032746669e+00
2.553265419476912879e+00
2.545015167699209435e+00
2.545015167699209435e+00
2.512576677755058441e+00
2.494013611255226248e+00
2.494013611255226248e+00
2.474888027588732609e+00
2.474888027588732609e+00
2.476013061922055947e+00
2.473200476088747823e+00
2.473200476088747823e+00
2.468887844477675397e+00
2.468887844477675397e+00
2.471512924588763038e+00
2.458012512588885201e+00
2.458012512588885201e+00
2.471137913144322074e+00
2.471137913144322074e+00
2.519889400921659028e+00
2.534327341532639721e+00
2.534327341532639721e+00
2.545390179143650844e+00
2.545390179143650844e+00
2.566015808587908342e+00
2.539202490310373150e+00
2.539202490310373150e+00
2.509389080477309353e+00
2.499451277199621568e+00
2.499451277199621568e+00
2.482763267921994643e+00
2.482763267921994643e+00
2.483138279366435608e+00
2.475450544755394056e+00
2.475450544755394056e+00
2.473575487533188788e+00
2.473575487533188788e+00
2.474325510422071162e+00
2.460075075533310951e+00
2.460075075533310951e+00
2.479388164922025517e+00
2.479388164922025517e+00
2.521764458143864296e+00
2.533764824365978274e+00
2.533764824365978274e+00
2.552327890865810023e+00
2.552327890865810023e+00
2.560953154087954431e+00
2.524202032532731454e+00
2.524202032532731454e+00
2.499638782921842051e+00
2.499638782921842051e+00
2.486325876644184696e+00
2.466825281533250092e+00
2.466825281533250092e+00
2.467950315866573430e+00
2.462325144199957183e+00
2.462325144199957183e+00
2.460637592699972398e+00
2.460637592699972398e+00
2.456699972533341381e+00
2.457262489700002828e+00
2.457262489700002828e+00
2.497763725699636783e+00
2.497763725699636783e+00
2.530389721366008260e+00
2.533952330088198757e+00
2.533952330088198757e+00
2.551577867976928093e+00
2.551577867976928093e+00
2.548765282143620414e+00
2.520451918088320475e+00
2.520451918088320475e+00
2.505451460310678335e+00
2.490638508255257122e+00
2.490638508255257122e+00
2.480138187810907002e+00
2.480138187810907002e+00
2.479763176366466482e+00
2.472637958922086376e+00
2.472637958922086376e+00
2.474888027588732609e+00
2.474888027588732609e+00
2.458575029755546648e+00
2.468512833033234433e+00
2.468512833033234433e+00
2.511264137699515064e+00
2.529639698477126331e+00
2.529639698477126331e+00
2.542202581865901756e+00
2.542202581865901756e+00
2.564328257087923557e+00
2.549890316476943308e+00
2.549890316476943308e+00
2.520076906643879511e+00
2.520076906643879511e+00
2.506388988921781191e+00
2.473762993255409270e+00
2.473762993255409270e+00
2.456699972533341381e+00
2.456699972533341381e+00
2.459512558366649504e+00
2.455949949644459451e+00
2.455949949644459451e+00
2.460825098422192880e+00
2.460825098422192880e+00
2.453512375255592737e+00
2.473387981810968306e+00
2.473387981810968306e+00
2.519889400921659028e+00
2.519889400921659028e+00
2.537139927365947845e+00
2.556078005310220558e+00
2.556078005310220558e+00
2.569765923032319321e+00
2.528327158421582510e+00
2.528327158421582510e+00
2.488575945310831372e+00
2.488575945310831372e+00
2.481263222144230340e+00
2.471137913144322074e+00
2.471137913144322074e+00
2.467387798699911539e+00
2.467387798699911539e+00
2.464012695699941968e+00
2.467575304422132465e+00
2.467575304422132465e+00
2.457074983977782345e+00
2.457074983977782345e+00
2.453137363811151772e+00
2.485013336588640875e+00
2.485013336588640875e+00
2.529639698477126331e+00
2.529639698477126331e+00
2.537889950254829774e+00
2.557390545365764378e+00
2.557390545365764378e+00
2.557390545365764378e+00
2.557390545365764378e+00
2.524764549699392902e+00
2.502451368755150174e+00
2.502451368755150174e+00
2.487263405255287552e+00
2.475638050477614982e+00
2.475638050477614982e+00
2.477700613422040732e+00
2.477700613422040732e+00
2.471137913144322074e+00
2.472825464644306859e+00
2.472825464644306859e+00
2.463450178533280521e+00
2.463450178533280521e+00
2.460637592699972398e+00
2.498513748588519157e+00
2.498513748588519157e+00
2.524952055421613384e+00
2.524952055421613384e+00
2.532077272865993045e+00
2.555515488143559111e+00
2.555515488143559111e+00
2.537139927365947845e+00
2.505076448866237371e+00
2.505076448866237371e+00
2.491763542588580016e+00
2.491763542588580016e+00
2.480888210699789376e+00
2.482388256477553679e+00
2.482388256477553679e+00
2.478450636310922661e+00
2.478450636310922661e+00
2.472262947477644968e+00
2.477700613422040732e+00
2.477700613422040732e+00
2.461012604144413807e+00
2.461012604144413807e+00
2.467575304422132465e+00
2.511639149143956029e+00
2.511639149143956029e+00
2.533389812921536866e+00
2.533389812921536866e+00
2.540140018921475562e+00
2.557578051087984861e+00
2.557578051087984861e+00
2.532452284310434454e+00
2.503951414532914033e+00
2.503951414532914033e+00
2.499451277199621568e+00
2.499451277199621568e+00
2.479013153477584552e+00
2.477138096255378841e+00
2.477138096255378841e+00
2.473950498977630197e+00
2.473950498977630197e+00
2.464387707144383377e+00
2.468512833033234433e+00
2.468512833033234433e+00
2.453137363811151772e+00
2.453137363811151772e+00
2.472637958922086376e+00
2.522701986754967152e+00
2.522701986754967152e+00
2.539952513199255080e+00
2.551202856532486685e+00
2.551202856532486685e+00
2.566203314310129269e+00
2.566203314310129269e+00
2.537702444532609292e+00
2.506013977477339782e+00
2.506013977477339782e+00
2.488200933866389963e+00
2.472450453199865894e+00
2.468325327311013950e+00
2.468325327311013950e+00
2.461762627033295736e+00
2.461762627033295736e+00
2.448824732200079346e+00
2.449199743644520311e+00
2.449199743644520311e+00
2.450324777977843649e+00
2.450324777977843649e+00
2.490826013977477604e+00
2.531889767143772563e+00
2.531889767143772563e+00
2.539765007477034597e+00
2.539765007477034597e+00
2.561703176976836804e+00
2.552327890865810023e+00
2.552327890865810023e+00
2.521389446699423331e+00
2.521389446699423331e+00
2.502826380199591139e+00
2.484638325144199911e+00
2.484638325144199911e+00
2.477325601977599767e+00
2.478825647755364070e+00
2.478825647755364070e+00
2.468137821588793912e+00
2.468137821588793912e+00
2.464575212866603859e+00
2.460075075533310951e+00
2.460075075533310951e+00
2.468137821588793912e+00
2.468137821588793912e+00
