2.498701254310739639e+00
2.498701254310739639e+00
2.498701254310739639e+00
2.495888668477431516e+00
2.495888668477431516e+00
2.495888668477431516e+00
2.484450819421979428e+00
2.484450819421979428e+00
2.484450819421979428e+00
2.477325601977599767e+00
2.477325601977599767e+00
2.477325601977599767e+00
2.477325601977599767e+00
2.457262489700002828e+00
2.457262489700002828e+00
2.457262489700002828e+00
2.452012329477828434e+00
2.452012329477828434e+00
2.452012329477828434e+00
2.430824182866909045e+00
2.430824182866909045e+00
2.430824182866909045e+00
2.430824182866909045e+00
2.443762077700125435e+00
2.443762077700125435e+00
2.443762077700125435e+00
2.485950865199743731e+00
2.485950865199743731e+00
2.485950865199743731e+00
2.485950865199743731e+00
2.532827295754875419e+00
2.532827295754875419e+00
2.532827295754875419e+00
2.559640614032411055e+00
2.559640614032411055e+00
2.559640614032411055e+00
2.559640614032411055e+00
2.567328348643452163e+00
2.567328348643452163e+00
2.567328348643452163e+00
2.565078279976805931e+00
2.565078279976805931e+00
2.565078279976805931e+00
2.534139835810419239e+00
2.534139835810419239e+00
2.534139835810419239e+00
2.534139835810419239e+00
2.505263954588457853e+00
2.505263954588457853e+00
2.505263954588457853e+00
2.450324777977843649e+00
2.450324777977843649e+00
2.450324777977843649e+00
2.450324777977843649e+00
2.456512466811120898e+00
2.456512466811120898e+00
2.456512466811120898e+00
2.471512924588763038e+00
2.471512924588763038e+00
2.471512924588763038e+00
2.464387707144383377e+00
2.464387707144383377e+00
2.464387707144383377e+00
2.464387707144383377e+00
2.455012421033357040e+00
2.455012421033357040e+00
2.455012421033357040e+00
2.450699789422284613e+00
2.450699789422284613e+00
2.450699789422284613e+00
2.450699789422284613e+00
2.471325418866542556e+00
2.471325418866542556e+00
2.471325418866542556e+00
2.493263588366343875e+00
2.493263588366343875e+00
2.493263588366343875e+00
2.493263588366343875e+00
2.520639423810540958e+00
2.520639423810540958e+00
2.520639423810540958e+00
2.560203131199072502e+00
2.560203131199072502e+00
2.560203131199072502e+00
2.558703085421308199e+00
2.558703085421308199e+00
2.558703085421308199e+00
2.558703085421308199e+00
2.540890041810357936e+00
2.540890041810357936e+00
2.540890041810357936e+00
2.508639057588427423e+00
2.508639057588427423e+00
2.508639057588427423e+00
2.511826654866176511e+00
2.511826654866176511e+00
2.511826654866176511e+00
2.486888393810846587e+00
2.486888393810846587e+00
2.486888393810846587e+00
2.480138187810907002e+00
2.480138187810907002e+00
2.480138187810907002e+00
2.480138187810907002e+00
2.464575212866603859e+00
2.464575212866603859e+00
2.464575212866603859e+00
2.452762352366710363e+00
2.452762352366710363e+00
2.452762352366710363e+00
2.466637775811029609e+00
2.466637775811029609e+00
2.466637775811029609e+00
2.466637775811029609e+00
2.482200750755333196e+00
2.482200750755333196e+00
2.482200750755333196e+00
2.460262581255531433e+00
2.460262581255531433e+00
2.460262581255531433e+00
2.460262581255531433e+00
2.489138462477492819e+00
2.489138462477492819e+00
2.489138462477492819e+00
2.498513748588519157e+00
2.498513748588519157e+00
2.498513748588519157e+00
2.542765099032563203e+00
2.542765099032563203e+00
2.542765099032563203e+00
2.542765099032563203e+00
2.590016541032135855e+00
2.590016541032135855e+00
2.590016541032135855e+00
2.567328348643452163e+00
2.567328348643452163e+00
2.567328348643452163e+00
2.515576769310586602e+00
2.515576769310586602e+00
2.461012604144413807e+00
2.461012604144413807e+00
2.461012604144413807e+00
2.429324137089144742e+00
2.429324137089144742e+00
2.429324137089144742e+00
2.369884823145237629e+00
2.369884823145237629e+00
2.369884823145237629e+00
2.369884823145237629e+00
2.430449171422468080e+00
2.430449171422468080e+00
2.430449171422468080e+00
2.425386516922513280e+00
2.425386516922513280e+00
2.425386516922513280e+00
2.425386516922513280e+00
2.459137546922208095e+00
2.459137546922208095e+00
2.459137546922208095e+00
2.491951048310800498e+00
2.491951048310800498e+00
2.491951048310800498e+00
2.519514389477218064e+00
2.519514389477218064e+00
2.519514389477218064e+00
2.519514389477218064e+00
2.541452558977019383e+00
2.541452558977019383e+00
2.541452558977019383e+00
2.553265419476912879e+00
2.553265419476912879e+00
2.553265419476912879e+00
2.553265419476912879e+00
2.566015808587908342e+00
2.566015808587908342e+00
2.566015808587908342e+00
2.568265877254555019e+00
2.568265877254555019e+00
2.568265877254555019e+00
2.559453108310190128e+00
2.559453108310190128e+00
2.559453108310190128e+00
2.559453108310190128e+00
2.560203131199072502e+00
2.560203131199072502e+00
2.560203131199072502e+00
2.548765282143620414e+00
2.548765282143620414e+00
2.548765282143620414e+00
2.548765282143620414e+00
2.463637684255501004e+00
2.463637684255501004e+00
2.463637684255501004e+00
2.428949125644703777e+00
2.428949125644703777e+00
2.428949125644703777e+00
2.467762810144352947e+00
2.467762810144352947e+00
2.467762810144352947e+00
2.467762810144352947e+00
2.508451551866206941e+00
2.508451551866206941e+00
2.508451551866206941e+00
2.501326334421826836e+00
2.501326334421826836e+00
2.501326334421826836e+00
2.501326334421826836e+00
2.458012512588885201e+00
2.458012512588885201e+00
2.458012512588885201e+00
2.444137089144566399e+00
2.444137089144566399e+00
2.444137089144566399e+00
2.418448805200354101e+00
2.418448805200354101e+00
2.418448805200354101e+00
2.418448805200354101e+00
2.411511093478194478e+00
2.411511093478194478e+00
2.411511093478194478e+00
2.479575670644245999e+00
2.479575670644245999e+00
2.479575670644245999e+00
2.479575670644245999e+00
2.536764915921506436e+00
2.536764915921506436e+00
2.536764915921506436e+00
2.513139194921720332e+00
2.513139194921720332e+00
2.513139194921720332e+00
2.513139194921720332e+00
2.544827661976988953e+00
2.544827661976988953e+00
2.544827661976988953e+00
2.553265419476912879e+00
2.553265419476912879e+00
2.553265419476912879e+00
2.541640064699239865e+00
2.541640064699239865e+00
2.541640064699239865e+00
2.541640064699239865e+00
2.554390453810235773e+00
2.554390453810235773e+00
2.554390453810235773e+00
2.530014709921567295e+00
2.530014709921567295e+00
2.530014709921567295e+00
2.530014709921567295e+00
2.532639790032654936e+00
2.532639790032654936e+00
2.532639790032654936e+00
2.507326517532883603e+00
2.507326517532883603e+00
2.507326517532883603e+00
2.457074983977782345e+00
2.457074983977782345e+00
2.457074983977782345e+00
2.495701162755211033e+00
2.495701162755211033e+00
2.495701162755211033e+00
2.521576952421643814e+00
2.521576952421643814e+00
2.521576952421643814e+00
2.497388714255195818e+00
2.497388714255195818e+00
2.497388714255195818e+00
2.497388714255195818e+00
2.465512741477706271e+00
2.465512741477706271e+00
2.465512741477706271e+00
2.450699789422284613e+00
2.450699789422284613e+00
2.450699789422284613e+00
2.374384960478530537e+00
2.374384960478530537e+00
2.374384960478530537e+00
2.374384960478530537e+00
2.361822077089755112e+00
2.361822077089755112e+00
2.361822077089755112e+00
2.364634662923062791e+00
2.364634662923062791e+00
2.364634662923062791e+00
2.503576403088473068e+00
2.503576403088473068e+00
2.503576403088473068e+00
2.503576403088473068e+00
2.595829218420972584e+00
2.595829218420972584e+00
2.595829218420972584e+00
2.605767021698660368e+00
2.605767021698660368e+00
2.605767021698660368e+00
2.599766838587603157e+00
2.599766838587603157e+00
2.599766838587603157e+00
2.599766838587603157e+00
2.530014709921567295e+00
2.530014709921567295e+00
2.530014709921567295e+00
2.486700888088625661e+00
2.486700888088625661e+00
2.486700888088625661e+00
2.486700888088625661e+00
2.482763267921994643e+00
2.482763267921994643e+00
2.482763267921994643e+00
2.482763267921994643e+00
2.482763267921994643e+00
2.482763267921994643e+00
2.512014160588396994e+00
2.512014160588396994e+00
2.512014160588396994e+00
2.558515579699087716e+00
2.558515579699087716e+00
2.558515579699087716e+00
2.558515579699087716e+00
2.531889767143772563e+00
2.531889767143772563e+00
2.531889767143772563e+00
2.507701528977324568e+00
2.507701528977324568e+00
2.507701528977324568e+00
2.507701528977324568e+00
2.462137638477736701e+00
2.462137638477736701e+00
2.462137638477736701e+00
2.450887295144505096e+00
2.450887295144505096e+00
2.450887295144505096e+00
2.450887295144505096e+00
2.508826563310647906e+00
2.508826563310647906e+00
2.508826563310647906e+00
2.442449537644581614e+00
2.442449537644581614e+00
2.442449537644581614e+00
2.443574571977904952e+00
2.443574571977904952e+00
2.443574571977904952e+00
2.443574571977904952e+00
2.502076357310709209e+00
2.502076357310709209e+00
2.502076357310709209e+00
2.484638325144199911e+00
2.484638325144199911e+00
2.484638325144199911e+00
2.484638325144199911e+00
2.531327249977111116e+00
2.531327249977111116e+00
2.531327249977111116e+00
2.524764549699392902e+00
2.524764549699392902e+00
2.524764549699392902e+00
2.551765373699148576e+00
2.551765373699148576e+00
2.551765373699148576e+00
2.551765373699148576e+00
2.559453108310190128e+00
2.559453108310190128e+00
2.559453108310190128e+00
2.534889858699301168e+00
2.534889858699301168e+00
2.534889858699301168e+00
2.534889858699301168e+00
2.487450910977508034e+00
2.487450910977508034e+00
2.487450910977508034e+00
2.446762169255653596e+00
2.446762169255653596e+00
2.446762169255653596e+00
2.388260383922848895e+00
2.388260383922848895e+00
2.388260383922848895e+00
2.388260383922848895e+00
2.422386425366985119e+00
2.422386425366985119e+00
2.422386425366985119e+00
2.447512192144535526e+00
2.447512192144535526e+00
2.447512192144535526e+00
2.447512192144535526e+00
2.455949949644459451e+00
2.455949949644459451e+00
2.455949949644459451e+00
2.524389538254951937e+00
2.524389538254951937e+00
2.524389538254951937e+00
2.560203131199072502e+00
2.560203131199072502e+00
2.560203131199072502e+00
2.560203131199072502e+00
2.488013428144169481e+00
2.488013428144169481e+00
2.488013428144169481e+00
2.551390362254707167e+00
2.551390362254707167e+00
2.551390362254707167e+00
2.551390362254707167e+00
2.553640430921353843e+00
2.553640430921353843e+00
2.553640430921353843e+00
2.554952970976897664e+00
2.554952970976897664e+00
2.554952970976897664e+00
2.604266975920896066e+00
2.604266975920896066e+00
2.604266975920896066e+00
2.604266975920896066e+00
2.524014526810510528e+00
2.524014526810510528e+00
2.524014526810510528e+00
2.452762352366710363e+00
2.452762352366710363e+00
2.452762352366710363e+00
2.443199560533463544e+00
2.443199560533463544e+00
2.443199560533463544e+00
2.443199560533463544e+00
2.432886745811334794e+00
2.432886745811334794e+00
2.432886745811334794e+00
2.437011871700186294e+00
2.437011871700186294e+00
2.437011871700186294e+00
2.450137272255623166e+00
2.450137272255623166e+00
2.450137272255623166e+00
2.450137272255623166e+00
2.376260017700735361e+00
2.376260017700735361e+00
2.376260017700735361e+00
2.434574297311319135e+00
2.434574297311319135e+00
2.434574297311319135e+00
2.434574297311319135e+00
2.516514297921689458e+00
2.516514297921689458e+00
2.516514297921689458e+00
2.538639973143711703e+00
2.538639973143711703e+00
2.538639973143711703e+00
2.593391644032105425e+00
2.593391644032105425e+00
2.593391644032105425e+00
2.593391644032105425e+00
2.646830774864955327e+00
2.646830774864955327e+00
2.646830774864955327e+00
2.648893337809381521e+00
2.648893337809381521e+00
2.648893337809381521e+00
2.648893337809381521e+00
2.573891048921170377e+00
2.573891048921170377e+00
2.573891048921170377e+00
2.482013245033112270e+00
2.482013245033112270e+00
2.482013245033112270e+00
2.408698507644886799e+00
2.408698507644886799e+00
2.408698507644886799e+00
2.408698507644886799e+00
2.398385692922757606e+00
2.398385692922757606e+00
2.398385692922757606e+00
2.470762901699881109e+00
2.470762901699881109e+00
2.470762901699881109e+00
2.470762901699881109e+00
2.533014801477095901e+00
2.533014801477095901e+00
2.533014801477095901e+00
2.519139378032776655e+00
2.519139378032776655e+00
2.519139378032776655e+00
2.519139378032776655e+00
2.495888668477431516e+00
2.495888668477431516e+00
2.495888668477431516e+00
2.477325601977599767e+00
2.477325601977599767e+00
2.477325601977599767e+00
2.475825556199835464e+00
2.475825556199835464e+00
2.475825556199835464e+00
2.475825556199835464e+00
2.458012512588885201e+00
2.458012512588885201e+00
2.458012512588885201e+00
2.463075167088839557e+00
2.463075167088839557e+00
2.463075167088839557e+00
2.463075167088839557e+00
2.594891689809869728e+00
2.594891689809869728e+00
2.594891689809869728e+00
2.626767662587359276e+00
2.626767662587359276e+00
2.626767662587359276e+00
2.566953337199011198e+00
2.566953337199011198e+00
2.566953337199011198e+00
2.566953337199011198e+00
2.497013702810754854e+00
2.497013702810754854e+00
2.497013702810754854e+00
2.438511917477950597e+00
2.438511917477950597e+00
2.438511917477950597e+00
2.438511917477950597e+00
2.404010864589373409e+00
2.404010864589373409e+00
2.404010864589373409e+00
2.329008575701162709e+00
2.329008575701162709e+00
2.329008575701162709e+00
2.381885189367351607e+00
2.381885189367351607e+00
2.381885189367351607e+00
2.381885189367351607e+00
2.477513107699820250e+00
2.477513107699820250e+00
2.477513107699820250e+00
2.549515305032502344e+00
2.549515305032502344e+00
2.549515305032502344e+00
2.549515305032502344e+00
2.590391552476577264e+00
2.590391552476577264e+00
2.590391552476577264e+00
2.616079836420789118e+00
2.616079836420789118e+00
2.616079836420789118e+00
2.607454573198645154e+00
2.607454573198645154e+00
2.607454573198645154e+00
2.607454573198645154e+00
2.559078096865749163e+00
2.559078096865749163e+00
2.559078096865749163e+00
2.503013885921811621e+00
2.503013885921811621e+00
2.503013885921811621e+00
2.503013885921811621e+00
2.443199560533463544e+00
2.443199560533463544e+00
2.443199560533463544e+00
2.394260567033906106e+00
2.394260567033906106e+00
2.394260567033906106e+00
2.332196172978911797e+00
2.332196172978911797e+00
2.332196172978911797e+00
2.332196172978911797e+00
2.386947843867305519e+00
2.386947843867305519e+00
2.386947843867305519e+00
2.487075899533067069e+00
2.487075899533067069e+00
2.487075899533067069e+00
2.487075899533067069e+00
2.539952513199255080e+00
2.539952513199255080e+00
2.539952513199255080e+00
2.594141666920987799e+00
2.594141666920987799e+00
2.594141666920987799e+00
2.569765923032319321e+00
2.569765923032319321e+00
2.569765923032319321e+00
2.569765923032319321e+00
2.552327890865810023e+00
2.552327890865810023e+00
2.552327890865810023e+00
2.553077913754691952e+00
2.553077913754691952e+00
2.553077913754691952e+00
2.553077913754691952e+00
2.470950407422101591e+00
2.470950407422101591e+00
2.470950407422101591e+00
2.487450910977508034e+00
2.487450910977508034e+00
2.487450910977508034e+00
2.487450910977508034e+00
2.481825739310891787e+00
2.481825739310891787e+00
2.481825739310891787e+00
2.405510910367137711e+00
2.405510910367137711e+00
2.405510910367137711e+00
2.520451918088320475e+00
2.520451918088320475e+00
2.520451918088320475e+00
2.520451918088320475e+00
2.636330454420606095e+00
2.636330454420606095e+00
2.636330454420606095e+00
2.652830957976012538e+00
2.652830957976012538e+00
2.652830957976012538e+00
2.652830957976012538e+00
2.587203955198828176e+00
2.587203955198828176e+00
2.587203955198828176e+00
2.600891872920926495e+00
2.600891872920926495e+00
2.600891872920926495e+00
2.543140110477004168e+00
2.543140110477004168e+00
2.543140110477004168e+00
2.543140110477004168e+00
2.469637867366557771e+00
2.469637867366557771e+00
2.469637867366557771e+00
2.395573107089449927e+00
2.395573107089449927e+00
2.395573107089449927e+00
2.395573107089449927e+00
2.299570177312540320e+00
2.299570177312540320e+00
2.299570177312540320e+00
2.286632282479323930e+00
2.286632282479323930e+00
2.286632282479323930e+00
2.412261116367076408e+00
2.412261116367076408e+00
2.412261116367076408e+00
2.412261116367076408e+00
2.484450819421979428e+00
2.484450819421979428e+00
2.484450819421979428e+00
2.547265236365856111e+00
2.547265236365856111e+00
2.547265236365856111e+00
2.547265236365856111e+00
2.587203955198828176e+00
2.587203955198828176e+00
2.587203955198828176e+00
2.636330454420606095e+00
2.636330454420606095e+00
2.636330454420606095e+00
2.626205145420697828e+00
2.626205145420697828e+00
2.626205145420697828e+00
2.626205145420697828e+00
2.440386974700155864e+00
2.440386974700155864e+00
2.440386974700155864e+00
2.385635303811762142e+00
2.385635303811762142e+00
2.385635303811762142e+00
2.385635303811762142e+00
2.363884640034180418e+00
2.363884640034180418e+00
2.363884640034180418e+00
2.504138920255134515e+00
2.504138920255134515e+00
2.504138920255134515e+00
2.546327707754753256e+00
2.546327707754753256e+00
2.546327707754753256e+00
2.546327707754753256e+00
2.566015808587908342e+00
2.566015808587908342e+00
2.566015808587908342e+00
2.455574938200018487e+00
2.455574938200018487e+00
2.455574938200018487e+00
2.455574938200018487e+00
2.436261848811303921e+00
2.436261848811303921e+00
2.436261848811303921e+00
2.571078463087863142e+00
2.571078463087863142e+00
2.571078463087863142e+00
2.588516495254371552e+00
2.588516495254371552e+00
2.588516495254371552e+00
2.588516495254371552e+00
2.539765007477034597e+00
2.539765007477034597e+00
2.539765007477034597e+00
2.491013519699698087e+00
2.491013519699698087e+00
2.491013519699698087e+00
2.491013519699698087e+00
2.508639057588427423e+00
2.508639057588427423e+00
2.508639057588427423e+00
2.401385784478286212e+00
2.401385784478286212e+00
2.401385784478286212e+00
2.370634846034120002e+00
2.370634846034120002e+00
2.370634846034120002e+00
2.370634846034120002e+00
2.429886654255806189e+00
2.429886654255806189e+00
2.429886654255806189e+00
2.459512558366649504e+00
2.459512558366649504e+00
2.459512558366649504e+00
2.454824915311136557e+00
2.454824915311136557e+00
2.454824915311136557e+00
2.454824915311136557e+00
2.475638050477614982e+00
2.475638050477614982e+00
2.475638050477614982e+00
2.562453199865718290e+00
2.562453199865718290e+00
2.562453199865718290e+00
2.562453199865718290e+00
2.572578508865627445e+00
2.572578508865627445e+00
2.572578508865627445e+00
2.574453566087832268e+00
2.574453566087832268e+00
2.574453566087832268e+00
2.572391003143406518e+00
2.572391003143406518e+00
2.572391003143406518e+00
2.572391003143406518e+00
2.549515305032502344e+00
2.549515305032502344e+00
2.549515305032502344e+00
2.547827753532517558e+00
2.547827753532517558e+00
2.547827753532517558e+00
2.547827753532517558e+00
2.612142216254158100e+00
2.612142216254158100e+00
2.612142216254158100e+00
2.569015900143436948e+00
2.569015900143436948e+00
2.569015900143436948e+00
2.551765373699148576e+00
2.551765373699148576e+00
2.551765373699148576e+00
2.551765373699148576e+00
2.529077181310464884e+00
2.529077181310464884e+00
2.529077181310464884e+00
2.499451277199621568e+00
2.499451277199621568e+00
2.499451277199621568e+00
2.499451277199621568e+00
2.353946836756492633e+00
2.353946836756492633e+00
2.353946836756492633e+00
2.304820337534714714e+00
2.304820337534714714e+00
2.304820337534714714e+00
2.329571092867824156e+00
2.329571092867824156e+00
2.329571092867824156e+00
2.329571092867824156e+00
2.462512649922177665e+00
2.462512649922177665e+00
2.462512649922177665e+00
2.469075350199895880e+00
2.469075350199895880e+00
2.469075350199895880e+00
2.469075350199895880e+00
2.524389538254951937e+00
2.524389538254951937e+00
2.524389538254951937e+00
2.455199926755577522e+00
2.455199926755577522e+00
2.455199926755577522e+00
2.455199926755577522e+00
2.468887844477675397e+00
2.468887844477675397e+00
2.468887844477675397e+00
2.580078737754448071e+00
2.580078737754448071e+00
2.580078737754448071e+00
2.627330179754020723e+00
2.627330179754020723e+00
2.627330179754020723e+00
2.627330179754020723e+00
2.589454023865474408e+00
2.589454023865474408e+00
2.589454023865474408e+00
2.621517502365184438e+00
2.621517502365184438e+00
2.621517502365184438e+00
2.621517502365184438e+00
2.516514297921689458e+00
2.516514297921689458e+00
2.516514297921689458e+00
2.458200018311105683e+00
2.458200018311105683e+00
2.458200018311105683e+00
2.471137913144322074e+00
2.471137913144322074e+00
2.471137913144322074e+00
2.471137913144322074e+00
2.451449812311166987e+00
2.451449812311166987e+00
2.451449812311166987e+00
2.313445600756859122e+00
2.313445600756859122e+00
2.313445600756859122e+00
2.313445600756859122e+00
2.388822901089510786e+00
2.388822901089510786e+00
2.388822901089510786e+00
2.599204321420941710e+00
2.599204321420941710e+00
2.599204321420941710e+00
2.710582720419934866e+00
2.710582720419934866e+00
2.710582720419934866e+00
2.710582720419934866e+00
2.769272011474959605e+00
2.769272011474959605e+00
2.769272011474959605e+00
2.677394207586901498e+00
2.677394207586901498e+00
2.677394207586901498e+00
2.677394207586901498e+00
2.473575487533188788e+00
2.473575487533188788e+00
2.473575487533188788e+00
2.384322763756218322e+00
2.384322763756218322e+00
2.384322763756218322e+00
2.217067659535508550e+00
2.217067659535508550e+00
2.217067659535508550e+00
2.217067659535508550e+00
2.233568163090914993e+00
2.233568163090914993e+00
2.233568163090914993e+00
2.311383037812433372e+00
2.311383037812433372e+00
2.311383037812433372e+00
2.469450361644337288e+00
2.469450361644337288e+00
2.469450361644337288e+00
2.469450361644337288e+00
2.611204687643055244e+00
2.611204687643055244e+00
2.611204687643055244e+00
2.638393017365031845e+00
2.638393017365031845e+00
2.638393017365031845e+00
2.638393017365031845e+00
2.683581896420178747e+00
2.683581896420178747e+00
2.683581896420178747e+00
2.604454481643116548e+00
2.604454481643116548e+00
2.604454481643116548e+00
2.604454481643116548e+00
2.522701986754967152e+00
2.522701986754967152e+00
2.522701986754967152e+00
2.353946836756492633e+00
2.353946836756492633e+00
2.353946836756492633e+00
2.346446607867672007e+00
2.346446607867672007e+00
2.346446607867672007e+00
2.346446607867672007e+00
2.356946928312021239e+00
2.356946928312021239e+00
2.356946928312021239e+00
2.428574114200262368e+00
2.428574114200262368e+00
2.428574114200262368e+00
2.428574114200262368e+00
2.570703451643421733e+00
2.570703451643421733e+00
2.570703451643421733e+00
2.605954527420880851e+00
2.605954527420880851e+00
2.605954527420880851e+00
2.570328440198980768e+00
2.570328440198980768e+00
2.570328440198980768e+00
2.570328440198980768e+00
2.567890865810114054e+00
2.567890865810114054e+00
2.567890865810114054e+00
2.585703909421063873e+00
2.585703909421063873e+00
2.585703909421063873e+00
2.585703909421063873e+00
2.546890224921415147e+00
2.546890224921415147e+00
2.546890224921415147e+00
2.492138554033020981e+00
2.492138554033020981e+00
2.492138554033020981e+00
2.444512100589007364e+00
2.444512100589007364e+00
2.444512100589007364e+00
2.444512100589007364e+00
2.421261391033662225e+00
2.421261391033662225e+00
2.421261391033662225e+00
2.330508621478927012e+00
2.330508621478927012e+00
2.330508621478927012e+00
2.330508621478927012e+00
2.499263771477401086e+00
2.499263771477401086e+00
2.499263771477401086e+00
2.631080294198431702e+00
2.631080294198431702e+00
2.631080294198431702e+00
2.631080294198431702e+00
2.601454390087587942e+00
2.601454390087587942e+00
2.601454390087587942e+00
2.586828943754386767e+00
2.586828943754386767e+00
2.586828943754386767e+00
2.520076906643879511e+00
2.520076906643879511e+00
2.520076906643879511e+00
2.520076906643879511e+00
2.357696951200903612e+00
2.357696951200903612e+00
2.357696951200903612e+00
2.376635029145176325e+00
2.376635029145176325e+00
2.376635029145176325e+00
2.376635029145176325e+00
2.423886471144749422e+00
2.423886471144749422e+00
2.423886471144749422e+00
2.585703909421063873e+00
2.585703909421063873e+00
2.585703909421063873e+00
2.668581438642536607e+00
2.668581438642536607e+00
2.668581438642536607e+00
2.668581438642536607e+00
2.611579699087496653e+00
2.611579699087496653e+00
2.611579699087496653e+00
2.478075624866481697e+00
2.478075624866481697e+00
2.478075624866481697e+00
2.478075624866481697e+00
2.425386516922513280e+00
2.425386516922513280e+00
2.425386516922513280e+00
2.494763634144108178e+00
2.494763634144108178e+00
2.494763634144108178e+00
2.493638599810785283e+00
2.493638599810785283e+00
2.493638599810785283e+00
2.493638599810785283e+00
2.406073427533799602e+00
2.406073427533799602e+00
2.406073427533799602e+00
2.419761345255897922e+00
2.419761345255897922e+00
2.419761345255897922e+00
2.419761345255897922e+00
2.514076723532822744e+00
2.514076723532822744e+00
2.514076723532822744e+00
2.463075167088839557e+00
2.463075167088839557e+00
2.463075167088839557e+00
2.474513016144291644e+00
2.474513016144291644e+00
2.474513016144291644e+00
2.474513016144291644e+00
2.549515305032502344e+00
2.549515305032502344e+00
2.549515305032502344e+00
2.658831141087069305e+00
2.658831141087069305e+00
2.658831141087069305e+00
2.606329538865321815e+00
2.606329538865321815e+00
2.606329538865321815e+00
2.606329538865321815e+00
2.518951872310556173e+00
2.518951872310556173e+00
2.518951872310556173e+00
2.496826197088534371e+00
2.496826197088534371e+00
2.496826197088534371e+00
2.496826197088534371e+00
2.323758415478988315e+00
2.323758415478988315e+00
2.323758415478988315e+00
2.337258827478866152e+00
2.337258827478866152e+00
2.337258827478866152e+00
2.337258827478866152e+00
2.365572191534165203e+00
2.365572191534165203e+00
2.365572191534165203e+00
2.559265602587969646e+00
2.559265602587969646e+00
2.559265602587969646e+00
2.607454573198645154e+00
2.607454573198645154e+00
2.607454573198645154e+00
2.607454573198645154e+00
2.519514389477218064e+00
2.519514389477218064e+00
2.519514389477218064e+00
2.493451094088564801e+00
2.493451094088564801e+00
2.493451094088564801e+00
2.493451094088564801e+00
2.468325327311013950e+00
2.468325327311013950e+00
2.468325327311013950e+00
2.510889126255073656e+00
2.510889126255073656e+00
2.510889126255073656e+00
2.519889400921659028e+00
2.519889400921659028e+00
2.519889400921659028e+00
2.519889400921659028e+00
2.581953794976653338e+00
2.581953794976653338e+00
2.581953794976653338e+00
2.652455946531571573e+00
2.652455946531571573e+00
2.652455946531571573e+00
2.652455946531571573e+00
2.612329721976378583e+00
2.612329721976378583e+00
2.612329721976378583e+00
2.561515671254616322e+00
2.561515671254616322e+00
2.561515671254616322e+00
2.474513016144291644e+00
2.474513016144291644e+00
2.474513016144291644e+00
2.474513016144291644e+00
2.338946378978850937e+00
2.338946378978850937e+00
2.338946378978850937e+00
2.331071138645588459e+00
2.331071138645588459e+00
2.331071138645588459e+00
2.331071138645588459e+00
2.403635853144932444e+00
2.403635853144932444e+00
2.403635853144932444e+00
2.497576219977416301e+00
2.497576219977416301e+00
2.497576219977416301e+00
2.497576219977416301e+00
2.501701345866268245e+00
2.501701345866268245e+00
2.501701345866268245e+00
2.518951872310556173e+00
2.518951872310556173e+00
2.518951872310556173e+00
2.364447157200842309e+00
2.364447157200842309e+00
2.364447157200842309e+00
2.364447157200842309e+00
2.515951780755027567e+00
2.515951780755027567e+00
2.515951780755027567e+00
2.560953154087954431e+00
2.560953154087954431e+00
2.560953154087954431e+00
2.560953154087954431e+00
2.557015533921323414e+00
2.557015533921323414e+00
2.557015533921323414e+00
2.473950498977630197e+00
2.473950498977630197e+00
2.473950498977630197e+00
2.463450178533280521e+00
2.463450178533280521e+00
2.463450178533280521e+00
2.463450178533280521e+00
2.552140385143589540e+00
2.552140385143589540e+00
2.552140385143589540e+00
2.616267342143010044e+00
2.616267342143010044e+00
2.616267342143010044e+00
2.616267342143010044e+00
2.596579241309854513e+00
2.596579241309854513e+00
2.596579241309854513e+00
2.634455397198400828e+00
2.634455397198400828e+00
2.634455397198400828e+00
2.590579058198797746e+00
2.590579058198797746e+00
2.590579058198797746e+00
2.590579058198797746e+00
2.353196813867610704e+00
2.353196813867610704e+00
2.353196813867610704e+00
2.264881618701742649e+00
2.264881618701742649e+00
2.264881618701742649e+00
2.264881618701742649e+00
2.484075807977538464e+00
2.484075807977538464e+00
2.484075807977538464e+00
2.639705557420575666e+00
2.639705557420575666e+00
2.639705557420575666e+00
2.684144413586840638e+00
2.684144413586840638e+00
2.684144413586840638e+00
2.684144413586840638e+00
2.752584002197332680e+00
2.752584002197332680e+00
2.752584002197332680e+00
2.659768669698171717e+00
2.659768669698171717e+00
2.659768669698171717e+00
2.659768669698171717e+00
2.587391460921048658e+00
2.587391460921048658e+00
2.587391460921048658e+00
2.335008758812219920e+00
2.335008758812219920e+00
2.335008758812219920e+00
2.373447431867427682e+00
2.373447431867427682e+00
2.373447431867427682e+00
2.373447431867427682e+00
2.555515488143559111e+00
2.555515488143559111e+00
2.555515488143559111e+00
2.392385509811700839e+00
2.392385509811700839e+00
2.392385509811700839e+00
2.392385509811700839e+00
2.369509811700796664e+00
2.369509811700796664e+00
2.369509811700796664e+00
2.252693746757408633e+00
2.252693746757408633e+00
2.252693746757408633e+00
2.210692464980010374e+00
2.210692464980010374e+00
2.210692464980010374e+00
2.210692464980010374e+00
2.278569536423841413e+00
2.278569536423841413e+00
2.278569536423841413e+00
2.628080202642903096e+00
2.628080202642903096e+00
2.628080202642903096e+00
2.628080202642903096e+00
2.688082033753471656e+00
2.688082033753471656e+00
2.688082033753471656e+00
2.678894253364665801e+00
2.678894253364665801e+00
2.678894253364665801e+00
2.678894253364665801e+00
2.485763359477523249e+00
2.485763359477523249e+00
2.485763359477523249e+00
2.444512100589007364e+00
2.444512100589007364e+00
2.444512100589007364e+00
2.552327890865810023e+00
2.552327890865810023e+00
2.552327890865810023e+00
2.552327890865810023e+00
2.604266975920896066e+00
2.604266975920896066e+00
2.604266975920896066e+00
2.573891048921170377e+00
2.573891048921170377e+00
2.573891048921170377e+00
2.573891048921170377e+00
2.544265144810327506e+00
2.544265144810327506e+00
2.544265144810327506e+00
2.559078096865749163e+00
2.559078096865749163e+00
2.559078096865749163e+00
2.413011139255958781e+00
2.413011139255958781e+00
2.413011139255958781e+00
2.413011139255958781e+00
2.344009033478804849e+00
2.344009033478804849e+00
2.344009033478804849e+00
2.440761986144596829e+00
2.440761986144596829e+00
2.440761986144596829e+00
2.440761986144596829e+00
2.546515213476973738e+00
2.546515213476973738e+00
2.546515213476973738e+00
2.483888302255317981e+00
2.483888302255317981e+00
2.483888302255317981e+00
2.621329996642963955e+00
2.621329996642963955e+00
2.621329996642963955e+00
2.621329996642963955e+00
2.565828302865687860e+00
2.565828302865687860e+00
2.565828302865687860e+00
2.563578234199041628e+00
2.563578234199041628e+00
2.563578234199041628e+00
2.563578234199041628e+00
2.528889675588243957e+00
2.528889675588243957e+00
2.528889675588243957e+00
2.548390270699179450e+00
2.548390270699179450e+00
2.548390270699179450e+00
2.520076906643879511e+00
2.520076906643879511e+00
2.520076906643879511e+00
2.520076906643879511e+00
2.375697500534073914e+00
2.375697500534073914e+00
2.375697500534073914e+00
2.349071687978759204e+00
2.349071687978759204e+00
2.349071687978759204e+00
2.349071687978759204e+00
2.403260841700491479e+00
2.403260841700491479e+00
2.403260841700491479e+00
2.409448530533769173e+00
2.409448530533769173e+00
2.409448530533769173e+00
2.546140202032532773e+00
2.546140202032532773e+00
2.546140202032532773e+00
2.546140202032532773e+00
2.502263863032929692e+00
2.502263863032929692e+00
2.502263863032929692e+00
2.736646015808588128e+00
2.736646015808588128e+00
2.736646015808588128e+00
2.736646015808588128e+00
2.793647755363628082e+00
2.793647755363628082e+00
2.793647755363628082e+00
2.676456678975799086e+00
2.676456678975799086e+00
2.676456678975799086e+00
2.481075716422009858e+00
2.481075716422009858e+00
2.481075716422009858e+00
2.481075716422009858e+00
2.372509903256325270e+00
2.372509903256325270e+00
2.372509903256325270e+00
2.445449629200109776e+00
2.445449629200109776e+00
2.445449629200109776e+00
2.424636494033631351e+00
2.424636494033631351e+00
2.424636494033631351e+00
2.424636494033631351e+00
2.343634022034363884e+00
2.343634022034363884e+00
2.343634022034363884e+00
2.302007751701407035e+00
2.302007751701407035e+00
2.302007751701407035e+00
2.302007751701407035e+00
2.395010589922788480e+00
2.395010589922788480e+00
2.395010589922788480e+00
2.471137913144322074e+00
2.471137913144322074e+00
2.471137913144322074e+00
2.533202307199316383e+00
2.533202307199316383e+00
2.533202307199316383e+00
2.533202307199316383e+00
2.495138645588549586e+00
2.495138645588549586e+00
2.495138645588549586e+00
2.527389629810480098e+00
2.527389629810480098e+00
2.527389629810480098e+00
2.527389629810480098e+00
2.664268807031464625e+00
2.664268807031464625e+00
2.664268807031464625e+00
2.704395031586657172e+00
2.704395031586657172e+00
2.704395031586657172e+00
2.464762718588824342e+00
2.464762718588824342e+00
2.464762718588824342e+00
2.464762718588824342e+00
2.474513016144291644e+00
2.474513016144291644e+00
2.474513016144291644e+00
2.602954435865352245e+00
2.602954435865352245e+00
2.602954435865352245e+00
2.602954435865352245e+00
2.511264137699515064e+00
2.511264137699515064e+00
2.511264137699515064e+00
2.476013061922055947e+00
2.476013061922055947e+00
2.476013061922055947e+00
2.432324228644673347e+00
2.432324228644673347e+00
2.432324228644673347e+00
2.432324228644673347e+00
2.435324320200201509e+00
2.435324320200201509e+00
2.435324320200201509e+00
2.484075807977538464e+00
2.484075807977538464e+00
2.484075807977538464e+00
2.484075807977538464e+00
2.517076815088350905e+00
2.517076815088350905e+00
2.517076815088350905e+00
2.551202856532486685e+00
2.551202856532486685e+00
2.551202856532486685e+00
2.551202856532486685e+00
2.642143131809442824e+00
2.642143131809442824e+00
2.642143131809442824e+00
2.596766747032074996e+00
2.596766747032074996e+00
2.596766747032074996e+00
2.620954985198522547e+00
2.620954985198522547e+00
2.620954985198522547e+00
2.620954985198522547e+00
2.499451277199621568e+00
2.499451277199621568e+00
2.499451277199621568e+00
2.506951506088442638e+00
2.506951506088442638e+00
2.506951506088442638e+00
2.506951506088442638e+00
2.459700064088869986e+00
2.459700064088869986e+00
2.459700064088869986e+00
2.381322672200689716e+00
2.381322672200689716e+00
2.381322672200689716e+00
2.334633747367778511e+00
2.334633747367778511e+00
2.334633747367778511e+00
2.334633747367778511e+00
2.455387432477798004e+00
2.455387432477798004e+00
2.455387432477798004e+00
2.468887844477675397e+00
2.468887844477675397e+00
2.468887844477675397e+00
2.468887844477675397e+00
2.267131687368389326e+00
2.267131687368389326e+00
2.267131687368389326e+00
2.465887752922147680e+00
2.465887752922147680e+00
2.465887752922147680e+00
2.751458967864009342e+00
2.751458967864009342e+00
2.751458967864009342e+00
2.751458967864009342e+00
2.759146702475051338e+00
2.759146702475051338e+00
2.759146702475051338e+00
2.537514938810388809e+00
2.537514938810388809e+00
2.537514938810388809e+00
2.537514938810388809e+00
2.419948850978118404e+00
2.419948850978118404e+00
2.419948850978118404e+00
2.323195898312326424e+00
2.323195898312326424e+00
2.323195898312326424e+00
2.439636951811273491e+00
2.439636951811273491e+00
2.439636951811273491e+00
2.439636951811273491e+00
2.527014618366038690e+00
2.527014618366038690e+00
2.527014618366038690e+00
2.606517044587542742e+00
2.606517044587542742e+00
2.606517044587542742e+00
2.606517044587542742e+00
2.548952787865840897e+00
2.548952787865840897e+00
2.548952787865840897e+00
2.447137180700094561e+00
2.447137180700094561e+00
2.447137180700094561e+00
2.539014984588152668e+00
2.539014984588152668e+00
2.539014984588152668e+00
2.539014984588152668e+00
2.366509720145268059e+00
2.366509720145268059e+00
2.366509720145268059e+00
2.268256721701712220e+00
2.268256721701712220e+00
2.268256721701712220e+00
2.268256721701712220e+00
2.475263039033173573e+00
2.475263039033173573e+00
2.475263039033173573e+00
2.488013428144169481e+00
2.488013428144169481e+00
2.488013428144169481e+00
2.520826929532761884e+00
2.520826929532761884e+00
2.520826929532761884e+00
2.520826929532761884e+00
2.596579241309854513e+00
2.596579241309854513e+00
2.596579241309854513e+00
2.699144871364482778e+00
2.699144871364482778e+00
2.699144871364482778e+00
2.699144871364482778e+00
2.637830500198370398e+00
2.637830500198370398e+00
2.637830500198370398e+00
2.619454939420759132e+00
2.619454939420759132e+00
2.619454939420759132e+00
2.608767113254188974e+00
2.608767113254188974e+00
2.608767113254188974e+00
2.608767113254188974e+00
2.738708578753013434e+00
2.738708578753013434e+00
2.738708578753013434e+00
2.774522171697133999e+00
2.774522171697133999e+00
2.774522171697133999e+00
2.774522171697133999e+00
2.621705008087404920e+00
2.621705008087404920e+00
2.621705008087404920e+00
2.357509445478682686e+00
2.357509445478682686e+00
2.357509445478682686e+00
2.108314340647602592e+00
2.108314340647602592e+00
2.108314340647602592e+00
2.108314340647602592e+00
2.073063264870143918e+00
2.073063264870143918e+00
2.073063264870143918e+00
2.078688436536759720e+00
2.078688436536759720e+00
2.078688436536759720e+00
2.078688436536759720e+00
2.319820795312356854e+00
2.319820795312356854e+00
2.319820795312356854e+00
2.576891140476698983e+00
2.576891140476698983e+00
2.576891140476698983e+00
2.740396130252998219e+00
2.740396130252998219e+00
2.740396130252998219e+00
2.740396130252998219e+00
2.687894528031251173e+00
2.687894528031251173e+00
2.687894528031251173e+00
2.716020386364329742e+00
2.716020386364329742e+00
2.716020386364329742e+00
2.716020386364329742e+00
2.680206793420209177e+00
2.680206793420209177e+00
2.680206793420209177e+00
2.656581072420422629e+00
2.656581072420422629e+00
2.656581072420422629e+00
2.567515854365672645e+00
2.567515854365672645e+00
2.567515854365672645e+00
2.567515854365672645e+00
2.529827204199346813e+00
2.529827204199346813e+00
2.529827204199346813e+00
2.434949308755760100e+00
2.434949308755760100e+00
2.434949308755760100e+00
2.434949308755760100e+00
2.491951048310800498e+00
2.491951048310800498e+00
2.491951048310800498e+00
2.317008209479048730e+00
2.317008209479048730e+00
2.317008209479048730e+00
2.317008209479048730e+00
2.196067018646809643e+00
2.196067018646809643e+00
2.196067018646809643e+00
2.490638508255257122e+00
2.490638508255257122e+00
2.490638508255257122e+00
2.564328257087923557e+00
2.564328257087923557e+00
2.564328257087923557e+00
2.564328257087923557e+00
2.469262855922116806e+00
2.469262855922116806e+00
2.469262855922116806e+00
2.511264137699515064e+00
2.511264137699515064e+00
2.511264137699515064e+00
2.511264137699515064e+00
2.448074709311197417e+00
2.448074709311197417e+00
2.448074709311197417e+00
2.501888851588488727e+00
2.501888851588488727e+00
2.501888851588488727e+00
2.509389080477309353e+00
2.509389080477309353e+00
2.509389080477309353e+00
2.414323679311502602e+00
2.414323679311502602e+00
2.414323679311502602e+00
2.414323679311502602e+00
2.370634846034120002e+00
2.370634846034120002e+00
2.370634846034120002e+00
2.490638508255257122e+00
2.490638508255257122e+00
2.490638508255257122e+00
2.490638508255257122e+00
2.460075075533310951e+00
2.460075075533310951e+00
2.460075075533310951e+00
2.499451277199621568e+00
2.499451277199621568e+00
2.499451277199621568e+00
2.541827570421460791e+00
2.541827570421460791e+00
2.541827570421460791e+00
2.541827570421460791e+00
2.495513657032990551e+00
2.495513657032990551e+00
2.495513657032990551e+00
2.480888210699789376e+00
2.480888210699789376e+00
2.480888210699789376e+00
2.480888210699789376e+00
2.581953794976653338e+00
2.581953794976653338e+00
2.581953794976653338e+00
2.642518143253883789e+00
2.642518143253883789e+00
2.642518143253883789e+00
2.676831690420240051e+00
2.676831690420240051e+00
2.676831690420240051e+00
2.676831690420240051e+00
2.650768395031586788e+00
2.650768395031586788e+00
2.650768395031586788e+00
2.606329538865321815e+00
2.606329538865321815e+00
2.606329538865321815e+00
2.606329538865321815e+00
2.635580431531724166e+00
2.635580431531724166e+00
2.635580431531724166e+00
2.451074800866725578e+00
2.451074800866725578e+00
2.451074800866725578e+00
2.366509720145268059e+00
2.366509720145268059e+00
2.366509720145268059e+00
2.366509720145268059e+00
2.354321848200934042e+00
2.354321848200934042e+00
2.354321848200934042e+00
2.448074709311197417e+00
2.448074709311197417e+00
2.448074709311197417e+00
2.448074709311197417e+00
2.299382671590319838e+00
2.299382671590319838e+00
2.299382671590319838e+00
2.471137913144322074e+00
2.471137913144322074e+00
2.471137913144322074e+00
2.463450178533280521e+00
2.463450178533280521e+00
2.463450178533280521e+00
2.463450178533280521e+00
2.569015900143436948e+00
2.569015900143436948e+00
2.569015900143436948e+00
2.611579699087496653e+00
2.611579699087496653e+00
2.611579699087496653e+00
2.611579699087496653e+00
2.577266151921139947e+00
2.577266151921139947e+00
2.577266151921139947e+00
2.459137546922208095e+00
2.459137546922208095e+00
2.459137546922208095e+00
2.459137546922208095e+00
2.176566423535874595e+00
2.176566423535874595e+00
2.176566423535874595e+00
2.508451551866206941e+00
2.508451551866206941e+00
2.508451551866206941e+00
2.708145146031067707e+00
2.708145146031067707e+00
2.708145146031067707e+00
2.708145146031067707e+00
2.579516220587786623e+00
2.579516220587786623e+00
2.579516220587786623e+00
2.403635853144932444e+00
2.403635853144932444e+00
2.403635853144932444e+00
2.403635853144932444e+00
2.420886379589221260e+00
2.420886379589221260e+00
2.420886379589221260e+00
2.587203955198828176e+00
2.587203955198828176e+00
2.587203955198828176e+00
2.583828852198858606e+00
2.583828852198858606e+00
2.583828852198858606e+00
2.583828852198858606e+00
2.639893063142796148e+00
2.639893063142796148e+00
2.639893063142796148e+00
2.488575945310831372e+00
2.488575945310831372e+00
2.488575945310831372e+00
2.488575945310831372e+00
2.535264870143742133e+00
2.535264870143742133e+00
2.535264870143742133e+00
2.649268349253822485e+00
2.649268349253822485e+00
2.649268349253822485e+00
2.511826654866176511e+00
2.511826654866176511e+00
2.511826654866176511e+00
2.511826654866176511e+00
2.511639149143956029e+00
2.511639149143956029e+00
2.511639149143956029e+00
2.342508987701040546e+00
2.342508987701040546e+00
2.342508987701040546e+00
2.342508987701040546e+00
2.213880062257759462e+00
2.213880062257759462e+00
2.213880062257759462e+00
2.235630726035340299e+00
2.235630726035340299e+00
2.235630726035340299e+00
2.765896908474990035e+00
2.765896908474990035e+00
2.765896908474990035e+00
2.765896908474990035e+00
2.926589312417981592e+00
2.926589312417981592e+00
2.926589312417981592e+00
2.761209265419477088e+00
2.761209265419477088e+00
2.761209265419477088e+00
2.761209265419477088e+00
2.378322580645161111e+00
2.378322580645161111e+00
2.378322580645161111e+00
2.193254432813501520e+00
2.193254432813501520e+00
2.193254432813501520e+00
2.193254432813501520e+00
2.095001434369945237e+00
2.095001434369945237e+00
2.095001434369945237e+00
2.351696768089846401e+00
2.351696768089846401e+00
2.351696768089846401e+00
2.588891506698812961e+00
2.588891506698812961e+00
2.588891506698812961e+00
2.588891506698812961e+00
2.794397778252510456e+00
2.794397778252510456e+00
2.794397778252510456e+00
2.684706930753502085e+00
2.684706930753502085e+00
2.684706930753502085e+00
2.684706930753502085e+00
2.494576128421887695e+00
2.494576128421887695e+00
2.494576128421887695e+00
2.503576403088473068e+00
2.503576403088473068e+00
2.503576403088473068e+00
2.325258461256752618e+00
2.325258461256752618e+00
2.325258461256752618e+00
2.325258461256752618e+00
2.467200292977691056e+00
2.467200292977691056e+00
2.467200292977691056e+00
2.635580431531724166e+00
2.635580431531724166e+00
2.635580431531724166e+00
2.635580431531724166e+00
2.465887752922147680e+00
2.465887752922147680e+00
2.465887752922147680e+00
2.308570451979125249e+00
2.308570451979125249e+00
2.308570451979125249e+00
2.368947294534135217e+00
2.368947294534135217e+00
2.368947294534135217e+00
2.368947294534135217e+00
2.719770500808740721e+00
2.719770500808740721e+00
2.719770500808740721e+00
2.795710318308054276e+00
2.795710318308054276e+00
2.795710318308054276e+00
2.609329630420849977e+00
2.609329630420849977e+00
2.609329630420849977e+00
2.609329630420849977e+00
2.533952330088198757e+00
2.533952330088198757e+00
2.533952330088198757e+00
2.216505142368846659e+00
2.216505142368846659e+00
2.216505142368846659e+00
2.216505142368846659e+00
2.262631550035096417e+00
2.262631550035096417e+00
2.262631550035096417e+00
2.326571001312295994e+00
2.326571001312295994e+00
2.326571001312295994e+00
2.326571001312295994e+00
2.571828485976745071e+00
2.571828485976745071e+00
2.571828485976745071e+00
2.546890224921415147e+00
2.546890224921415147e+00
2.546890224921415147e+00
2.514451734977264152e+00
2.514451734977264152e+00
2.514451734977264152e+00
2.514451734977264152e+00
2.508076540421765976e+00
2.508076540421765976e+00
2.508076540421765976e+00
2.568640888698995983e+00
2.568640888698995983e+00
2.568640888698995983e+00
2.568640888698995983e+00
2.385260292367321178e+00
2.385260292367321178e+00
2.385260292367321178e+00
2.320570818201239227e+00
2.320570818201239227e+00
2.320570818201239227e+00
2.581391277809991891e+00
2.581391277809991891e+00
2.581391277809991891e+00
2.581391277809991891e+00
2.642143131809442824e+00
2.642143131809442824e+00
2.642143131809442824e+00
2.646830774864955327e+00
2.646830774864955327e+00
2.646830774864955327e+00
2.646830774864955327e+00
2.708520157475509116e+00
2.708520157475509116e+00
2.708520157475509116e+00
2.565078279976805931e+00
2.565078279976805931e+00
2.565078279976805931e+00
2.305007843256935196e+00
2.305007843256935196e+00
2.305007843256935196e+00
2.305007843256935196e+00
2.336883816034425188e+00
2.336883816034425188e+00
2.336883816034425188e+00
2.510139103366191726e+00
2.510139103366191726e+00
2.510139103366191726e+00
2.388260383922848895e+00
2.388260383922848895e+00
2.541265053254798900e+00
2.541265053254798900e+00
2.541265053254798900e+00
2.599766838587603157e+00
2.599766838587603157e+00
2.599766838587603157e+00
2.599766838587603157e+00
2.732145878475295220e+00
2.732145878475295220e+00
2.732145878475295220e+00
2.544827661976988953e+00
2.544827661976988953e+00
2.544827661976988953e+00
2.544827661976988953e+00
2.416011230811487387e+00
2.416011230811487387e+00
2.416011230811487387e+00
2.041374797814874853e+00
2.041374797814874853e+00
2.041374797814874853e+00
2.378510086367381593e+00
2.378510086367381593e+00
2.378510086367381593e+00
2.378510086367381593e+00
2.855337137974180983e+00
2.855337137974180983e+00
2.855337137974180983e+00
2.751458967864009342e+00
2.751458967864009342e+00
2.751458967864009342e+00
2.751458967864009342e+00
2.296195074312570750e+00
2.296195074312570750e+00
2.296195074312570750e+00
2.342696493423261028e+00
2.342696493423261028e+00
2.342696493423261028e+00
2.440011963255714900e+00
2.440011963255714900e+00
2.440011963255714900e+00
2.440011963255714900e+00
2.492701071199682428e+00
2.492701071199682428e+00
2.492701071199682428e+00
2.491013519699698087e+00
2.491013519699698087e+00
2.491013519699698087e+00
2.491013519699698087e+00
2.417511276589251690e+00
2.417511276589251690e+00
2.417511276589251690e+00
2.828711325418866718e+00
2.828711325418866718e+00
2.828711325418866718e+00
2.722958098086489809e+00
2.722958098086489809e+00
2.722958098086489809e+00
2.722958098086489809e+00
2.302195257423627517e+00
2.302195257423627517e+00
2.302195257423627517e+00
2.265256630146183614e+00
2.265256630146183614e+00
2.265256630146183614e+00
2.265256630146183614e+00
2.549515305032502344e+00
2.549515305032502344e+00
2.549515305032502344e+00
2.600141850032044566e+00
2.600141850032044566e+00
2.600141850032044566e+00
2.438886928922391562e+00
2.438886928922391562e+00
2.438886928922391562e+00
2.438886928922391562e+00
2.477513107699820250e+00
2.477513107699820250e+00
2.477513107699820250e+00
2.491201025421918569e+00
2.491201025421918569e+00
2.491201025421918569e+00
2.491201025421918569e+00
2.448262215033417899e+00
2.448262215033417899e+00
2.448262215033417899e+00
2.685831965086825424e+00
2.685831965086825424e+00
2.685831965086825424e+00
2.672894070253609033e+00
2.672894070253609033e+00
2.672894070253609033e+00
2.672894070253609033e+00
2.510889126255073656e+00
2.510889126255073656e+00
2.510889126255073656e+00
2.292444959868159771e+00
2.292444959868159771e+00
2.292444959868159771e+00
2.292444959868159771e+00
2.329758598590044638e+00
2.329758598590044638e+00
2.329758598590044638e+00
2.446762169255653596e+00
2.446762169255653596e+00
2.446762169255653596e+00
2.607267067476424671e+00
2.607267067476424671e+00
2.607267067476424671e+00
2.607267067476424671e+00
2.641393108920560451e+00
2.641393108920560451e+00
2.641393108920560451e+00
2.493638599810785283e+00
2.493638599810785283e+00
2.493638599810785283e+00
2.509951597643971244e+00
2.509951597643971244e+00
2.509951597643971244e+00
2.574266060365611786e+00
2.574266060365611786e+00
2.574266060365611786e+00
2.479763176366466482e+00
2.479763176366466482e+00
2.479763176366466482e+00
2.479763176366466482e+00
2.481450727866450823e+00
2.481450727866450823e+00
2.481450727866450823e+00
2.470387890255439700e+00
2.470387890255439700e+00
2.470387890255439700e+00
2.438886928922391562e+00
2.438886928922391562e+00
2.438886928922391562e+00
2.438886928922391562e+00
2.519139378032776655e+00
2.519139378032776655e+00
2.519139378032776655e+00
2.492326059755241463e+00
2.492326059755241463e+00
2.492326059755241463e+00
2.400448255867183356e+00
2.400448255867183356e+00
2.400448255867183356e+00
2.400448255867183356e+00
2.318695760979033516e+00
2.318695760979033516e+00
2.318695760979033516e+00
2.413761162144840711e+00
2.413761162144840711e+00
2.413761162144840711e+00
2.582141300698873820e+00
2.582141300698873820e+00
2.582141300698873820e+00
2.582141300698873820e+00
2.699332377086703261e+00
2.699332377086703261e+00
2.699332377086703261e+00
2.674581621753593819e+00
2.674581621753593819e+00
2.674581621753593819e+00
2.674581621753593819e+00
2.561328165532395840e+00
2.561328165532395840e+00
2.561328165532395840e+00
2.543702627643666059e+00
2.543702627643666059e+00
2.543702627643666059e+00
2.330321115756706529e+00
2.330321115756706529e+00
2.330321115756706529e+00
2.330321115756706529e+00
2.146190496536149350e+00
2.146190496536149350e+00
2.146190496536149350e+00
2.432324228644673347e+00
2.432324228644673347e+00
2.432324228644673347e+00
2.432324228644673347e+00
2.586828943754386767e+00
2.586828943754386767e+00
2.586828943754386767e+00
2.712082766197699168e+00
2.712082766197699168e+00
2.712082766197699168e+00
2.712082766197699168e+00
2.491388531144139051e+00
2.491388531144139051e+00
2.491388531144139051e+00
2.460262581255531433e+00
2.460262581255531433e+00
2.460262581255531433e+00
2.608954618976409012e+00
2.608954618976409012e+00
2.608954618976409012e+00
2.608954618976409012e+00
2.423323953978087530e+00
2.423323953978087530e+00
2.423323953978087530e+00
2.409448530533769173e+00
2.409448530533769173e+00
2.409448530533769173e+00
2.409448530533769173e+00
2.609517136143070459e+00
2.609517136143070459e+00
2.609517136143070459e+00
2.565453291421246895e+00
2.565453291421246895e+00
2.565453291421246895e+00
2.469637867366557771e+00
2.469637867366557771e+00
2.469637867366557771e+00
2.469637867366557771e+00
2.446012146366771223e+00
2.446012146366771223e+00
2.446012146366771223e+00
2.437949400311288706e+00
2.437949400311288706e+00
2.437949400311288706e+00
2.437949400311288706e+00
2.453324869533372254e+00
2.453324869533372254e+00
2.453324869533372254e+00
2.609329630420849977e+00
2.609329630420849977e+00
2.609329630420849977e+00
2.610642170476393797e+00
2.610642170476393797e+00
2.610642170476393797e+00
2.610642170476393797e+00
2.619642445142979614e+00
2.619642445142979614e+00
2.619642445142979614e+00
2.447137180700094561e+00
2.447137180700094561e+00
2.447137180700094561e+00
2.447137180700094561e+00
2.450512283700064131e+00
2.450512283700064131e+00
2.450512283700064131e+00
2.379447614978484449e+00
2.379447614978484449e+00
2.379447614978484449e+00
2.546890224921415147e+00
2.546890224921415147e+00
2.546890224921415147e+00
2.546890224921415147e+00
2.617017365031891973e+00
2.617017365031891973e+00
2.617017365031891973e+00
2.522701986754967152e+00
2.522701986754967152e+00
2.522701986754967152e+00
2.522701986754967152e+00
2.604266975920896066e+00
2.604266975920896066e+00
2.604266975920896066e+00
2.460075075533310951e+00
2.460075075533310951e+00
2.460075075533310951e+00
2.460075075533310951e+00
2.118252143925290376e+00
2.118252143925290376e+00
2.118252143925290376e+00
2.209004913480026033e+00
2.209004913480026033e+00
2.209004913480026033e+00
2.289444868312631609e+00
2.289444868312631609e+00
2.289444868312631609e+00
2.289444868312631609e+00
2.587766472365489623e+00
2.587766472365489623e+00
2.587766472365489623e+00
2.998966521195104651e+00
2.998966521195104651e+00
2.998966521195104651e+00
2.785397503585924639e+00
2.785397503585924639e+00
2.785397503585924639e+00
2.785397503585924639e+00
2.476575579088717394e+00
2.476575579088717394e+00
2.476575579088717394e+00
2.351884273812066883e+00
2.351884273812066883e+00
2.351884273812066883e+00
2.351884273812066883e+00
2.515014252143925599e+00
2.515014252143925599e+00
2.515014252143925599e+00
2.552702902310250987e+00
2.552702902310250987e+00
2.552702902310250987e+00
2.123127292703024249e+00
2.123127292703024249e+00
2.123127292703024249e+00
2.123127292703024249e+00
2.190629352702413879e+00
2.190629352702413879e+00
2.190629352702413879e+00
2.362947111423078006e+00
2.362947111423078006e+00
2.362947111423078006e+00
2.362947111423078006e+00
2.563203222754600663e+00
2.563203222754600663e+00
2.563203222754600663e+00
2.783522446363719816e+00
2.783522446363719816e+00
2.783522446363719816e+00
2.713770317697683954e+00
2.713770317697683954e+00
2.713770317697683954e+00
2.713770317697683954e+00
2.552327890865810023e+00
2.552327890865810023e+00
2.552327890865810023e+00
2.515951780755027567e+00
2.515951780755027567e+00
2.515951780755027567e+00
2.515951780755027567e+00
2.534889858699301168e+00
2.534889858699301168e+00
2.534889858699301168e+00
2.440011963255714900e+00
2.440011963255714900e+00
2.440011963255714900e+00
2.422948942533646566e+00
2.422948942533646566e+00
2.422948942533646566e+00
2.422948942533646566e+00
2.547077730643635629e+00
2.547077730643635629e+00
2.547077730643635629e+00
2.587578966643269140e+00
2.587578966643269140e+00
2.587578966643269140e+00
2.587578966643269140e+00
2.620392468031861544e+00
2.620392468031861544e+00
2.620392468031861544e+00
2.519514389477218064e+00
2.519514389477218064e+00
2.519514389477218064e+00
2.456324961088900860e+00
2.456324961088900860e+00
2.456324961088900860e+00
2.456324961088900860e+00
2.483888302255317981e+00
2.483888302255317981e+00
2.483888302255317981e+00
2.429324137089144742e+00
2.429324137089144742e+00
2.429324137089144742e+00
2.429324137089144742e+00
2.504138920255134515e+00
2.504138920255134515e+00
2.504138920255134515e+00
2.430261665700247153e+00
2.430261665700247153e+00
2.430261665700247153e+00
2.430261665700247153e+00
2.499638782921842051e+00
2.499638782921842051e+00
2.499638782921842051e+00
2.557203039643543896e+00
2.557203039643543896e+00
2.557203039643543896e+00
2.349446699423200169e+00
2.349446699423200169e+00
2.349446699423200169e+00
2.349446699423200169e+00
2.212380016479995160e+00
2.212380016479995160e+00
2.212380016479995160e+00
2.472637958922086376e+00
2.472637958922086376e+00
2.472637958922086376e+00
2.472637958922086376e+00
2.666331369975890819e+00
2.666331369975890819e+00
2.666331369975890819e+00
2.695957274086733690e+00
2.695957274086733690e+00
2.695957274086733690e+00
2.504326425977354997e+00
2.504326425977354997e+00
2.504326425977354997e+00
2.504326425977354997e+00
2.492888576921902910e+00
2.492888576921902910e+00
2.492888576921902910e+00
2.471325418866542556e+00
2.471325418866542556e+00
2.471325418866542556e+00
2.471325418866542556e+00
2.510139103366191726e+00
2.510139103366191726e+00
2.510139103366191726e+00
2.626955168309579758e+00
2.626955168309579758e+00
2.626955168309579758e+00
2.677019196142460533e+00
2.677019196142460533e+00
2.677019196142460533e+00
2.677019196142460533e+00
2.555327982421338628e+00
2.555327982421338628e+00
2.555327982421338628e+00
2.477513107699820250e+00
2.477513107699820250e+00
2.477513107699820250e+00
2.477513107699820250e+00
2.475450544755394056e+00
2.475450544755394056e+00
2.475450544755394056e+00
2.473012970366527341e+00
2.473012970366527341e+00
2.473012970366527341e+00
2.418823816644795066e+00
2.418823816644795066e+00
2.418823816644795066e+00
2.418823816644795066e+00
2.246131046479689974e+00
2.246131046479689974e+00
2.246131046479689974e+00
2.303320291756950855e+00
2.303320291756950855e+00
2.303320291756950855e+00
2.303320291756950855e+00
2.448824732200079346e+00
2.448824732200079346e+00
2.448824732200079346e+00
2.438886928922391562e+00
2.438886928922391562e+00
2.438886928922391562e+00
2.438886928922391562e+00
2.606517044587542742e+00
2.606517044587542742e+00
2.606517044587542742e+00
2.539389996032593633e+00
2.539389996032593633e+00
2.539389996032593633e+00
2.552515396588030505e+00
2.552515396588030505e+00
2.552515396588030505e+00
2.552515396588030505e+00
2.571640980254524589e+00
2.571640980254524589e+00
2.571640980254524589e+00
2.455574938200018487e+00
2.455574938200018487e+00
2.455574938200018487e+00
2.455574938200018487e+00
2.539389996032593633e+00
2.539389996032593633e+00
2.539389996032593633e+00
2.662206244087038876e+00
2.662206244087038876e+00
2.662206244087038876e+00
2.610829676198614280e+00
2.610829676198614280e+00
2.610829676198614280e+00
2.610829676198614280e+00
2.508639057588427423e+00
2.508639057588427423e+00
2.508639057588427423e+00
2.412823633533738299e+00
2.412823633533738299e+00
2.412823633533738299e+00
2.412823633533738299e+00
2.466075258644368162e+00
2.466075258644368162e+00
2.466075258644368162e+00
2.431574205755790974e+00
2.431574205755790974e+00
2.431574205755790974e+00
2.457449995422223310e+00
2.457449995422223310e+00
2.457449995422223310e+00
2.457449995422223310e+00
2.498701254310739639e+00
2.498701254310739639e+00
2.498701254310739639e+00
2.514076723532822744e+00
2.514076723532822744e+00
2.514076723532822744e+00
2.514076723532822744e+00
2.558890591143528681e+00
2.558890591143528681e+00
2.558890591143528681e+00
2.442824549089022579e+00
2.442824549089022579e+00
2.442824549089022579e+00
2.566765831476790716e+00
2.566765831476790716e+00
2.566765831476790716e+00
2.566765831476790716e+00
2.509389080477309353e+00
2.509389080477309353e+00
2.509389080477309353e+00
2.494201116977446731e+00
2.494201116977446731e+00
2.494201116977446731e+00
2.494201116977446731e+00
2.449012237922299828e+00
2.449012237922299828e+00
2.449012237922299828e+00
2.381697683645130681e+00
2.381697683645130681e+00
2.381697683645130681e+00
2.381697683645130681e+00
2.403448347422711961e+00
2.403448347422711961e+00
2.403448347422711961e+00
2.343821527756584366e+00
2.343821527756584366e+00
2.343821527756584366e+00
2.444137089144566399e+00
2.444137089144566399e+00
2.444137089144566399e+00
2.444137089144566399e+00
2.603704458754234619e+00
2.603704458754234619e+00
2.603704458754234619e+00
2.620392468031861544e+00
2.620392468031861544e+00
2.620392468031861544e+00
2.620392468031861544e+00
2.657706106753745967e+00
2.657706106753745967e+00
2.657706106753745967e+00
2.527202124088259172e+00
2.527202124088259172e+00
2.527202124088259172e+00
2.461200109866634289e+00
2.461200109866634289e+00
2.461200109866634289e+00
2.461200109866634289e+00
2.677394207586901498e+00
2.677394207586901498e+00
2.677394207586901498e+00
2.566953337199011198e+00
2.566953337199011198e+00
2.566953337199011198e+00
2.566953337199011198e+00
2.554577959532456255e+00
2.554577959532456255e+00
2.554577959532456255e+00
2.430824182866909045e+00
2.430824182866909045e+00
2.430824182866909045e+00
2.456887478255561863e+00
2.456887478255561863e+00
2.456887478255561863e+00
2.456887478255561863e+00
2.383947752311777357e+00
2.383947752311777357e+00
2.383947752311777357e+00
2.420136356700338887e+00
2.420136356700338887e+00
2.420136356700338887e+00
2.555702993865779593e+00
2.555702993865779593e+00
2.555702993865779593e+00
2.555702993865779593e+00
2.479575670644245999e+00
2.479575670644245999e+00
2.479575670644245999e+00
2.446762169255653596e+00
2.446762169255653596e+00
2.446762169255653596e+00
2.446762169255653596e+00
2.557578051087984861e+00
2.557578051087984861e+00
2.557578051087984861e+00
2.545390179143650844e+00
2.545390179143650844e+00
2.545390179143650844e+00
2.545390179143650844e+00
2.456137455366679934e+00
2.456137455366679934e+00
2.456137455366679934e+00
2.499451277199621568e+00
2.499451277199621568e+00
2.499451277199621568e+00
2.541452558977019383e+00
2.541452558977019383e+00
2.541452558977019383e+00
2.541452558977019383e+00
2.541452558977019383e+00
2.541452558977019383e+00
2.541452558977019383e+00
2.597329264198736443e+00
2.597329264198736443e+00
2.597329264198736443e+00
2.597329264198736443e+00
2.543140110477004168e+00
2.543140110477004168e+00
2.543140110477004168e+00
2.393510544145024177e+00
2.393510544145024177e+00
2.393510544145024177e+00
2.388635395367290304e+00
2.388635395367290304e+00
2.388635395367290304e+00
2.388635395367290304e+00
2.554577959532456255e+00
2.554577959532456255e+00
2.554577959532456255e+00
2.508826563310647906e+00
2.508826563310647906e+00
2.508826563310647906e+00
2.508826563310647906e+00
2.349071687978759204e+00
2.349071687978759204e+00
2.349071687978759204e+00
2.496638691366313889e+00
2.496638691366313889e+00
2.496638691366313889e+00
2.621892513809625402e+00
2.621892513809625402e+00
2.621892513809625402e+00
2.621892513809625402e+00
2.450699789422284613e+00
2.450699789422284613e+00
2.450699789422284613e+00
2.494388622699667213e+00
2.494388622699667213e+00
2.494388622699667213e+00
2.494388622699667213e+00
2.554202948088015290e+00
2.554202948088015290e+00
2.554202948088015290e+00
2.565828302865687860e+00
2.565828302865687860e+00
2.565828302865687860e+00
2.464762718588824342e+00
2.464762718588824342e+00
2.464762718588824342e+00
2.464762718588824342e+00
2.428761619922483295e+00
2.428761619922483295e+00
2.428761619922483295e+00
2.373259926145207199e+00
2.373259926145207199e+00
2.373259926145207199e+00
2.373259926145207199e+00
2.455949949644459451e+00
2.455949949644459451e+00
2.455949949644459451e+00
2.468137821588793912e+00
2.468137821588793912e+00
2.468137821588793912e+00
2.495888668477431516e+00
2.495888668477431516e+00
2.495888668477431516e+00
2.495888668477431516e+00
2.616454847865230526e+00
2.616454847865230526e+00
2.616454847865230526e+00
2.533577318643757348e+00
2.533577318643757348e+00
2.533577318643757348e+00
2.533577318643757348e+00
2.467012787255470574e+00
2.467012787255470574e+00
2.467012787255470574e+00
2.535264870143742133e+00
2.535264870143742133e+00
2.535264870143742133e+00
2.535264870143742133e+00
2.566015808587908342e+00
2.566015808587908342e+00
2.566015808587908342e+00
2.374197454756310055e+00
2.374197454756310055e+00
2.374197454756310055e+00
2.293945005645924073e+00
2.293945005645924073e+00
2.293945005645924073e+00
2.293945005645924073e+00
2.494201116977446731e+00
2.494201116977446731e+00
2.494201116977446731e+00
2.733270912808618558e+00
2.733270912808618558e+00
2.733270912808618558e+00
2.733270912808618558e+00
2.672519058809167625e+00
2.672519058809167625e+00
2.672519058809167625e+00
2.559078096865749163e+00
2.559078096865749163e+00
2.559078096865749163e+00
2.442637043366802097e+00
2.442637043366802097e+00
2.442637043366802097e+00
2.442637043366802097e+00
2.339133884701071420e+00
2.339133884701071420e+00
2.339133884701071420e+00
2.477888119144261214e+00
2.477888119144261214e+00
2.477888119144261214e+00
2.477888119144261214e+00
2.551765373699148576e+00
2.551765373699148576e+00
2.551765373699148576e+00
2.558515579699087716e+00
2.558515579699087716e+00
2.558515579699087716e+00
2.516139286477248493e+00
2.516139286477248493e+00
2.516139286477248493e+00
2.516139286477248493e+00
2.478075624866481697e+00
2.478075624866481697e+00
2.478075624866481697e+00
2.518201849421674243e+00
2.518201849421674243e+00
2.518201849421674243e+00
2.518201849421674243e+00
2.473012970366527341e+00
2.473012970366527341e+00
2.473012970366527341e+00
2.500576311532944906e+00
2.500576311532944906e+00
2.500576311532944906e+00
2.496451185644092963e+00
2.496451185644092963e+00
2.496451185644092963e+00
2.496451185644092963e+00
2.552702902310250987e+00
2.552702902310250987e+00
2.552702902310250987e+00
2.416386242255928352e+00
2.416386242255928352e+00
2.416386242255928352e+00
2.416386242255928352e+00
2.440386974700155864e+00
2.440386974700155864e+00
2.440386974700155864e+00
2.443574571977904952e+00
2.443574571977904952e+00
2.443574571977904952e+00
2.401385784478286212e+00
2.401385784478286212e+00
2.401385784478286212e+00
2.401385784478286212e+00
2.476575579088717394e+00
2.476575579088717394e+00
2.476575579088717394e+00
2.558890591143528681e+00
2.558890591143528681e+00
2.558890591143528681e+00
2.558890591143528681e+00
2.661831232642597911e+00
2.661831232642597911e+00
2.661831232642597911e+00
2.542202581865901756e+00
2.542202581865901756e+00
2.542202581865901756e+00
2.542202581865901756e+00
2.503388897366253030e+00
2.503388897366253030e+00
2.503388897366253030e+00
2.497201208532975336e+00
2.497201208532975336e+00
2.497201208532975336e+00
2.462325144199957183e+00
2.462325144199957183e+00
2.462325144199957183e+00
2.462325144199957183e+00
2.428199102755821404e+00
2.428199102755821404e+00
2.428199102755821404e+00
2.496826197088534371e+00
2.496826197088534371e+00
2.496826197088534371e+00
2.496826197088534371e+00
2.497201208532975336e+00
2.497201208532975336e+00
2.497201208532975336e+00
2.479575670644245999e+00
2.479575670644245999e+00
2.479575670644245999e+00
2.501888851588488727e+00
2.501888851588488727e+00
2.501888851588488727e+00
2.501888851588488727e+00
2.552702902310250987e+00
2.552702902310250987e+00
2.552702902310250987e+00
2.544265144810327506e+00
2.544265144810327506e+00
2.544265144810327506e+00
2.544265144810327506e+00
2.392573015533921321e+00
2.392573015533921321e+00
2.392573015533921321e+00
2.477700613422040732e+00
2.477700613422040732e+00
2.477700613422040732e+00
2.477700613422040732e+00
2.567703360087893572e+00
2.567703360087893572e+00
2.567703360087893572e+00
2.488575945310831372e+00
2.488575945310831372e+00
2.488575945310831372e+00
2.431386700033570492e+00
2.431386700033570492e+00
2.431386700033570492e+00
2.431386700033570492e+00
2.538827478865932186e+00
2.538827478865932186e+00
2.538827478865932186e+00
2.623580065309610188e+00
2.623580065309610188e+00
2.623580065309610188e+00
2.623580065309610188e+00
2.567140842921231680e+00
2.567140842921231680e+00
2.567140842921231680e+00
2.541077547532578418e+00
2.541077547532578418e+00
2.541077547532578418e+00
2.518014343699453761e+00
2.518014343699453761e+00
2.518014343699453761e+00
2.518014343699453761e+00
2.444887112033448329e+00
2.444887112033448329e+00
2.444887112033448329e+00
2.413761162144840711e+00
2.413761162144840711e+00
2.413761162144840711e+00
2.429136631366924259e+00
2.429136631366924259e+00
2.424823999755851833e+00
2.424823999755851833e+00
2.424823999755851833e+00
2.424823999755851833e+00
2.359009491256446989e+00
2.359009491256446989e+00
2.359009491256446989e+00
2.371947386089663379e+00
2.371947386089663379e+00
2.371947386089663379e+00
2.479200659199805035e+00
2.479200659199805035e+00
2.479200659199805035e+00
2.679831781975768212e+00
2.650768395031586788e+00
2.650768395031586788e+00
2.547452742088076594e+00
2.532077272865993045e+00
2.532077272865993045e+00
2.446012146366771223e+00
2.446012146366771223e+00
2.529077181310464884e+00
2.516139286477248493e+00
2.516139286477248493e+00
2.548765282143620414e+00
2.548765282143620414e+00
2.453512375255592737e+00
2.503201391644032547e+00
2.503201391644032547e+00
2.454824915311136557e+00
2.454824915311136557e+00
2.496451185644092963e+00
2.503576403088473068e+00
2.503576403088473068e+00
2.490263496810816157e+00
2.476013061922055947e+00
2.476013061922055947e+00
2.450512283700064131e+00
2.450512283700064131e+00
2.541265053254798900e+00
2.530952238532670151e+00
2.530952238532670151e+00
2.425199011200292798e+00
2.425199011200292798e+00
2.529264687032685366e+00
2.545577684865871326e+00
2.545577684865871326e+00
2.446762169255653596e+00
2.446762169255653596e+00
2.436636860255744885e+00
2.464200201422162451e+00
2.464200201422162451e+00
2.519889400921659028e+00
2.496263679921872480e+00
2.496263679921872480e+00
2.488013428144169481e+00
2.488013428144169481e+00
2.499451277199621568e+00
2.469637867366557771e+00
2.469637867366557771e+00
2.512951689199499850e+00
2.523639515366069563e+00
2.523639515366069563e+00
2.598266792809838854e+00
2.477888119144261214e+00
2.477888119144261214e+00
2.510889126255073656e+00
2.510889126255073656e+00
2.630517777031769810e+00
2.578578691976683768e+00
2.578578691976683768e+00
2.512576677755058441e+00
2.500576311532944906e+00
2.500576311532944906e+00
2.385447798089541660e+00
2.385447798089541660e+00
2.266569170201727434e+00
2.306320383312479017e+00
2.306320383312479017e+00
2.398760704367198571e+00
2.398760704367198571e+00
2.665393841364787963e+00
2.642705648976104271e+00
2.642705648976104271e+00
2.625830133976256420e+00
2.625830133976256420e+00
2.599579332865382675e+00
2.518389355143894726e+00
2.518389355143894726e+00
2.491763542588580016e+00
2.507326517532883603e+00
2.507326517532883603e+00
2.517639332255012796e+00
2.517639332255012796e+00
2.508451551866206941e+00
2.434574297311319135e+00
2.434574297311319135e+00
2.327508529923398850e+00
2.327508529923398850e+00
2.265256630146183614e+00
2.353759331034272151e+00
2.353759331034272151e+00
2.590954069643238711e+00
2.590954069643238711e+00
2.601454390087587942e+00
2.634642902920621310e+00
2.634642902920621310e+00
2.655268532364879697e+00
2.589454023865474408e+00
2.589454023865474408e+00
2.497763725699636783e+00
2.497763725699636783e+00
2.454824915311136557e+00
2.448637226477858864e+00
2.448637226477858864e+00
2.487075899533067069e+00
2.487075899533067069e+00
2.407760979033784388e+00
2.394635578478347071e+00
2.394635578478347071e+00
2.489700979644154266e+00
2.489700979644154266e+00
2.521951963866084778e+00
2.527952146977141545e+00
2.527952146977141545e+00
2.545202673421430362e+00
2.543140110477004168e+00
2.543140110477004168e+00
2.576141117587817053e+00
2.576141117587817053e+00
2.536389904477065471e+00
2.455762443922238969e+00
2.455762443922238969e+00
2.437574388866847741e+00
2.437574388866847741e+00
2.435136814477980582e+00
2.501888851588488727e+00
2.501888851588488727e+00
2.519514389477218064e+00
2.519514389477218064e+00
2.589829035309915373e+00
2.497576219977416301e+00
2.497576219977416301e+00
2.371009857478560967e+00
2.368572283089693808e+00
2.368572283089693808e+00
2.353946836756492633e+00
2.353946836756492633e+00
2.388635395367290304e+00
2.602391918698690798e+00
2.602391918698690798e+00
2.669893978698080428e+00
2.691082125308999817e+00
2.691082125308999817e+00
2.627705191198462131e+00
2.627705191198462131e+00
2.545765190588091809e+00
2.449012237922299828e+00
2.449012237922299828e+00
2.400073244422742391e+00
2.400073244422742391e+00
2.455012421033357040e+00
2.408323496200445835e+00
2.408323496200445835e+00
2.439824457533493973e+00
2.439824457533493973e+00
2.411886104922635443e+00
2.464762718588824342e+00
2.464762718588824342e+00
2.577266151921139947e+00
2.571078463087863142e+00
2.571078463087863142e+00
2.550452833643604755e+00
2.550452833643604755e+00
2.573703543198950339e+00
2.577828669087801838e+00
2.577828669087801838e+00
2.543890133365886541e+00
2.543890133365886541e+00
2.500576311532944906e+00
2.461575121311075254e+00
2.461575121311075254e+00
2.454824915311136557e+00
2.454824915311136557e+00
2.449012237922299828e+00
2.458012512588885201e+00
2.458012512588885201e+00
2.422386425366985119e+00
2.422386425366985119e+00
2.412636127811517817e+00
2.412823633533738299e+00
2.412823633533738299e+00
2.498701254310739639e+00
2.556828028199102931e+00
2.556828028199102931e+00
2.602579424420911280e+00
2.602579424420911280e+00
2.600704367198706013e+00
2.594704184087649246e+00
2.594704184087649246e+00
2.579516220587786623e+00
2.579516220587786623e+00
2.476013061922055947e+00
2.474138004699850679e+00
2.474138004699850679e+00
2.452949858088931290e+00
2.452949858088931290e+00
2.410761070589312105e+00
2.379635120700704931e+00
2.379635120700704931e+00
2.474888027588732609e+00
2.496451185644092963e+00
2.496451185644092963e+00
2.479950682088686964e+00
2.479950682088686964e+00
2.492138554033020981e+00
2.489513473921933784e+00
2.489513473921933784e+00
2.520826929532761884e+00
2.520826929532761884e+00
2.552702902310250987e+00
2.527014618366038690e+00
2.527014618366038690e+00
2.541452558977019383e+00
2.541452558977019383e+00
2.482013245033112270e+00
2.460075075533310951e+00
2.460075075533310951e+00
2.477888119144261214e+00
2.489700979644154266e+00
2.489700979644154266e+00
2.481263222144230340e+00
2.481263222144230340e+00
2.437011871700186294e+00
2.400448255867183356e+00
2.400448255867183356e+00
2.429324137089144742e+00
2.429324137089144742e+00
2.552890408032471470e+00
2.571265968810083624e+00
2.571265968810083624e+00
2.595641712698752102e+00
2.595641712698752102e+00
2.598266792809838854e+00
2.554015442365794808e+00
2.554015442365794808e+00
2.491951048310800498e+00
2.491951048310800498e+00
2.467575304422132465e+00
2.487638416699728516e+00
2.487638416699728516e+00
2.489888485366374749e+00
2.431386700033570492e+00
2.431386700033570492e+00
2.432511734366893830e+00
2.432511734366893830e+00
2.457074983977782345e+00
2.463825189977721486e+00
2.463825189977721486e+00
2.529452192754905848e+00
2.529452192754905848e+00
2.548202764976958523e+00
2.523264503921628599e+00
2.523264503921628599e+00
2.499076265755180604e+00
2.499076265755180604e+00
2.489888485366374749e+00
2.547640247810297076e+00
2.547640247810297076e+00
2.550827845088045720e+00
2.550827845088045720e+00
2.527014618366038690e+00
2.522889492477187634e+00
2.522889492477187634e+00
2.505263954588457853e+00
2.395948118533890892e+00
2.395948118533890892e+00
2.362197088534196077e+00
2.362197088534196077e+00
2.394260567033906106e+00
2.434011780144657688e+00
2.434011780144657688e+00
2.553452925199133361e+00
2.571265968810083624e+00
2.571265968810083624e+00
2.584016357921079532e+00
2.584016357921079532e+00
2.574641071810052750e+00
2.536764915921506436e+00
2.536764915921506436e+00
2.496263679921872480e+00
2.496263679921872480e+00
2.482575762199774161e+00
2.449199743644520311e+00
2.449199743644520311e+00
2.450324777977843649e+00
2.450324777977843649e+00
2.528702169866023475e+00
2.484825830866420393e+00
2.484825830866420393e+00
2.446762169255653596e+00
2.446762169255653596e+00
2.449762260811182202e+00
2.500763817255165389e+00
2.500763817255165389e+00
2.543140110477004168e+00
2.488763451033051854e+00
2.488763451033051854e+00
2.509201574755088870e+00
2.509201574755088870e+00
2.538077455977050256e+00
2.512951689199499850e+00
2.512951689199499850e+00
2.485388348033082284e+00
2.485388348033082284e+00
2.517639332255012796e+00
2.508639057588427423e+00
2.508639057588427423e+00
2.483325785088656090e+00
2.483325785088656090e+00
2.446387157811212187e+00
2.464575212866603859e+00
2.464575212866603859e+00
2.413198644978179264e+00
2.429324137089144742e+00
2.429324137089144742e+00
2.486700888088625661e+00
2.486700888088625661e+00
2.534514847254860204e+00
2.546890224921415147e+00
2.546890224921415147e+00
2.586078920865504838e+00
2.586078920865504838e+00
2.554952970976897664e+00
2.504138920255134515e+00
2.504138920255134515e+00
2.508076540421765976e+00
2.508076540421765976e+00
2.499638782921842051e+00
2.451449812311166987e+00
2.451449812311166987e+00
2.450887295144505096e+00
2.437761894589068223e+00
2.437761894589068223e+00
2.471700430310983521e+00
2.471700430310983521e+00
2.462325144199957183e+00
2.503576403088473068e+00
2.503576403088473068e+00
2.556640522476882449e+00
2.556640522476882449e+00
2.570140934476760286e+00
2.560390636921292984e+00
2.560390636921292984e+00
2.584578875087740979e+00
2.584578875087740979e+00
2.534702352977080686e+00
2.449199743644520311e+00
2.449199743644520311e+00
2.411136082033753514e+00
2.411136082033753514e+00
2.367259743034150432e+00
2.488388439588610446e+00
2.488388439588610446e+00
2.481825739310891787e+00
2.467200292977691056e+00
2.467200292977691056e+00
2.426136539811395654e+00
2.426136539811395654e+00
2.427074068422498510e+00
2.504326425977354997e+00
2.504326425977354997e+00
2.595829218420972584e+00
2.595829218420972584e+00
2.588141483809930588e+00
2.602579424420911280e+00
2.602579424420911280e+00
2.571828485976745071e+00
2.571828485976745071e+00
2.455574938200018487e+00
2.450324777977843649e+00
2.450324777977843649e+00
2.474513016144291644e+00
2.474513016144291644e+00
2.466825281533250092e+00
2.493826105533005766e+00
2.493826105533005766e+00
2.541452558977019383e+00
2.541452558977019383e+00
2.500951322977385871e+00
2.473762993255409270e+00
2.473762993255409270e+00
2.448637226477858864e+00
2.493638599810785283e+00
2.493638599810785283e+00
2.557953062532425825e+00
2.557953062532425825e+00
2.563953245643482592e+00
2.527577135532700581e+00
2.527577135532700581e+00
2.506388988921781191e+00
2.506388988921781191e+00
2.491201025421918569e+00
2.494763634144108178e+00
2.494763634144108178e+00
2.503763908810693550e+00
2.503763908810693550e+00
2.479013153477584552e+00
2.441699514755699685e+00
2.441699514755699685e+00
2.467575304422132465e+00
2.464387707144383377e+00
2.464387707144383377e+00
2.426136539811395654e+00
2.434949308755760100e+00
2.434949308755760100e+00
2.474325510422071162e+00
2.474325510422071162e+00
2.556453016754661967e+00
2.542390087588122238e+00
2.542390087588122238e+00
2.569203405865657430e+00
2.569203405865657430e+00
2.562828211310159254e+00
2.534327341532639721e+00
2.534327341532639721e+00
2.491201025421918569e+00
2.487075899533067069e+00
2.487075899533067069e+00
2.482763267921994643e+00
2.482763267921994643e+00
2.482013245033112270e+00
2.455199926755577522e+00
2.455199926755577522e+00
2.464762718588824342e+00
2.464762718588824342e+00
2.466637775811029609e+00
2.506013977477339782e+00
2.506013977477339782e+00
2.536764915921506436e+00
2.536764915921506436e+00
2.479200659199805035e+00
2.488013428144169481e+00
2.488013428144169481e+00
2.530952238532670151e+00
2.530952238532670151e+00
2.542390087588122238e+00
2.533952330088198757e+00
2.533952330088198757e+00
2.493076082644123392e+00
2.493076082644123392e+00
2.408323496200445835e+00
2.395010589922788480e+00
2.395010589922788480e+00
2.428199102755821404e+00
2.486138370921964214e+00
2.486138370921964214e+00
2.507326517532883603e+00
2.507326517532883603e+00
2.504888943144016888e+00
2.531889767143772563e+00
2.531889767143772563e+00
2.555327982421338628e+00
2.555327982421338628e+00
2.556828028199102931e+00
2.570703451643421733e+00
2.570703451643421733e+00
2.545015167699209435e+00
2.490638508255257122e+00
2.490638508255257122e+00
2.506388988921781191e+00
2.506388988921781191e+00
2.495888668477431516e+00
2.446762169255653596e+00
2.446762169255653596e+00
2.413198644978179264e+00
2.413198644978179264e+00
2.420886379589221260e+00
2.461200109866634289e+00
2.461200109866634289e+00
2.462137638477736701e+00
2.462137638477736701e+00
2.464762718588824342e+00
2.518389355143894726e+00
2.518389355143894726e+00
2.587203955198828176e+00
2.587203955198828176e+00
2.562640705587938772e+00
2.586453932309945802e+00
2.586453932309945802e+00
2.570890957365642215e+00
2.556828028199102931e+00
2.556828028199102931e+00
2.491013519699698087e+00
2.491013519699698087e+00
2.410573564867091623e+00
2.411323587755973996e+00
2.411323587755973996e+00
2.411323587755973996e+00
2.411323587755973996e+00
2.435136814477980582e+00
2.461387615588854771e+00
2.461387615588854771e+00
2.439636951811273491e+00
2.439636951811273491e+00
2.495701162755211033e+00
2.543890133365886541e+00
2.543890133365886541e+00
2.543515121921445576e+00
2.553452925199133361e+00
2.553452925199133361e+00
2.563015717032380181e+00
2.563015717032380181e+00
2.541452558977019383e+00
2.493451094088564801e+00
2.493451094088564801e+00
2.467575304422132465e+00
2.467575304422132465e+00
2.459700064088869986e+00
2.479950682088686964e+00
2.479950682088686964e+00
2.491763542588580016e+00
2.491763542588580016e+00
2.503201391644032547e+00
2.508451551866206941e+00
2.508451551866206941e+00
2.510326609088412209e+00
2.510326609088412209e+00
2.533014801477095901e+00
2.540890041810357936e+00
2.540890041810357936e+00
2.510889126255073656e+00
2.504888943144016888e+00
2.504888943144016888e+00
2.459512558366649504e+00
2.459512558366649504e+00
2.400073244422742391e+00
2.449012237922299828e+00
2.449012237922299828e+00
2.515389263588366120e+00
2.515389263588366120e+00
2.491201025421918569e+00
2.467762810144352947e+00
2.467762810144352947e+00
2.463637684255501004e+00
2.463637684255501004e+00
2.487638416699728516e+00
2.494576128421887695e+00
2.494576128421887695e+00
2.482950773644215126e+00
2.506201483199560265e+00
2.506201483199560265e+00
2.523827021088290046e+00
2.523827021088290046e+00
2.519889400921659028e+00
2.526264595477157204e+00
2.526264595477157204e+00
2.527202124088259172e+00
2.513889217810602261e+00
2.513889217810602261e+00
2.486138370921964214e+00
2.486138370921964214e+00
2.460825098422192880e+00
2.499826288644062977e+00
2.499826288644062977e+00
2.482575762199774161e+00
2.482575762199774161e+00
2.454449903866695148e+00
2.454824915311136557e+00
2.454824915311136557e+00
2.453887386700033701e+00
2.453887386700033701e+00
2.472825464644306859e+00
2.500201300088503942e+00
2.500201300088503942e+00
2.514451734977264152e+00
2.514451734977264152e+00
2.545577684865871326e+00
2.586266426587725320e+00
2.586266426587725320e+00
2.561515671254616322e+00
2.526264595477157204e+00
2.526264595477157204e+00
2.498138737144077748e+00
2.498138737144077748e+00
2.468137821588793912e+00
2.443949583422345917e+00
2.443949583422345917e+00
2.419573839533677440e+00
2.419573839533677440e+00
2.441136997589037794e+00
2.468512833033234433e+00
2.468512833033234433e+00
2.469450361644337288e+00
2.469450361644337288e+00
2.518951872310556173e+00
2.541265053254798900e+00
2.541265053254798900e+00
2.560015625476852019e+00
2.563953245643482592e+00
2.563953245643482592e+00
2.553640430921353843e+00
2.553640430921353843e+00
2.520826929532761884e+00
2.477325601977599767e+00
2.477325601977599767e+00
2.492326059755241463e+00
2.492326059755241463e+00
2.483700796533097499e+00
2.444887112033448329e+00
2.444887112033448329e+00
2.443574571977904952e+00
2.443574571977904952e+00
2.467387798699911539e+00
2.502076357310709209e+00
2.502076357310709209e+00
2.467762810144352947e+00
2.467762810144352947e+00
2.519514389477218064e+00
2.539202490310373150e+00
2.539202490310373150e+00
2.476763084810937876e+00
2.464012695699941968e+00
2.464012695699941968e+00
2.511639149143956029e+00
2.511639149143956029e+00
2.534139835810419239e+00
2.535264870143742133e+00
2.535264870143742133e+00
2.530014709921567295e+00
2.530014709921567295e+00
2.501513840144047762e+00
2.478638142033143144e+00
2.478638142033143144e+00
2.460075075533310951e+00
2.460075075533310951e+00
2.431199194311350009e+00
2.412823633533738299e+00
2.412823633533738299e+00
2.424823999755851833e+00
2.424823999755851833e+00
2.494013611255226248e+00
2.542390087588122238e+00
2.542390087588122238e+00
2.568265877254555019e+00
2.584766380809961461e+00
2.584766380809961461e+00
2.567890865810114054e+00
2.567890865810114054e+00
2.525327066866054349e+00
2.494951139866329104e+00
2.494951139866329104e+00
2.489513473921933784e+00
2.489513473921933784e+00
2.488575945310831372e+00
2.472450453199865894e+00
2.472450453199865894e+00
2.445637134922330258e+00
2.445637134922330258e+00
2.438136906033509188e+00
2.428574114200262368e+00
2.428574114200262368e+00
2.449574755088961275e+00
2.449574755088961275e+00
2.517264320810571387e+00
2.538827478865932186e+00
2.538827478865932186e+00
2.545015167699209435e+00
2.514264229255043226e+00
2.514264229255043226e+00
2.468887844477675397e+00
2.468887844477675397e+00
2.479575670644245999e+00
2.504326425977354997e+00
2.504326425977354997e+00
2.504326425977354997e+00
2.504326425977354997e+00
2.495513657032990551e+00
2.480325693533127485e+00
2.480325693533127485e+00
2.470950407422101591e+00
2.470950407422101591e+00
2.473575487533188788e+00
2.452012329477828434e+00
2.452012329477828434e+00
2.453137363811151772e+00
2.493638599810785283e+00
2.493638599810785283e+00
2.524952055421613384e+00
2.524952055421613384e+00
2.547077730643635629e+00
2.556078005310220558e+00
2.556078005310220558e+00
2.548952787865840897e+00
2.548952787865840897e+00
2.525139561143833866e+00
2.498326242866298674e+00
2.498326242866298674e+00
2.484825830866420393e+00
2.484825830866420393e+00
2.490075991088595231e+00
2.482013245033112270e+00
2.482013245033112270e+00
2.462137638477736701e+00
2.448449720755638381e+00
2.448449720755638381e+00
2.441887020477920167e+00
2.441887020477920167e+00
2.475075533310953091e+00
2.486700888088625661e+00
2.486700888088625661e+00
2.497013702810754854e+00
2.497013702810754854e+00
2.540327524643696488e+00
2.549327799310281861e+00
2.549327799310281861e+00
2.518014343699453761e+00
2.518014343699453761e+00
2.514264229255043226e+00
2.506576494644001674e+00
2.506576494644001674e+00
2.505263954588457853e+00
2.505263954588457853e+00
2.474325510422071162e+00
2.467762810144352947e+00
2.467762810144352947e+00
2.452949858088931290e+00
2.421636402478102745e+00
2.421636402478102745e+00
2.446574663533433114e+00
2.446574663533433114e+00
2.524577043977172419e+00
2.545952696310312291e+00
2.545952696310312291e+00
2.547077730643635629e+00
2.554952970976897664e+00
2.554952970976897664e+00
2.533577318643757348e+00
2.533577318643757348e+00
2.504513931699575480e+00
2.488013428144169481e+00
2.488013428144169481e+00
2.486888393810846587e+00
2.486888393810846587e+00
2.491201025421918569e+00
2.490075991088595231e+00
2.490075991088595231e+00
2.474888027588732609e+00
2.468137821588793912e+00
2.468137821588793912e+00
2.456699972533341381e+00
2.456699972533341381e+00
2.476013061922055947e+00
2.527389629810480098e+00
2.527389629810480098e+00
2.538264961699270739e+00
2.538264961699270739e+00
2.556640522476882449e+00
2.551015350810266202e+00
2.551015350810266202e+00
2.510889126255073656e+00
2.510889126255073656e+00
2.473950498977630197e+00
2.455574938200018487e+00
2.455574938200018487e+00
2.457825006866664719e+00
2.434011780144657688e+00
2.434011780144657688e+00
2.444699606311227846e+00
2.444699606311227846e+00
2.468512833033234433e+00
2.493451094088564801e+00
2.493451094088564801e+00
2.488763451033051854e+00
2.488763451033051854e+00
2.514264229255043226e+00
2.540890041810357936e+00
2.540890041810357936e+00
2.536014893032624506e+00
2.536014893032624506e+00
2.550827845088045720e+00
2.546327707754753256e+00
2.546327707754753256e+00
2.477138096255378841e+00
2.449199743644520311e+00
2.449199743644520311e+00
2.469075350199895880e+00
2.469075350199895880e+00
2.484263313699758946e+00
2.480700704977568893e+00
2.480700704977568893e+00
2.480700704977568893e+00
2.480700704977568893e+00
2.489138462477492819e+00
2.475075533310953091e+00
2.475075533310953091e+00
2.462325144199957183e+00
2.462325144199957183e+00
2.514639240699484635e+00
2.540327524643696488e+00
2.540327524643696488e+00
2.548765282143620414e+00
2.548765282143620414e+00
2.578391186254463285e+00
2.547077730643635629e+00
2.547077730643635629e+00
2.462700155644398592e+00
2.427261574144718992e+00
2.427261574144718992e+00
2.454824915311136557e+00
2.454824915311136557e+00
2.485388348033082284e+00
2.487450910977508034e+00
2.487450910977508034e+00
2.504701437421796406e+00
2.504701437421796406e+00
2.492701071199682428e+00
2.453324869533372254e+00
2.453324869533372254e+00
2.461200109866634289e+00
2.524389538254951937e+00
2.523639515366069563e+00
2.523639515366069563e+00
2.522326975310525743e+00
2.522326975310525743e+00
2.540890041810357936e+00
2.515576769310586602e+00
2.515576769310586602e+00
2.486513382366405178e+00
2.447324686422315043e+00
2.447324686422315043e+00
2.457637501144443792e+00
2.457637501144443792e+00
2.469637867366557771e+00
2.470200384533219218e+00
2.470200384533219218e+00
2.488200933866389963e+00
2.488200933866389963e+00
2.503576403088473068e+00
2.479950682088686964e+00
2.479950682088686964e+00
2.512389172032837958e+00
2.546702719199194664e+00
2.546702719199194664e+00
2.544640156254768470e+00
2.544640156254768470e+00
2.545390179143650844e+00
2.549890316476943308e+00
2.549890316476943308e+00
2.513326700643940814e+00
2.513326700643940814e+00
2.494576128421887695e+00
2.461012604144413807e+00
2.461012604144413807e+00
2.401385784478286212e+00
2.401385784478286212e+00
2.422011413922543710e+00
2.459137546922208095e+00
2.459137546922208095e+00
2.472075441755424485e+00
2.475638050477614982e+00
2.475638050477614982e+00
2.492888576921902910e+00
2.492888576921902910e+00
2.501138828699606353e+00
2.521389446699423331e+00
2.521389446699423331e+00
2.517451826532791870e+00
2.517451826532791870e+00
2.549140293588061379e+00
2.545577684865871326e+00
2.545577684865871326e+00
2.525327066866054349e+00
2.525327066866054349e+00
2.506576494644001674e+00
2.495701162755211033e+00
2.492138554033020981e+00
2.492138554033020981e+00
2.484450819421979428e+00
2.484450819421979428e+00
2.465137730033265306e+00
2.465512741477706271e+00
2.465512741477706271e+00
2.459325052644428578e+00
2.487825922421948999e+00
2.487825922421948999e+00
2.512951689199499850e+00
2.512951689199499850e+00
2.525514572588274831e+00
2.535264870143742133e+00
2.535264870143742133e+00
2.548390270699179450e+00
2.548390270699179450e+00
2.523639515366069563e+00
2.471887936033204003e+00
2.471887936033204003e+00
2.463825189977721486e+00
2.463825189977721486e+00
2.469637867366557771e+00
2.483888302255317981e+00
2.483888302255317981e+00
2.481263222144230340e+00
2.478825647755364070e+00
2.478825647755364070e+00
2.476388073366496911e+00
2.476388073366496911e+00
2.460825098422192880e+00
2.486513382366405178e+00
2.486513382366405178e+00
2.524389538254951937e+00
2.524389538254951937e+00
2.522889492477187634e+00
2.529264687032685366e+00
2.529264687032685366e+00
2.547640247810297076e+00
2.547640247810297076e+00
2.530764732810449669e+00
2.513139194921720332e+00
2.513139194921720332e+00
2.475450544755394056e+00
2.447512192144535526e+00
2.447512192144535526e+00
2.436261848811303921e+00
2.436261848811303921e+00
2.422948942533646566e+00
2.459700064088869986e+00
2.459700064088869986e+00
2.475825556199835464e+00
2.475825556199835464e+00
2.456699972533341381e+00
2.482575762199774161e+00
2.482575762199774161e+00
2.520451918088320475e+00
2.541640064699239865e+00
2.541640064699239865e+00
2.579891232032227588e+00
2.579891232032227588e+00
2.577641163365581356e+00
2.531889767143772563e+00
2.531889767143772563e+00
2.499451277199621568e+00
2.499451277199621568e+00
2.484450819421979428e+00
2.487638416699728516e+00
2.487638416699728516e+00
2.494013611255226248e+00
2.494013611255226248e+00
2.484825830866420393e+00
2.479200659199805035e+00
2.479200659199805035e+00
2.454824915311136557e+00
2.459325052644428578e+00
2.459325052644428578e+00
2.503201391644032547e+00
2.503201391644032547e+00
2.530764732810449669e+00
2.515014252143925599e+00
2.515014252143925599e+00
2.522514481032746669e+00
2.479763176366466482e+00
2.479763176366466482e+00
2.456512466811120898e+00
2.456512466811120898e+00
2.477700613422040732e+00
2.482763267921994643e+00
2.482763267921994643e+00
2.489513473921933784e+00
2.489513473921933784e+00
2.499076265755180604e+00
2.494576128421887695e+00
2.494576128421887695e+00
2.486700888088625661e+00
2.468137821588793912e+00
2.468137821588793912e+00
2.492701071199682428e+00
2.492701071199682428e+00
2.535077364421521651e+00
2.543702627643666059e+00
2.543702627643666059e+00
2.545015167699209435e+00
2.545015167699209435e+00
2.553640430921353843e+00
2.513139194921720332e+00
2.513139194921720332e+00
2.461387615588854771e+00
2.461387615588854771e+00
2.478075624866481697e+00
2.462137638477736701e+00
2.462137638477736701e+00
2.471700430310983521e+00
2.471700430310983521e+00
2.465887752922147680e+00
2.466637775811029609e+00
2.466637775811029609e+00
2.463075167088839557e+00
2.480325693533127485e+00
2.480325693533127485e+00
2.505638966032898818e+00
2.505638966032898818e+00
2.532264778588213971e+00
2.537514938810388809e+00
2.537514938810388809e+00
2.539577501754814115e+00
2.539577501754814115e+00
2.549140293588061379e+00
2.516326792199468976e+00
2.516326792199468976e+00
2.496451185644092963e+00
2.496451185644092963e+00
2.489325968199713301e+00
2.480888210699789376e+00
2.480888210699789376e+00
2.473762993255409270e+00
2.473762993255409270e+00
2.455949949644459451e+00
2.457074983977782345e+00
2.457074983977782345e+00
2.455574938200018487e+00
2.452949858088931290e+00
2.452949858088931290e+00
2.502826380199591139e+00
2.502826380199591139e+00
2.533389812921536866e+00
2.543327616199224650e+00
2.543327616199224650e+00
2.554390453810235773e+00
2.554390453810235773e+00
2.561515671254616322e+00
2.499826288644062977e+00
2.499826288644062977e+00
2.464387707144383377e+00
2.445449629200109776e+00
2.445449629200109776e+00
2.456699972533341381e+00
2.456699972533341381e+00
2.467012787255470574e+00
2.472075441755424485e+00
2.472075441755424485e+00
2.477888119144261214e+00
2.477888119144261214e+00
2.458575029755546648e+00
2.477138096255378841e+00
2.477138096255378841e+00
2.518389355143894726e+00
2.518389355143894726e+00
2.533202307199316383e+00
2.538264961699270739e+00
2.538264961699270739e+00
2.556078005310220558e+00
2.556078005310220558e+00
2.526077089754936722e+00
2.492888576921902910e+00
2.492888576921902910e+00
2.480700704977568893e+00
2.473200476088747823e+00
2.473200476088747823e+00
2.480513199255348411e+00
2.480513199255348411e+00
2.475075533310953091e+00
2.472450453199865894e+00
2.472450453199865894e+00
2.477513107699820250e+00
2.477513107699820250e+00
2.471137913144322074e+00
2.485388348033082284e+00
2.485388348033082284e+00
2.507139011810663121e+00
2.507139011810663121e+00
2.494201116977446731e+00
2.507139011810663121e+00
2.507139011810663121e+00
2.532077272865993045e+00
2.532077272865993045e+00
2.512576677755058441e+00
2.494013611255226248e+00
2.494013611255226248e+00
2.497951231421857266e+00
2.488950956755272337e+00
2.488950956755272337e+00
2.490826013977477604e+00
2.490826013977477604e+00
2.486513382366405178e+00
2.473950498977630197e+00
2.473950498977630197e+00
2.468137821588793912e+00
2.468137821588793912e+00
2.463825189977721486e+00
2.497951231421857266e+00
2.497951231421857266e+00
2.527952146977141545e+00
2.528889675588243957e+00
2.528889675588243957e+00
2.548202764976958523e+00
2.548202764976958523e+00
2.555890499588000075e+00
2.514076723532822744e+00
2.514076723532822744e+00
2.481075716422009858e+00
2.481638233588671305e+00
2.481638233588671305e+00
2.485013336588640875e+00
2.485013336588640875e+00
2.487263405255287552e+00
2.479388164922025517e+00
2.479388164922025517e+00
2.471137913144322074e+00
2.471137913144322074e+00
2.456324961088900860e+00
2.452199835200048916e+00
2.452199835200048916e+00
2.495326151310770069e+00
2.495326151310770069e+00
2.512014160588396994e+00
2.515389263588366120e+00
2.515389263588366120e+00
2.538264961699270739e+00
2.538264961699270739e+00
2.529077181310464884e+00
2.500576311532944906e+00
2.500576311532944906e+00
2.486138370921964214e+00
2.486138370921964214e+00
2.474700521866512126e+00
2.483513290810876573e+00
2.483513290810876573e+00
2.488950956755272337e+00
2.486138370921964214e+00
2.486138370921964214e+00
2.481450727866450823e+00
2.481450727866450823e+00
2.467762810144352947e+00
2.479950682088686964e+00
2.479950682088686964e+00
2.518389355143894726e+00
2.518389355143894726e+00
2.523827021088290046e+00
2.531889767143772563e+00
2.531889767143772563e+00
2.540140018921475562e+00
2.540140018921475562e+00
2.527764641254921063e+00
2.495701162755211033e+00
2.495701162755211033e+00
2.478075624866481697e+00
2.463450178533280521e+00
2.463450178533280521e+00
2.475075533310953091e+00
2.475075533310953091e+00
2.476575579088717394e+00
2.466262764366588645e+00
2.466262764366588645e+00
2.463450178533280521e+00
2.463450178533280521e+00
2.462887661366619074e+00
2.495138645588549586e+00
2.495138645588549586e+00
2.525139561143833866e+00
2.522139469588305261e+00
2.522139469588305261e+00
2.529264687032685366e+00
2.529264687032685366e+00
2.539952513199255080e+00
2.506388988921781191e+00
2.506388988921781191e+00
2.486138370921964214e+00
2.486138370921964214e+00
2.489700979644154266e+00
2.477138096255378841e+00
2.477138096255378841e+00
2.468512833033234433e+00
2.468512833033234433e+00
2.477700613422040732e+00
2.484075807977538464e+00
2.484075807977538464e+00
2.461200109866634289e+00
2.461200109866634289e+00
2.457074983977782345e+00
2.493451094088564801e+00
2.493451094088564801e+00
2.514451734977264152e+00
2.530577227088229186e+00
2.530577227088229186e+00
2.531889767143772563e+00
2.531889767143772563e+00
2.533389812921536866e+00
2.503388897366253030e+00
2.503388897366253030e+00
2.500388805810724424e+00
2.500388805810724424e+00
2.478263130588702179e+00
2.465137730033265306e+00
2.465137730033265306e+00
2.464762718588824342e+00
2.464762718588824342e+00
2.467950315866573430e+00
2.464950224311044824e+00
2.464950224311044824e+00
2.460637592699972398e+00
2.460637592699972398e+00
2.480138187810907002e+00
2.527014618366038690e+00
2.527014618366038690e+00
2.540327524643696488e+00
2.543702627643666059e+00
2.543702627643666059e+00
2.562078188421277325e+00
2.562078188421277325e+00
2.543140110477004168e+00
2.499826288644062977e+00
2.499826288644062977e+00
2.481075716422009858e+00
2.481075716422009858e+00
2.467762810144352947e+00
2.470200384533219218e+00
2.470200384533219218e+00
2.462137638477736701e+00
2.462137638477736701e+00
2.462887661366619074e+00
2.472637958922086376e+00
2.472637958922086376e+00
2.461950132755516218e+00
2.461950132755516218e+00
2.479763176366466482e+00
2.517826837977233279e+00
2.528702169866023475e+00
2.528702169866023475e+00
2.540515030365916971e+00
2.554765465254677181e+00
2.554765465254677181e+00
2.527389629810480098e+00
2.493638599810785283e+00
2.493638599810785283e+00
2.481825739310891787e+00
2.481825739310891787e+00
2.470200384533219218e+00
2.469450361644337288e+00
2.469450361644337288e+00
2.459325052644428578e+00
2.459325052644428578e+00
2.452949858088931290e+00
2.461200109866634289e+00
2.461200109866634289e+00
2.460450086977751916e+00
2.460450086977751916e+00
2.498701254310739639e+00
2.538264961699270739e+00
2.538264961699270739e+00
2.538827478865932186e+00
2.542577593310342721e+00
2.542577593310342721e+00
2.542577593310342721e+00
2.542577593310342721e+00
2.509951597643971244e+00
2.492888576921902910e+00
2.492888576921902910e+00
2.483325785088656090e+00
2.483325785088656090e+00
2.478075624866481697e+00
2.475263039033173573e+00
2.475263039033173573e+00
2.473387981810968306e+00
2.473387981810968306e+00
2.476200567644276429e+00
2.455387432477798004e+00
2.455387432477798004e+00
2.463262672811060039e+00
2.500763817255165389e+00
2.500763817255165389e+00
2.527014618366038690e+00
2.527014618366038690e+00
2.536014893032624506e+00
2.553452925199133361e+00
2.553452925199133361e+00
2.539952513199255080e+00
2.539952513199255080e+00
2.506764000366222156e+00
2.494201116977446731e+00
2.494201116977446731e+00
2.480700704977568893e+00
2.478638142033143144e+00
2.478638142033143144e+00
2.478638142033143144e+00
2.467012787255470574e+00
2.467012787255470574e+00
2.461200109866634289e+00
2.461200109866634289e+00
2.461200109866634289e+00
2.467200292977691056e+00
2.467200292977691056e+00
2.500951322977385871e+00
2.514639240699484635e+00
2.514639240699484635e+00
2.519889400921659028e+00
2.519889400921659028e+00
2.541452558977019383e+00
2.510889126255073656e+00
2.510889126255073656e+00
2.485200842310861358e+00
2.485200842310861358e+00
2.480700704977568893e+00
2.468700338755454915e+00
2.468700338755454915e+00
2.471887936033204003e+00
2.471887936033204003e+00
2.472075441755424485e+00
2.476575579088717394e+00
2.476575579088717394e+00
2.481075716422009858e+00
2.471512924588763038e+00
2.471512924588763038e+00
2.499638782921842051e+00
2.499638782921842051e+00
2.538452467421491221e+00
2.533389812921536866e+00
2.533389812921536866e+00
2.523076998199408116e+00
2.523076998199408116e+00
2.536764915921506436e+00
2.507514023255104085e+00
2.507514023255104085e+00
2.478825647755364070e+00
2.478825647755364070e+00
2.473762993255409270e+00
2.470950407422101591e+00
2.470950407422101591e+00
2.485575853755302767e+00
2.482013245033112270e+00
2.482013245033112270e+00
2.475075533310953091e+00
2.475075533310953091e+00
2.474700521866512126e+00
2.469075350199895880e+00
2.469075350199895880e+00
2.489138462477492819e+00
2.489138462477492819e+00
2.514826746421705117e+00
2.512576677755058441e+00
2.512576677755058441e+00
2.538077455977050256e+00
2.532639790032654936e+00
2.532639790032654936e+00
2.500576311532944906e+00
2.500576311532944906e+00
2.487638416699728516e+00
2.481263222144230340e+00
2.481263222144230340e+00
2.482575762199774161e+00
2.482575762199774161e+00
2.475263039033173573e+00
2.469637867366557771e+00
2.469637867366557771e+00
2.473762993255409270e+00
2.473762993255409270e+00
2.453137363811151772e+00
2.464575212866603859e+00
2.464575212866603859e+00
2.506576494644001674e+00
2.530577227088229186e+00
2.530577227088229186e+00
2.544827661976988953e+00
2.544827661976988953e+00
2.555515488143559111e+00
2.536952421643726918e+00
2.536952421643726918e+00
2.498138737144077748e+00
2.494576128421887695e+00
2.494576128421887695e+00
2.478450636310922661e+00
2.478450636310922661e+00
2.476013061922055947e+00
2.473387981810968306e+00
2.473387981810968306e+00
2.469075350199895880e+00
2.469075350199895880e+00
2.468512833033234433e+00
2.461387615588854771e+00
2.461387615588854771e+00
2.482763267921994643e+00
2.482763267921994643e+00
2.518764366588335690e+00
2.528702169866023475e+00
2.528702169866023475e+00
2.538452467421491221e+00
2.538452467421491221e+00
2.548202764976958523e+00
2.518014343699453761e+00
2.518014343699453761e+00
2.491013519699698087e+00
2.477700613422040732e+00
2.477700613422040732e+00
2.463075167088839557e+00
2.463075167088839557e+00
2.466262764366588645e+00
2.471700430310983521e+00
2.471700430310983521e+00
2.471512924588763038e+00
2.471512924588763038e+00
2.469825373088778253e+00
2.455762443922238969e+00
2.455762443922238969e+00
2.504701437421796406e+00
2.537139927365947845e+00
2.537139927365947845e+00
2.536577410199285953e+00
2.536577410199285953e+00
2.550077822199164235e+00
2.550452833643604755e+00
2.550452833643604755e+00
2.517076815088350905e+00
2.517076815088350905e+00
2.492701071199682428e+00
2.470575395977660182e+00
2.470575395977660182e+00
2.464012695699941968e+00
2.464012695699941968e+00
2.467200292977691056e+00
2.454637409588916075e+00
2.454637409588916075e+00
2.456699972533341381e+00
2.456699972533341381e+00
2.453699880977813219e+00
2.463637684255501004e+00
2.463637684255501004e+00
2.508264046143986459e+00
2.534702352977080686e+00
2.534702352977080686e+00
2.536202398754844989e+00
2.536202398754844989e+00
2.548015259254738041e+00
2.537327433088168327e+00
2.537327433088168327e+00
2.503388897366253030e+00
2.503388897366253030e+00
2.492888576921902910e+00
2.467950315866573430e+00
2.467950315866573430e+00
2.463825189977721486e+00
2.463825189977721486e+00
2.455387432477798004e+00
2.457074983977782345e+00
2.457074983977782345e+00
2.466450270088809127e+00
2.457262489700002828e+00
2.457262489700002828e+00
2.476575579088717394e+00
2.476575579088717394e+00
2.521014435254982367e+00
2.526452101199377687e+00
2.526452101199377687e+00
2.536389904477065471e+00
2.536389904477065471e+00
2.554202948088015290e+00
2.536952421643726918e+00
2.536952421643726918e+00
2.502451368755150174e+00
2.502451368755150174e+00
2.492701071199682428e+00
2.481263222144230340e+00
2.481263222144230340e+00
2.469637867366557771e+00
2.469637867366557771e+00
2.456887478255561863e+00
2.455762443922238969e+00
2.455762443922238969e+00
2.454074892422254184e+00
2.452012329477828434e+00
2.452012329477828434e+00
2.482763267921994643e+00
2.482763267921994643e+00
2.522326975310525743e+00
2.529264687032685366e+00
2.529264687032685366e+00
2.537514938810388809e+00
2.537514938810388809e+00
2.542577593310342721e+00
2.516139286477248493e+00
2.516139286477248493e+00
2.491388531144139051e+00
2.491388531144139051e+00
2.473575487533188788e+00
2.468512833033234433e+00
2.468512833033234433e+00
2.473950498977630197e+00
2.469450361644337288e+00
2.469450361644337288e+00
2.474138004699850679e+00
2.474138004699850679e+00
2.467200292977691056e+00
2.471137913144322074e+00
2.471137913144322074e+00
2.512014160588396994e+00
2.512014160588396994e+00
2.534514847254860204e+00
2.533952330088198757e+00
2.533952330088198757e+00
2.537327433088168327e+00
2.536202398754844989e+00
2.536202398754844989e+00
2.504513931699575480e+00
2.504513931699575480e+00
2.492513565477461945e+00
2.473387981810968306e+00
2.473387981810968306e+00
2.463450178533280521e+00
2.463450178533280521e+00
2.462137638477736701e+00
2.458387524033326166e+00
2.458387524033326166e+00
2.466637775811029609e+00
2.466637775811029609e+00
2.457262489700002828e+00
2.470950407422101591e+00
2.470950407422101591e+00
2.515951780755027567e+00
2.531139744254890633e+00
2.531139744254890633e+00
2.537889950254829774e+00
2.537889950254829774e+00
2.548952787865840897e+00
2.529827204199346813e+00
2.529827204199346813e+00
2.498138737144077748e+00
2.498138737144077748e+00
2.487450910977508034e+00
2.476575579088717394e+00
2.476575579088717394e+00
2.478825647755364070e+00
2.478825647755364070e+00
2.474138004699850679e+00
2.471887936033204003e+00
2.471887936033204003e+00
2.475075533310953091e+00
2.472825464644306859e+00
2.472825464644306859e+00
2.494201116977446731e+00
2.494201116977446731e+00
2.531702261421552080e+00
2.533764824365978274e+00
2.533764824365978274e+00
2.528327158421582510e+00
2.528327158421582510e+00
2.531889767143772563e+00
2.504888943144016888e+00
2.504888943144016888e+00
2.479013153477584552e+00
2.479013153477584552e+00
2.475263039033173573e+00
2.467200292977691056e+00
2.467200292977691056e+00
2.464950224311044824e+00
2.464950224311044824e+00
2.464200201422162451e+00
2.461575121311075254e+00
2.461575121311075254e+00
2.458762535477767130e+00
2.455387432477798004e+00
2.455387432477798004e+00
2.492513565477461945e+00
2.492513565477461945e+00
2.526077089754936722e+00
2.529827204199346813e+00
2.529827204199346813e+00
2.543327616199224650e+00
2.543327616199224650e+00
2.545202673421430362e+00
2.520076906643879511e+00
2.520076906643879511e+00
2.496076174199651998e+00
2.496076174199651998e+00
2.475450544755394056e+00
2.459700064088869986e+00
2.459700064088869986e+00
2.463637684255501004e+00
2.469075350199895880e+00
2.469075350199895880e+00
2.472825464644306859e+00
2.472825464644306859e+00
2.459512558366649504e+00
2.461762627033295736e+00
2.461762627033295736e+00
2.503201391644032547e+00
2.503201391644032547e+00
2.528889675588243957e+00
2.537702444532609292e+00
2.537702444532609292e+00
2.547452742088076594e+00
2.543140110477004168e+00
2.543140110477004168e+00
2.506764000366222156e+00
2.506764000366222156e+00
2.494201116977446731e+00
2.477513107699820250e+00
2.477513107699820250e+00
2.473387981810968306e+00
2.473387981810968306e+00
2.465137730033265306e+00
2.455574938200018487e+00
2.455574938200018487e+00
2.458012512588885201e+00
2.449949766533402684e+00
2.449949766533402684e+00
2.475450544755394056e+00
2.475450544755394056e+00
2.518014343699453761e+00
2.527764641254921063e+00
2.527764641254921063e+00
2.541452558977019383e+00
2.541452558977019383e+00
2.554015442365794808e+00
2.531139744254890633e+00
2.531139744254890633e+00
2.501326334421826836e+00
2.501326334421826836e+00
2.493451094088564801e+00
2.479950682088686964e+00
2.479950682088686964e+00
2.476388073366496911e+00
2.476388073366496911e+00
2.468325327311013950e+00
2.470012878810998735e+00
2.470012878810998735e+00
2.467575304422132465e+00
2.457074983977782345e+00
2.457074983977782345e+00
2.492326059755241463e+00
2.492326059755241463e+00
2.527389629810480098e+00
2.525139561143833866e+00
2.525139561143833866e+00
2.538077455977050256e+00
2.539577501754814115e+00
2.539577501754814115e+00
2.504888943144016888e+00
2.504888943144016888e+00
2.486325876644184696e+00
2.477325601977599767e+00
2.477325601977599767e+00
2.471325418866542556e+00
2.471325418866542556e+00
2.479013153477584552e+00
2.471512924588763038e+00
2.471512924588763038e+00
2.471512924588763038e+00
2.471512924588763038e+00
2.458200018311105683e+00
2.461950132755516218e+00
2.461950132755516218e+00
2.500763817255165389e+00
2.526639606921598169e+00
2.526639606921598169e+00
2.526827112643818651e+00
2.526827112643818651e+00
2.530577227088229186e+00
2.534702352977080686e+00
2.534702352977080686e+00
2.507701528977324568e+00
2.507701528977324568e+00
2.482763267921994643e+00
2.463450178533280521e+00
2.463450178533280521e+00
2.462137638477736701e+00
2.462137638477736701e+00
2.467575304422132465e+00
2.470575395977660182e+00
2.470575395977660182e+00
2.478263130588702179e+00
2.463825189977721486e+00
2.463825189977721486e+00
2.475075533310953091e+00
2.475075533310953091e+00
2.514076723532822744e+00
2.521951963866084778e+00
2.521951963866084778e+00
2.531889767143772563e+00
2.531889767143772563e+00
2.542952604754783685e+00
2.530764732810449669e+00
2.530764732810449669e+00
2.497576219977416301e+00
2.497576219977416301e+00
2.488200933866389963e+00
2.479013153477584552e+00
2.479013153477584552e+00
2.476575579088717394e+00
2.476575579088717394e+00
2.474138004699850679e+00
2.473387981810968306e+00
2.473387981810968306e+00
2.477325601977599767e+00
2.463825189977721486e+00
2.463825189977721486e+00
2.487450910977508034e+00
2.487450910977508034e+00
2.521201940977202849e+00
2.527202124088259172e+00
2.527202124088259172e+00
2.526639606921598169e+00
2.526639606921598169e+00
2.531514755699331598e+00
2.512201666310617476e+00
2.512201666310617476e+00
2.488763451033051854e+00
2.488763451033051854e+00
2.482388256477553679e+00
2.471700430310983521e+00
2.471700430310983521e+00
2.469637867366557771e+00
2.467762810144352947e+00
2.467762810144352947e+00
2.475450544755394056e+00
2.475450544755394056e+00
2.468137821588793912e+00
2.461012604144413807e+00
2.461012604144413807e+00
2.488013428144169481e+00
2.488013428144169481e+00
2.509201574755088870e+00
2.521201940977202849e+00
2.521201940977202849e+00
2.544077639088107023e+00
2.544077639088107023e+00
2.542765099032563203e+00
2.516514297921689458e+00
2.516514297921689458e+00
2.494201116977446731e+00
2.494201116977446731e+00
2.481638233588671305e+00
2.477138096255378841e+00
2.477138096255378841e+00
2.466075258644368162e+00
2.461762627033295736e+00
2.461762627033295736e+00
2.464200201422162451e+00
2.464200201422162451e+00
2.454262398144474666e+00
2.468700338755454915e+00
2.468700338755454915e+00
2.510514114810632691e+00
2.510514114810632691e+00
2.530014709921567295e+00
2.536202398754844989e+00
2.536202398754844989e+00
2.544077639088107023e+00
2.544077639088107023e+00
2.530952238532670151e+00
2.494388622699667213e+00
2.494388622699667213e+00
2.485763359477523249e+00
2.471887936033204003e+00
2.471887936033204003e+00
2.477888119144261214e+00
2.477888119144261214e+00
2.475450544755394056e+00
2.471325418866542556e+00
2.471325418866542556e+00
2.474325510422071162e+00
2.474325510422071162e+00
2.463637684255501004e+00
2.484825830866420393e+00
2.484825830866420393e+00
2.518576860866115208e+00
2.518576860866115208e+00
2.528514664143802992e+00
2.534702352977080686e+00
2.534702352977080686e+00
2.536202398754844989e+00
2.521576952421643814e+00
2.521576952421643814e+00
2.491576036866359534e+00
2.491576036866359534e+00
2.487263405255287552e+00
2.477513107699820250e+00
2.477513107699820250e+00
2.479388164922025517e+00
2.474513016144291644e+00
2.474513016144291644e+00
2.476013061922055947e+00
2.476013061922055947e+00
2.470387890255439700e+00
2.454449903866695148e+00
2.454449903866695148e+00
2.480513199255348411e+00
2.480513199255348411e+00
2.518389355143894726e+00
2.522701986754967152e+00
2.522701986754967152e+00
2.537327433088168327e+00
2.537327433088168327e+00
2.527764641254921063e+00
2.499638782921842051e+00
2.499638782921842051e+00
2.483888302255317981e+00
2.483888302255317981e+00
2.473575487533188788e+00
2.467387798699911539e+00
2.467387798699911539e+00
2.474138004699850679e+00
2.468137821588793912e+00
2.468137821588793912e+00
2.477700613422040732e+00
2.477700613422040732e+00
2.471325418866542556e+00
2.473950498977630197e+00
2.473950498977630197e+00
2.510514114810632691e+00
2.510514114810632691e+00
2.527389629810480098e+00
2.526077089754936722e+00
2.526077089754936722e+00
2.538452467421491221e+00
2.538452467421491221e+00
2.533202307199316383e+00
2.503201391644032547e+00
2.503201391644032547e+00
2.490451002533036640e+00
2.486138370921964214e+00
2.486138370921964214e+00
2.483888302255317981e+00
2.483888302255317981e+00
2.476388073366496911e+00
2.468512833033234433e+00
2.468512833033234433e+00
2.468512833033234433e+00
2.468512833033234433e+00
2.454449903866695148e+00
2.472450453199865894e+00
2.472450453199865894e+00
2.513139194921720332e+00
2.513139194921720332e+00
2.519889400921659028e+00
2.530202215643787778e+00
2.530202215643787778e+00
2.541265053254798900e+00
2.525327066866054349e+00
2.525327066866054349e+00
2.490075991088595231e+00
2.490075991088595231e+00
2.483325785088656090e+00
2.471325418866542556e+00
2.471325418866542556e+00
2.471512924588763038e+00
2.471512924588763038e+00
2.473012970366527341e+00
2.470575395977660182e+00
2.470575395977660182e+00
2.467012787255470574e+00
2.457262489700002828e+00
2.457262489700002828e+00
2.489138462477492819e+00
2.489138462477492819e+00
2.524764549699392902e+00
2.534139835810419239e+00
2.534139835810419239e+00
2.548390270699179450e+00
2.548390270699179450e+00
2.544452650532547988e+00
2.521389446699423331e+00
2.521389446699423331e+00
2.492701071199682428e+00
2.492701071199682428e+00
2.475450544755394056e+00
2.467950315866573430e+00
2.467950315866573430e+00
2.474888027588732609e+00
2.474888027588732609e+00
2.471512924588763038e+00
2.474700521866512126e+00
2.474700521866512126e+00
2.462325144199957183e+00
2.451262306588946061e+00
2.451262306588946061e+00
2.488388439588610446e+00
2.488388439588610446e+00
2.521576952421643814e+00
2.533014801477095901e+00
2.533014801477095901e+00
2.545390179143650844e+00
2.545390179143650844e+00
2.540702536088137453e+00
2.514076723532822744e+00
2.514076723532822744e+00
2.495138645588549586e+00
2.495138645588549586e+00
2.478825647755364070e+00
2.471700430310983521e+00
2.471700430310983521e+00
2.476200567644276429e+00
2.476200567644276429e+00
2.473200476088747823e+00
2.474888027588732609e+00
2.474888027588732609e+00
2.459700064088869986e+00
2.472637958922086376e+00
2.472637958922086376e+00
2.517639332255012796e+00
2.517639332255012796e+00
2.532077272865993045e+00
2.538827478865932186e+00
2.538827478865932186e+00
2.548202764976958523e+00
2.548202764976958523e+00
2.526452101199377687e+00
2.495888668477431516e+00
2.495888668477431516e+00
2.488200933866389963e+00
2.471887936033204003e+00
2.471887936033204003e+00
2.473762993255409270e+00
2.473762993255409270e+00
2.466450270088809127e+00
2.466262764366588645e+00
2.466262764366588645e+00
2.467012787255470574e+00
2.467012787255470574e+00
2.448824732200079346e+00
2.469637867366557771e+00
2.469637867366557771e+00
2.509576586199530279e+00
2.509576586199530279e+00
2.527202124088259172e+00
2.541452558977019383e+00
2.541452558977019383e+00
2.538452467421491221e+00
2.519889400921659028e+00
2.519889400921659028e+00
2.495513657032990551e+00
2.495513657032990551e+00
2.490451002533036640e+00
2.477138096255378841e+00
2.477138096255378841e+00
2.474700521866512126e+00
2.474700521866512126e+00
2.469637867366557771e+00
2.465512741477706271e+00
2.465512741477706271e+00
2.459325052644428578e+00
2.459325052644428578e+00
2.458387524033326166e+00
2.495138645588549586e+00
2.495138645588549586e+00
2.527952146977141545e+00
2.527952146977141545e+00
2.529639698477126331e+00
2.548202764976958523e+00
2.548202764976958523e+00
2.542015076143681274e+00
2.516139286477248493e+00
2.516139286477248493e+00
2.488763451033051854e+00
2.488763451033051854e+00
2.477700613422040732e+00
2.471512924588763038e+00
2.471512924588763038e+00
2.472262947477644968e+00
2.472262947477644968e+00
2.464762718588824342e+00
2.466262764366588645e+00
2.466262764366588645e+00
2.456699972533341381e+00
2.456699972533341381e+00
2.458012512588885201e+00
2.507139011810663121e+00
2.507139011810663121e+00
2.529452192754905848e+00
2.531702261421552080e+00
2.531702261421552080e+00
2.543702627643666059e+00
2.543702627643666059e+00
2.534702352977080686e+00
2.515576769310586602e+00
2.515576769310586602e+00
2.501326334421826836e+00
2.501326334421826836e+00
2.479388164922025517e+00
2.476013061922055947e+00
2.476013061922055947e+00
2.468137821588793912e+00
2.468137821588793912e+00
2.458200018311105683e+00
2.469262855922116806e+00
2.469262855922116806e+00
2.458762535477767130e+00
2.458762535477767130e+00
2.472825464644306859e+00
2.513326700643940814e+00
2.513326700643940814e+00
2.520076906643879511e+00
2.526264595477157204e+00
2.526264595477157204e+00
2.537702444532609292e+00
2.537702444532609292e+00
2.523827021088290046e+00
2.487638416699728516e+00
2.487638416699728516e+00
2.479575670644245999e+00
2.479575670644245999e+00
2.466450270088809127e+00
2.472825464644306859e+00
2.472825464644306859e+00
2.477325601977599767e+00
2.477325601977599767e+00
2.471887936033204003e+00
2.468325327311013950e+00
2.468325327311013950e+00
2.455387432477798004e+00
2.455387432477798004e+00
2.486888393810846587e+00
2.525702078310495757e+00
2.525702078310495757e+00
2.529077181310464884e+00
2.536389904477065471e+00
2.536389904477065471e+00
2.531514755699331598e+00
2.531514755699331598e+00
2.515389263588366120e+00
2.491576036866359534e+00
2.491576036866359534e+00
2.481825739310891787e+00
2.481825739310891787e+00
2.477138096255378841e+00
2.479013153477584552e+00
2.479013153477584552e+00
2.468887844477675397e+00
2.468887844477675397e+00
2.465700247199926753e+00
2.463825189977721486e+00
2.463825189977721486e+00
2.464950224311044824e+00
2.502263863032929692e+00
2.502263863032929692e+00
2.529077181310464884e+00
2.529077181310464884e+00
2.534514847254860204e+00
2.552327890865810023e+00
2.552327890865810023e+00
2.530389721366008260e+00
2.496076174199651998e+00
2.496076174199651998e+00
2.483138279366435608e+00
2.471137913144322074e+00
2.471137913144322074e+00
2.470387890255439700e+00
2.470387890255439700e+00
2.470387890255439700e+00
2.470575395977660182e+00
2.470575395977660182e+00
2.476575579088717394e+00
2.466637775811029609e+00
2.466637775811029609e+00
2.476763084810937876e+00
2.476763084810937876e+00
2.517076815088350905e+00
2.529452192754905848e+00
2.529452192754905848e+00
2.533952330088198757e+00
2.543702627643666059e+00
2.543702627643666059e+00
2.523827021088290046e+00
2.523827021088290046e+00
2.485200842310861358e+00
2.475450544755394056e+00
2.475450544755394056e+00
2.469825373088778253e+00
2.469825373088778253e+00
2.470387890255439700e+00
2.467012787255470574e+00
2.467012787255470574e+00
2.465325235755485789e+00
2.465325235755485789e+00
2.468137821588793912e+00
2.456887478255561863e+00
2.456887478255561863e+00
2.482763267921994643e+00
2.482763267921994643e+00
2.523452009643849081e+00
2.531139744254890633e+00
2.531139744254890633e+00
2.541452558977019383e+00
2.541265053254798900e+00
2.541265053254798900e+00
2.518951872310556173e+00
2.518951872310556173e+00
2.492138554033020981e+00
2.480700704977568893e+00
2.480700704977568893e+00
2.468512833033234433e+00
2.468512833033234433e+00
2.477325601977599767e+00
2.478075624866481697e+00
2.478075624866481697e+00
2.474700521866512126e+00
2.470575395977660182e+00
2.470575395977660182e+00
2.459700064088869986e+00
2.498701254310739639e+00
2.498701254310739639e+00
2.527952146977141545e+00
2.530952238532670151e+00
2.530952238532670151e+00
2.542765099032563203e+00
2.542765099032563203e+00
2.531702261421552080e+00
2.506201483199560265e+00
2.506201483199560265e+00
2.486700888088625661e+00
2.475263039033173573e+00
2.475263039033173573e+00
2.465512741477706271e+00
2.465512741477706271e+00
2.468700338755454915e+00
2.458387524033326166e+00
2.458387524033326166e+00
2.457262489700002828e+00
2.457262489700002828e+00
2.455199926755577522e+00
2.470012878810998735e+00
2.470012878810998735e+00
2.511639149143956029e+00
2.530389721366008260e+00
2.530389721366008260e+00
2.535639881588183542e+00
2.535639881588183542e+00
2.554015442365794808e+00
2.539202490310373150e+00
2.539202490310373150e+00
2.513701712088381779e+00
2.513701712088381779e+00
2.498513748588519157e+00
2.473387981810968306e+00
2.473387981810968306e+00
2.471700430310983521e+00
2.471700430310983521e+00
2.470200384533219218e+00
2.469637867366557771e+00
2.469637867366557771e+00
2.474513016144291644e+00
2.455949949644459451e+00
