2.460450086977751916e+00
2.460450086977751916e+00
2.460450086977751916e+00
2.439824457533493973e+00
2.439824457533493973e+00
2.439824457533493973e+00
2.439824457533493973e+00
2.421636402478102745e+00
2.421636402478102745e+00
2.421636402478102745e+00
2.445074617755668811e+00
2.445074617755668811e+00
2.445074617755668811e+00
2.454637409588916075e+00
2.454637409588916075e+00
2.454637409588916075e+00
2.454637409588916075e+00
2.447137180700094561e+00
2.447137180700094561e+00
2.447137180700094561e+00
2.458012512588885201e+00
2.458012512588885201e+00
2.458012512588885201e+00
2.458012512588885201e+00
2.503201391644032547e+00
2.503201391644032547e+00
2.503201391644032547e+00
2.522514481032746669e+00
2.522514481032746669e+00
2.522514481032746669e+00
2.522514481032746669e+00
2.528702169866023475e+00
2.528702169866023475e+00
2.528702169866023475e+00
2.543890133365886541e+00
2.543890133365886541e+00
2.543890133365886541e+00
2.541077547532578418e+00
2.541077547532578418e+00
2.541077547532578418e+00
2.541077547532578418e+00
2.511076631977294138e+00
2.511076631977294138e+00
2.511076631977294138e+00
2.495138645588549586e+00
2.495138645588549586e+00
2.495138645588549586e+00
2.495138645588549586e+00
2.468512833033234433e+00
2.468512833033234433e+00
2.468512833033234433e+00
2.474513016144291644e+00
2.474513016144291644e+00
2.474513016144291644e+00
2.474513016144291644e+00
2.461200109866634289e+00
2.461200109866634289e+00
2.461200109866634289e+00
2.470575395977660182e+00
2.470575395977660182e+00
2.470575395977660182e+00
2.481450727866450823e+00
2.481450727866450823e+00
2.481450727866450823e+00
2.481450727866450823e+00
2.455762443922238969e+00
2.455762443922238969e+00
2.455762443922238969e+00
2.479013153477584552e+00
2.479013153477584552e+00
2.479013153477584552e+00
2.479013153477584552e+00
2.521389446699423331e+00
2.521389446699423331e+00
2.521389446699423331e+00
2.519139378032776655e+00
2.519139378032776655e+00
2.519139378032776655e+00
2.545577684865871326e+00
2.545577684865871326e+00
2.545577684865871326e+00
2.545577684865871326e+00
2.538077455977050256e+00
2.538077455977050256e+00
2.538077455977050256e+00
2.510139103366191726e+00
2.510139103366191726e+00
2.510139103366191726e+00
2.510139103366191726e+00
2.480700704977568893e+00
2.480700704977568893e+00
2.480700704977568893e+00
2.480325693533127485e+00
2.480325693533127485e+00
2.477888119144261214e+00
2.477888119144261214e+00
2.477888119144261214e+00
2.477888119144261214e+00
2.476950590533158358e+00
2.476950590533158358e+00
2.476950590533158358e+00
2.457825006866664719e+00
2.457825006866664719e+00
2.457825006866664719e+00
2.457825006866664719e+00
2.449574755088961275e+00
2.449574755088961275e+00
2.449574755088961275e+00
2.461950132755516218e+00
2.461950132755516218e+00
2.461950132755516218e+00
2.472450453199865894e+00
2.472450453199865894e+00
2.472450453199865894e+00
2.472450453199865894e+00
2.499076265755180604e+00
2.499076265755180604e+00
2.499076265755180604e+00
2.527202124088259172e+00
2.527202124088259172e+00
2.527202124088259172e+00
2.525702078310495757e+00
2.525702078310495757e+00
2.525702078310495757e+00
2.525702078310495757e+00
2.548390270699179450e+00
2.548390270699179450e+00
2.548390270699179450e+00
2.548015259254738041e+00
2.548015259254738041e+00
2.548015259254738041e+00
2.548015259254738041e+00
2.507514023255104085e+00
2.507514023255104085e+00
2.507514023255104085e+00
2.484450819421979428e+00
2.484450819421979428e+00
2.484450819421979428e+00
2.468887844477675397e+00
2.468887844477675397e+00
2.448074709311197417e+00
2.448074709311197417e+00
2.448074709311197417e+00
2.428386608478041886e+00
2.428386608478041886e+00
2.428386608478041886e+00
2.428386608478041886e+00
2.419761345255897922e+00
2.419761345255897922e+00
2.419761345255897922e+00
2.435324320200201509e+00
2.435324320200201509e+00
2.435324320200201509e+00
2.437949400311288706e+00
2.437949400311288706e+00
2.437949400311288706e+00
2.437949400311288706e+00
2.453699880977813219e+00
2.453699880977813219e+00
2.453699880977813219e+00
2.514451734977264152e+00
2.514451734977264152e+00
2.514451734977264152e+00
2.514451734977264152e+00
2.552140385143589540e+00
2.552140385143589540e+00
2.552140385143589540e+00
2.543702627643666059e+00
2.543702627643666059e+00
2.543702627643666059e+00
2.555327982421338628e+00
2.555327982421338628e+00
2.555327982421338628e+00
2.555327982421338628e+00
2.540140018921475562e+00
2.540140018921475562e+00
2.540140018921475562e+00
2.508451551866206941e+00
2.508451551866206941e+00
2.508451551866206941e+00
2.508451551866206941e+00
2.493263588366343875e+00
2.493263588366343875e+00
2.493263588366343875e+00
2.474138004699850679e+00
2.474138004699850679e+00
2.474138004699850679e+00
2.467950315866573430e+00
2.467950315866573430e+00
2.467950315866573430e+00
2.467950315866573430e+00
2.466450270088809127e+00
2.466450270088809127e+00
2.466450270088809127e+00
2.455574938200018487e+00
2.455574938200018487e+00
2.455574938200018487e+00
2.455574938200018487e+00
2.459325052644428578e+00
2.459325052644428578e+00
2.459325052644428578e+00
2.443199560533463544e+00
2.443199560533463544e+00
2.443199560533463544e+00
2.466075258644368162e+00
2.466075258644368162e+00
2.466075258644368162e+00
2.466075258644368162e+00
2.517639332255012796e+00
2.517639332255012796e+00
2.517639332255012796e+00
2.523452009643849081e+00
2.523452009643849081e+00
2.523452009643849081e+00
2.523452009643849081e+00
2.529827204199346813e+00
2.529827204199346813e+00
2.529827204199346813e+00
2.541265053254798900e+00
2.541265053254798900e+00
2.541265053254798900e+00
2.541265053254798900e+00
2.515389263588366120e+00
2.515389263588366120e+00
2.515389263588366120e+00
2.490451002533036640e+00
2.490451002533036640e+00
2.490451002533036640e+00
2.476763084810937876e+00
2.476763084810937876e+00
2.476763084810937876e+00
2.476763084810937876e+00
2.470012878810998735e+00
2.470012878810998735e+00
2.470012878810998735e+00
2.464012695699941968e+00
2.464012695699941968e+00
2.464012695699941968e+00
2.464012695699941968e+00
2.465325235755485789e+00
2.465325235755485789e+00
2.465325235755485789e+00
2.475263039033173573e+00
2.475263039033173573e+00
2.475263039033173573e+00
2.488200933866389963e+00
2.488200933866389963e+00
2.488200933866389963e+00
2.488200933866389963e+00
2.492701071199682428e+00
2.492701071199682428e+00
2.492701071199682428e+00
2.526639606921598169e+00
2.526639606921598169e+00
2.545390179143650844e+00
2.545390179143650844e+00
2.545390179143650844e+00
2.545390179143650844e+00
2.541452558977019383e+00
2.541452558977019383e+00
2.541452558977019383e+00
2.542952604754783685e+00
2.542952604754783685e+00
2.542952604754783685e+00
2.515014252143925599e+00
2.515014252143925599e+00
2.515014252143925599e+00
2.515014252143925599e+00
2.492138554033020981e+00
2.492138554033020981e+00
2.492138554033020981e+00
2.461762627033295736e+00
2.461762627033295736e+00
2.461762627033295736e+00
2.465512741477706271e+00
2.465512741477706271e+00
2.465512741477706271e+00
2.465512741477706271e+00
2.447699697866756008e+00
2.447699697866756008e+00
2.447699697866756008e+00
2.430074159978026671e+00
2.430074159978026671e+00
2.430074159978026671e+00
2.445824640644550740e+00
2.445824640644550740e+00
2.445824640644550740e+00
2.445824640644550740e+00
2.470950407422101591e+00
2.470950407422101591e+00
2.470950407422101591e+00
2.465325235755485789e+00
2.465325235755485789e+00
2.465325235755485789e+00
2.493638599810785283e+00
2.493638599810785283e+00
2.493638599810785283e+00
2.493638599810785283e+00
2.539389996032593633e+00
2.539389996032593633e+00
2.539389996032593633e+00
2.546890224921415147e+00
2.546890224921415147e+00
2.546890224921415147e+00
2.546890224921415147e+00
2.546702719199194664e+00
2.546702719199194664e+00
2.546702719199194664e+00
2.535077364421521651e+00
2.535077364421521651e+00
2.515764275032807085e+00
2.515764275032807085e+00
2.515764275032807085e+00
2.515764275032807085e+00
2.488013428144169481e+00
2.488013428144169481e+00
2.488013428144169481e+00
2.458012512588885201e+00
2.458012512588885201e+00
2.458012512588885201e+00
2.456324961088900860e+00
2.456324961088900860e+00
2.456324961088900860e+00
2.456324961088900860e+00
2.500013794366283459e+00
2.500013794366283459e+00
2.500013794366283459e+00
2.508076540421765976e+00
2.508076540421765976e+00
2.508076540421765976e+00
2.508076540421765976e+00
2.507701528977324568e+00
2.507701528977324568e+00
2.507701528977324568e+00
2.454637409588916075e+00
2.454637409588916075e+00
2.454637409588916075e+00
2.454637409588916075e+00
2.457262489700002828e+00
2.457262489700002828e+00
2.457262489700002828e+00
2.437574388866847741e+00
2.437574388866847741e+00
2.437574388866847741e+00
2.479388164922025517e+00
2.479388164922025517e+00
2.479388164922025517e+00
2.479388164922025517e+00
2.485950865199743731e+00
2.485950865199743731e+00
2.485950865199743731e+00
2.474325510422071162e+00
2.474325510422071162e+00
2.474325510422071162e+00
2.474325510422071162e+00
2.500201300088503942e+00
2.500201300088503942e+00
2.500201300088503942e+00
2.500763817255165389e+00
2.500763817255165389e+00
2.500763817255165389e+00
2.500763817255165389e+00
2.474888027588732609e+00
2.474888027588732609e+00
2.474888027588732609e+00
2.492326059755241463e+00
2.492326059755241463e+00
2.492326059755241463e+00
2.496263679921872480e+00
2.496263679921872480e+00
2.496263679921872480e+00
2.496263679921872480e+00
2.477888119144261214e+00
2.477888119144261214e+00
2.477888119144261214e+00
2.485013336588640875e+00
2.485013336588640875e+00
2.485013336588640875e+00
2.497763725699636783e+00
2.497763725699636783e+00
2.497763725699636783e+00
2.470012878810998735e+00
2.470012878810998735e+00
2.470012878810998735e+00
2.447699697866756008e+00
2.447699697866756008e+00
2.447699697866756008e+00
2.452762352366710363e+00
2.452762352366710363e+00
2.452762352366710363e+00
2.490075991088595231e+00
2.490075991088595231e+00
2.490075991088595231e+00
2.490075991088595231e+00
2.514826746421705117e+00
2.514826746421705117e+00
2.514826746421705117e+00
2.510139103366191726e+00
2.510139103366191726e+00
2.510139103366191726e+00
2.561328165532395840e+00
2.561328165532395840e+00
2.561328165532395840e+00
2.524577043977172419e+00
2.524577043977172419e+00
2.524577043977172419e+00
2.524577043977172419e+00
2.473387981810968306e+00
2.473387981810968306e+00
2.473387981810968306e+00
2.462512649922177665e+00
2.462512649922177665e+00
2.462512649922177665e+00
2.478638142033143144e+00
2.478638142033143144e+00
2.478638142033143144e+00
2.478638142033143144e+00
2.511264137699515064e+00
2.511264137699515064e+00
2.511264137699515064e+00
2.496638691366313889e+00
2.496638691366313889e+00
2.496638691366313889e+00
2.496638691366313889e+00
2.482388256477553679e+00
2.482388256477553679e+00
2.482388256477553679e+00
2.459700064088869986e+00
2.459700064088869986e+00
2.459700064088869986e+00
2.457074983977782345e+00
2.457074983977782345e+00
2.457074983977782345e+00
2.457074983977782345e+00
2.489513473921933784e+00
2.489513473921933784e+00
2.489513473921933784e+00
2.508076540421765976e+00
2.508076540421765976e+00
2.508076540421765976e+00
2.508076540421765976e+00
2.520451918088320475e+00
2.520451918088320475e+00
2.520451918088320475e+00
2.548015259254738041e+00
2.548015259254738041e+00
2.548015259254738041e+00
2.548765282143620414e+00
2.548765282143620414e+00
2.548765282143620414e+00
2.548765282143620414e+00
2.507514023255104085e+00
2.507514023255104085e+00
2.507514023255104085e+00
2.477325601977599767e+00
2.477325601977599767e+00
2.477325601977599767e+00
2.477325601977599767e+00
2.468700338755454915e+00
2.468700338755454915e+00
2.468700338755454915e+00
2.468700338755454915e+00
2.468700338755454915e+00
2.468700338755454915e+00
2.464575212866603859e+00
2.464575212866603859e+00
2.464575212866603859e+00
2.464575212866603859e+00
2.441512009033478758e+00
2.441512009033478758e+00
2.441512009033478758e+00
2.435136814477980582e+00
2.435136814477980582e+00
2.435136814477980582e+00
2.435136814477980582e+00
2.454449903866695148e+00
2.454449903866695148e+00
2.454449903866695148e+00
2.467762810144352947e+00
2.467762810144352947e+00
2.467762810144352947e+00
2.508639057588427423e+00
2.508639057588427423e+00
2.508639057588427423e+00
2.508639057588427423e+00
2.517451826532791870e+00
2.517451826532791870e+00
2.517451826532791870e+00
2.534889858699301168e+00
2.534889858699301168e+00
2.534889858699301168e+00
2.534889858699301168e+00
2.551390362254707167e+00
2.551390362254707167e+00
2.551390362254707167e+00
2.530952238532670151e+00
2.530952238532670151e+00
2.530952238532670151e+00
2.530952238532670151e+00
2.501701345866268245e+00
2.501701345866268245e+00
2.501701345866268245e+00
2.482200750755333196e+00
2.482200750755333196e+00
2.482200750755333196e+00
2.482013245033112270e+00
2.482013245033112270e+00
2.482013245033112270e+00
2.482013245033112270e+00
2.491951048310800498e+00
2.491951048310800498e+00
2.491951048310800498e+00
2.488013428144169481e+00
2.488013428144169481e+00
2.488013428144169481e+00
2.488013428144169481e+00
2.449762260811182202e+00
2.449762260811182202e+00
2.449762260811182202e+00
2.449574755088961275e+00
2.449574755088961275e+00
2.449574755088961275e+00
2.449574755088961275e+00
2.465700247199926753e+00
2.465700247199926753e+00
2.465700247199926753e+00
2.489138462477492819e+00
2.489138462477492819e+00
2.489138462477492819e+00
2.518201849421674243e+00
2.518201849421674243e+00
2.518201849421674243e+00
2.518201849421674243e+00
2.540515030365916971e+00
2.540515030365916971e+00
2.540515030365916971e+00
2.536389904477065471e+00
2.536389904477065471e+00
2.536389904477065471e+00
2.536389904477065471e+00
2.537139927365947845e+00
2.537139927365947845e+00
2.537139927365947845e+00
2.498513748588519157e+00
2.498513748588519157e+00
2.498513748588519157e+00
2.466637775811029609e+00
2.466637775811029609e+00
2.466637775811029609e+00
2.466637775811029609e+00
2.440949491866817311e+00
2.440949491866817311e+00
2.440949491866817311e+00
2.449012237922299828e+00
2.449012237922299828e+00
2.449012237922299828e+00
2.449012237922299828e+00
2.466637775811029609e+00
2.466637775811029609e+00
2.466637775811029609e+00
2.432699240089114312e+00
2.432699240089114312e+00
2.432699240089114312e+00
2.423511459700308013e+00
2.423511459700308013e+00
2.423511459700308013e+00
2.423511459700308013e+00
2.454637409588916075e+00
2.454637409588916075e+00
2.454637409588916075e+00
2.476575579088717394e+00
2.476575579088717394e+00
2.476575579088717394e+00
2.476575579088717394e+00
2.511076631977294138e+00
2.511076631977294138e+00
2.511076631977294138e+00
2.543890133365886541e+00
2.543890133365886541e+00
2.543890133365886541e+00
2.543890133365886541e+00
2.555702993865779593e+00
2.555702993865779593e+00
2.555702993865779593e+00
2.571265968810083624e+00
2.571265968810083624e+00
2.571265968810083624e+00
2.568640888698995983e+00
2.568640888698995983e+00
2.568640888698995983e+00
2.568640888698995983e+00
2.515951780755027567e+00
2.515951780755027567e+00
2.515951780755027567e+00
2.486325876644184696e+00
2.486325876644184696e+00
2.486325876644184696e+00
2.486325876644184696e+00
2.446574663533433114e+00
2.446574663533433114e+00
2.446574663533433114e+00
2.443012054811243061e+00
2.443012054811243061e+00
2.443012054811243061e+00
2.443012054811243061e+00
2.459700064088869986e+00
2.459700064088869986e+00
2.459700064088869986e+00
2.458950041199987613e+00
2.458950041199987613e+00
2.458950041199987613e+00
2.458950041199987613e+00
2.458950041199987613e+00
2.458950041199987613e+00
2.458950041199987613e+00
2.465700247199926753e+00
2.465700247199926753e+00
2.465700247199926753e+00
2.475263039033173573e+00
2.475263039033173573e+00
2.475263039033173573e+00
2.475263039033173573e+00
2.474700521866512126e+00
2.474700521866512126e+00
2.474700521866512126e+00
2.501326334421826836e+00
2.501326334421826836e+00
2.501326334421826836e+00
2.501326334421826836e+00
2.497576219977416301e+00
2.497576219977416301e+00
2.497576219977416301e+00
2.527389629810480098e+00
2.527389629810480098e+00
2.527389629810480098e+00
2.543702627643666059e+00
2.543702627643666059e+00
2.543702627643666059e+00
2.543702627643666059e+00
2.522139469588305261e+00
2.522139469588305261e+00
2.522139469588305261e+00
2.479763176366466482e+00
2.479763176366466482e+00
2.479763176366466482e+00
2.479763176366466482e+00
2.449574755088961275e+00
2.449574755088961275e+00
2.449574755088961275e+00
2.471700430310983521e+00
2.471700430310983521e+00
2.471700430310983521e+00
2.486138370921964214e+00
2.486138370921964214e+00
2.486138370921964214e+00
2.486138370921964214e+00
2.459512558366649504e+00
2.459512558366649504e+00
2.459512558366649504e+00
2.457637501144443792e+00
2.457637501144443792e+00
2.457637501144443792e+00
2.457637501144443792e+00
2.459325052644428578e+00
2.459325052644428578e+00
2.459325052644428578e+00
2.484638325144199911e+00
2.484638325144199911e+00
2.484638325144199911e+00
2.484638325144199911e+00
2.528702169866023475e+00
2.528702169866023475e+00
2.528702169866023475e+00
2.531889767143772563e+00
2.531889767143772563e+00
2.531889767143772563e+00
2.524764549699392902e+00
2.524764549699392902e+00
2.524764549699392902e+00
2.524764549699392902e+00
2.551015350810266202e+00
2.551015350810266202e+00
2.551015350810266202e+00
2.506951506088442638e+00
2.506951506088442638e+00
2.506951506088442638e+00
2.506951506088442638e+00
2.467950315866573430e+00
2.467950315866573430e+00
2.467950315866573430e+00
2.439824457533493973e+00
2.439824457533493973e+00
2.439824457533493973e+00
2.448262215033417899e+00
2.448262215033417899e+00
2.448262215033417899e+00
2.448262215033417899e+00
2.488013428144169481e+00
2.488013428144169481e+00
2.488013428144169481e+00
2.481075716422009858e+00
2.481075716422009858e+00
2.481075716422009858e+00
2.481075716422009858e+00
2.483888302255317981e+00
2.483888302255317981e+00
2.483888302255317981e+00
2.489700979644154266e+00
2.489700979644154266e+00
2.489700979644154266e+00
2.476575579088717394e+00
2.476575579088717394e+00
2.476575579088717394e+00
2.476575579088717394e+00
2.484263313699758946e+00
2.484263313699758946e+00
2.484263313699758946e+00
2.509576586199530279e+00
2.509576586199530279e+00
2.509576586199530279e+00
2.529077181310464884e+00
2.529077181310464884e+00
2.529077181310464884e+00
2.529077181310464884e+00
2.523452009643849081e+00
2.523452009643849081e+00
2.523452009643849081e+00
2.538827478865932186e+00
2.538827478865932186e+00
2.538827478865932186e+00
2.538827478865932186e+00
2.514264229255043226e+00
2.514264229255043226e+00
2.514264229255043226e+00
2.479013153477584552e+00
2.479013153477584552e+00
2.479013153477584552e+00
2.481075716422009858e+00
2.481075716422009858e+00
2.481075716422009858e+00
2.481075716422009858e+00
2.458387524033326166e+00
2.458387524033326166e+00
2.458387524033326166e+00
2.456887478255561863e+00
2.456887478255561863e+00
2.456887478255561863e+00
2.456887478255561863e+00
2.468700338755454915e+00
2.468700338755454915e+00
2.468700338755454915e+00
2.457262489700002828e+00
2.457262489700002828e+00
2.457262489700002828e+00
2.458387524033326166e+00
2.458387524033326166e+00
2.458387524033326166e+00
2.458387524033326166e+00
2.475825556199835464e+00
2.475825556199835464e+00
2.475825556199835464e+00
2.492701071199682428e+00
2.492701071199682428e+00
2.492701071199682428e+00
2.492701071199682428e+00
2.521764458143864296e+00
2.521764458143864296e+00
2.521764458143864296e+00
2.535264870143742133e+00
2.535264870143742133e+00
2.535264870143742133e+00
2.535264870143742133e+00
2.540140018921475562e+00
2.540140018921475562e+00
2.540140018921475562e+00
2.546702719199194664e+00
2.546702719199194664e+00
2.546702719199194664e+00
2.521951963866084778e+00
2.521951963866084778e+00
2.521951963866084778e+00
2.521951963866084778e+00
2.504513931699575480e+00
2.504513931699575480e+00
2.504513931699575480e+00
2.503576403088473068e+00
2.503576403088473068e+00
2.503576403088473068e+00
2.503576403088473068e+00
2.478450636310922661e+00
2.478450636310922661e+00
2.478450636310922661e+00
2.463262672811060039e+00
2.463262672811060039e+00
2.463262672811060039e+00
2.448262215033417899e+00
2.448262215033417899e+00
2.448262215033417899e+00
2.448262215033417899e+00
2.422948942533646566e+00
2.422948942533646566e+00
2.422948942533646566e+00
2.421448896755882263e+00
2.421448896755882263e+00
2.421448896755882263e+00
2.421448896755882263e+00
2.428386608478041886e+00
2.428386608478041886e+00
2.428386608478041886e+00
2.472825464644306859e+00
2.472825464644306859e+00
2.472825464644306859e+00
2.472825464644306859e+00
2.516326792199468976e+00
2.516326792199468976e+00
2.516326792199468976e+00
2.547265236365856111e+00
2.547265236365856111e+00
2.547265236365856111e+00
2.590766563921018228e+00
2.590766563921018228e+00
2.590766563921018228e+00
2.590766563921018228e+00
2.566953337199011198e+00
2.566953337199011198e+00
2.566953337199011198e+00
2.542015076143681274e+00
2.542015076143681274e+00
2.542015076143681274e+00
2.542015076143681274e+00
2.514076723532822744e+00
2.514076723532822744e+00
2.514076723532822744e+00
2.472450453199865894e+00
2.472450453199865894e+00
2.472450453199865894e+00
2.452199835200048916e+00
2.452199835200048916e+00
2.452199835200048916e+00
2.452199835200048916e+00
2.449012237922299828e+00
2.449012237922299828e+00
2.449012237922299828e+00
2.444512100589007364e+00
2.444512100589007364e+00
2.444512100589007364e+00
2.444512100589007364e+00
2.437386883144627259e+00
2.437386883144627259e+00
2.437386883144627259e+00
2.441136997589037794e+00
2.441136997589037794e+00
2.441136997589037794e+00
2.456699972533341381e+00
2.456699972533341381e+00
2.456699972533341381e+00
2.456699972533341381e+00
2.509389080477309353e+00
2.509389080477309353e+00
2.509389080477309353e+00
2.570140934476760286e+00
2.570140934476760286e+00
2.570140934476760286e+00
2.570140934476760286e+00
2.586266426587725320e+00
2.586266426587725320e+00
2.586266426587725320e+00
2.570328440198980768e+00
2.570328440198980768e+00
2.570328440198980768e+00
2.570328440198980768e+00
2.536202398754844989e+00
2.536202398754844989e+00
2.536202398754844989e+00
2.465325235755485789e+00
2.465325235755485789e+00
2.465325235755485789e+00
2.446387157811212187e+00
2.446387157811212187e+00
2.446387157811212187e+00
2.446387157811212187e+00
2.455199926755577522e+00
2.455199926755577522e+00
2.455199926755577522e+00
2.468325327311013950e+00
2.468325327311013950e+00
2.468325327311013950e+00
2.468325327311013950e+00
2.455949949644459451e+00
2.455949949644459451e+00
2.455949949644459451e+00
2.433449262977995797e+00
2.433449262977995797e+00
2.433449262977995797e+00
2.426511551255836618e+00
2.426511551255836618e+00
2.426511551255836618e+00
2.426511551255836618e+00
2.405323404644917229e+00
2.405323404644917229e+00
2.405323404644917229e+00
2.431386700033570492e+00
2.431386700033570492e+00
2.431386700033570492e+00
2.431386700033570492e+00
2.483513290810876573e+00
2.483513290810876573e+00
2.483513290810876573e+00
2.533014801477095901e+00
2.533014801477095901e+00
2.533014801477095901e+00
2.565640797143467378e+00
2.565640797143467378e+00
2.565640797143467378e+00
2.565640797143467378e+00
2.575203588976714197e+00
2.575203588976714197e+00
2.575203588976714197e+00
2.543515121921445576e+00
2.543515121921445576e+00
2.543515121921445576e+00
2.543515121921445576e+00
2.530764732810449669e+00
2.530764732810449669e+00
2.530764732810449669e+00
2.521951963866084778e+00
2.521951963866084778e+00
2.521951963866084778e+00
2.521951963866084778e+00
2.494763634144108178e+00
2.494763634144108178e+00
2.494763634144108178e+00
2.480138187810907002e+00
2.480138187810907002e+00
2.480138187810907002e+00
2.470950407422101591e+00
2.470950407422101591e+00
2.470950407422101591e+00
2.470950407422101591e+00
2.472825464644306859e+00
2.472825464644306859e+00
2.472825464644306859e+00
2.458575029755546648e+00
2.458575029755546648e+00
2.458575029755546648e+00
2.458575029755546648e+00
2.455199926755577522e+00
2.455199926755577522e+00
2.455199926755577522e+00
2.476013061922055947e+00
2.476013061922055947e+00
2.476013061922055947e+00
2.475825556199835464e+00
2.475825556199835464e+00
2.475825556199835464e+00
2.475825556199835464e+00
2.500201300088503942e+00
2.500201300088503942e+00
2.500201300088503942e+00
2.539202490310373150e+00
2.539202490310373150e+00
2.539202490310373150e+00
2.539202490310373150e+00
2.530389721366008260e+00
2.530389721366008260e+00
2.530389721366008260e+00
2.520264412366099993e+00
2.520264412366099993e+00
2.520264412366099993e+00
2.520264412366099993e+00
2.520451918088320475e+00
2.520451918088320475e+00
2.520451918088320475e+00
2.478450636310922661e+00
2.478450636310922661e+00
2.478450636310922661e+00
2.460450086977751916e+00
2.460450086977751916e+00
2.460450086977751916e+00
2.460450086977751916e+00
2.454074892422254184e+00
2.454074892422254184e+00
2.454074892422254184e+00
2.455199926755577522e+00
2.455199926755577522e+00
2.455199926755577522e+00
2.476950590533158358e+00
2.476950590533158358e+00
2.476950590533158358e+00
2.476950590533158358e+00
2.448262215033417899e+00
2.448262215033417899e+00
2.448262215033417899e+00
2.457449995422223310e+00
2.457449995422223310e+00
2.457449995422223310e+00
2.533952330088198757e+00
2.533952330088198757e+00
2.533952330088198757e+00
2.533952330088198757e+00
2.538264961699270739e+00
2.538264961699270739e+00
2.538264961699270739e+00
2.527014618366038690e+00
2.527014618366038690e+00
2.527014618366038690e+00
2.527014618366038690e+00
2.541265053254798900e+00
2.541265053254798900e+00
2.541265053254798900e+00
2.551390362254707167e+00
2.551390362254707167e+00
2.551390362254707167e+00
2.551390362254707167e+00
2.518201849421674243e+00
2.518201849421674243e+00
2.518201849421674243e+00
2.495888668477431516e+00
2.495888668477431516e+00
2.495888668477431516e+00
2.467387798699911539e+00
2.467387798699911539e+00
2.467387798699911539e+00
2.467387798699911539e+00
2.464200201422162451e+00
2.464200201422162451e+00
2.464200201422162451e+00
2.485575853755302767e+00
2.485575853755302767e+00
2.485575853755302767e+00
2.485575853755302767e+00
2.461200109866634289e+00
2.461200109866634289e+00
2.461200109866634289e+00
2.443199560533463544e+00
2.443199560533463544e+00
2.443199560533463544e+00
2.440199468977935382e+00
2.440199468977935382e+00
2.440199468977935382e+00
2.440199468977935382e+00
2.482950773644215126e+00
2.482950773644215126e+00
2.482950773644215126e+00
2.484638325144199911e+00
2.484638325144199911e+00
2.484638325144199911e+00
2.484638325144199911e+00
2.494576128421887695e+00
2.494576128421887695e+00
2.494576128421887695e+00
2.525327066866054349e+00
2.525327066866054349e+00
2.525327066866054349e+00
2.525327066866054349e+00
2.573328531754509374e+00
2.573328531754509374e+00
2.573328531754509374e+00
2.545952696310312291e+00
2.545952696310312291e+00
2.545952696310312291e+00
2.515764275032807085e+00
2.515764275032807085e+00
2.515764275032807085e+00
2.515764275032807085e+00
2.475450544755394056e+00
2.475450544755394056e+00
2.475450544755394056e+00
2.479950682088686964e+00
2.479950682088686964e+00
2.479950682088686964e+00
2.479950682088686964e+00
2.524952055421613384e+00
2.524952055421613384e+00
2.524952055421613384e+00
2.533202307199316383e+00
2.533202307199316383e+00
2.533202307199316383e+00
2.504888943144016888e+00
2.504888943144016888e+00
2.504888943144016888e+00
2.504888943144016888e+00
2.462137638477736701e+00
2.462137638477736701e+00
2.462137638477736701e+00
2.398385692922757606e+00
2.398385692922757606e+00
2.398385692922757606e+00
2.398385692922757606e+00
2.477325601977599767e+00
2.477325601977599767e+00
2.477325601977599767e+00
2.524014526810510528e+00
2.524014526810510528e+00
2.524014526810510528e+00
2.502451368755150174e+00
2.502451368755150174e+00
2.502451368755150174e+00
2.502451368755150174e+00
2.486888393810846587e+00
2.486888393810846587e+00
2.486888393810846587e+00
2.489325968199713301e+00
2.489325968199713301e+00
2.489325968199713301e+00
2.489325968199713301e+00
2.469450361644337288e+00
2.469450361644337288e+00
2.469450361644337288e+00
2.453324869533372254e+00
2.453324869533372254e+00
2.453324869533372254e+00
2.462325144199957183e+00
2.462325144199957183e+00
2.462325144199957183e+00
2.462325144199957183e+00
2.496451185644092963e+00
2.496451185644092963e+00
2.496451185644092963e+00
2.494951139866329104e+00
2.494951139866329104e+00
2.494951139866329104e+00
2.494951139866329104e+00
2.491388531144139051e+00
2.491388531144139051e+00
2.491388531144139051e+00
2.501138828699606353e+00
2.501138828699606353e+00
2.501138828699606353e+00
2.520826929532761884e+00
2.520826929532761884e+00
2.520826929532761884e+00
2.520826929532761884e+00
2.517826837977233279e+00
2.517826837977233279e+00
2.517826837977233279e+00
2.546515213476973738e+00
2.546515213476973738e+00
2.546515213476973738e+00
2.546515213476973738e+00
2.568640888698995983e+00
2.568640888698995983e+00
2.568640888698995983e+00
2.501326334421826836e+00
2.501326334421826836e+00
2.501326334421826836e+00
2.479013153477584552e+00
2.479013153477584552e+00
2.479013153477584552e+00
2.479013153477584552e+00
2.476200567644276429e+00
2.476200567644276429e+00
2.476200567644276429e+00
2.483888302255317981e+00
2.483888302255317981e+00
2.483888302255317981e+00
2.483888302255317981e+00
2.475075533310953091e+00
2.475075533310953091e+00
2.475075533310953091e+00
2.454637409588916075e+00
2.454637409588916075e+00
2.454637409588916075e+00
2.465137730033265306e+00
2.465137730033265306e+00
2.465137730033265306e+00
2.465137730033265306e+00
2.491951048310800498e+00
2.491951048310800498e+00
2.491951048310800498e+00
2.468137821588793912e+00
2.468137821588793912e+00
2.468137821588793912e+00
2.468137821588793912e+00
2.452949858088931290e+00
2.452949858088931290e+00
2.452949858088931290e+00
2.404573381756035300e+00
2.404573381756035300e+00
2.404573381756035300e+00
2.404573381756035300e+00
2.382260200811792572e+00
2.382260200811792572e+00
2.382260200811792572e+00
2.492326059755241463e+00
2.492326059755241463e+00
2.492326059755241463e+00
2.580453749198889035e+00
2.580453749198889035e+00
2.580453749198889035e+00
2.580453749198889035e+00
2.558515579699087716e+00
2.558515579699087716e+00
2.558515579699087716e+00
2.583078829309976676e+00
2.583078829309976676e+00
2.583078829309976676e+00
2.583078829309976676e+00
2.585703909421063873e+00
2.585703909421063873e+00
2.585703909421063873e+00
2.545577684865871326e+00
2.545577684865871326e+00
2.545577684865871326e+00
2.490451002533036640e+00
2.490451002533036640e+00
2.490451002533036640e+00
2.490451002533036640e+00
2.434761803033539618e+00
2.434761803033539618e+00
2.434761803033539618e+00
2.432136722922452865e+00
2.432136722922452865e+00
2.432136722922452865e+00
2.432136722922452865e+00
2.433074251533554833e+00
2.433074251533554833e+00
2.433074251533554833e+00
2.432324228644673347e+00
2.432324228644673347e+00
2.432324228644673347e+00
2.486138370921964214e+00
2.486138370921964214e+00
2.486138370921964214e+00
2.486138370921964214e+00
2.501513840144047762e+00
2.501513840144047762e+00
2.501513840144047762e+00
2.521576952421643814e+00
2.521576952421643814e+00
2.521576952421643814e+00
2.521576952421643814e+00
2.549140293588061379e+00
2.549140293588061379e+00
2.549140293588061379e+00
2.539389996032593633e+00
2.539389996032593633e+00
2.539389996032593633e+00
2.549890316476943308e+00
2.549890316476943308e+00
2.549890316476943308e+00
2.549890316476943308e+00
2.554765465254677181e+00
2.554765465254677181e+00
2.554765465254677181e+00
2.549702810754722826e+00
2.549702810754722826e+00
2.549702810754722826e+00
2.549702810754722826e+00
2.538264961699270739e+00
2.538264961699270739e+00
2.538264961699270739e+00
2.520076906643879511e+00
2.520076906643879511e+00
2.520076906643879511e+00
2.520076906643879511e+00
2.512014160588396994e+00
2.512014160588396994e+00
2.512014160588396994e+00
2.467012787255470574e+00
2.467012787255470574e+00
2.467012787255470574e+00
2.345134067812128187e+00
2.345134067812128187e+00
2.345134067812128187e+00
2.345134067812128187e+00
2.339321390423291458e+00
2.339321390423291458e+00
2.339321390423291458e+00
2.389197912533951751e+00
2.389197912533951751e+00
2.389197912533951751e+00
2.471887936033204003e+00
2.471887936033204003e+00
2.471887936033204003e+00
2.471887936033204003e+00
2.510514114810632691e+00
2.510514114810632691e+00
2.510514114810632691e+00
2.551202856532486685e+00
2.551202856532486685e+00
2.551202856532486685e+00
2.551202856532486685e+00
2.598079287087618372e+00
2.598079287087618372e+00
2.598079287087618372e+00
2.588141483809930588e+00
2.588141483809930588e+00
2.588141483809930588e+00
2.517639332255012796e+00
2.517639332255012796e+00
2.517639332255012796e+00
2.517639332255012796e+00
2.477513107699820250e+00
2.477513107699820250e+00
2.477513107699820250e+00
2.438699423200171079e+00
2.438699423200171079e+00
2.438699423200171079e+00
2.438699423200171079e+00
2.417511276589251690e+00
2.417511276589251690e+00
2.417511276589251690e+00
2.438324411755729670e+00
2.438324411755729670e+00
2.438324411755729670e+00
2.465887752922147680e+00
2.465887752922147680e+00
2.465887752922147680e+00
2.465887752922147680e+00
2.461012604144413807e+00
2.461012604144413807e+00
2.461012604144413807e+00
2.500201300088503942e+00
2.500201300088503942e+00
2.500201300088503942e+00
2.500201300088503942e+00
2.515764275032807085e+00
2.515764275032807085e+00
2.515764275032807085e+00
2.549140293588061379e+00
2.549140293588061379e+00
2.549140293588061379e+00
2.564328257087923557e+00
2.564328257087923557e+00
2.564328257087923557e+00
2.564328257087923557e+00
2.541265053254798900e+00
2.541265053254798900e+00
2.541265053254798900e+00
2.512951689199499850e+00
2.512951689199499850e+00
2.512951689199499850e+00
2.512951689199499850e+00
2.512576677755058441e+00
2.512576677755058441e+00
2.512576677755058441e+00
2.464950224311044824e+00
2.464950224311044824e+00
2.464950224311044824e+00
2.464950224311044824e+00
2.458575029755546648e+00
2.458575029755546648e+00
2.458575029755546648e+00
2.445262123477889293e+00
2.445262123477889293e+00
2.445262123477889293e+00
2.413011139255958781e+00
2.413011139255958781e+00
2.413011139255958781e+00
2.413011139255958781e+00
2.416761253700369316e+00
2.416761253700369316e+00
2.416761253700369316e+00
2.494951139866329104e+00
2.494951139866329104e+00
2.494951139866329104e+00
2.494951139866329104e+00
2.526264595477157204e+00
2.526264595477157204e+00
2.526264595477157204e+00
2.527764641254921063e+00
2.527764641254921063e+00
2.527764641254921063e+00
2.493638599810785283e+00
2.493638599810785283e+00
2.493638599810785283e+00
2.493638599810785283e+00
2.481075716422009858e+00
2.481075716422009858e+00
2.481075716422009858e+00
2.565265785699026413e+00
2.565265785699026413e+00
2.565265785699026413e+00
2.565265785699026413e+00
2.573516037476729856e+00
2.573516037476729856e+00
2.573516037476729856e+00
2.506201483199560265e+00
2.506201483199560265e+00
2.506201483199560265e+00
2.506201483199560265e+00
2.458950041199987613e+00
2.458950041199987613e+00
2.458950041199987613e+00
2.475825556199835464e+00
2.475825556199835464e+00
2.475825556199835464e+00
2.449012237922299828e+00
2.449012237922299828e+00
2.449012237922299828e+00
2.449012237922299828e+00
2.448074709311197417e+00
2.448074709311197417e+00
2.448074709311197417e+00
2.515201757866145638e+00
2.515201757866145638e+00
2.515201757866145638e+00
2.515201757866145638e+00
2.530577227088229186e+00
2.530577227088229186e+00
2.530577227088229186e+00
2.497763725699636783e+00
2.497763725699636783e+00
2.497763725699636783e+00
2.472450453199865894e+00
2.472450453199865894e+00
2.472450453199865894e+00
2.472450453199865894e+00
2.515014252143925599e+00
2.515014252143925599e+00
2.515014252143925599e+00
2.465137730033265306e+00
2.465137730033265306e+00
2.465137730033265306e+00
2.465137730033265306e+00
2.457262489700002828e+00
2.457262489700002828e+00
2.457262489700002828e+00
2.521951963866084778e+00
2.521951963866084778e+00
2.521951963866084778e+00
2.522326975310525743e+00
2.522326975310525743e+00
2.522326975310525743e+00
2.522326975310525743e+00
2.499638782921842051e+00
2.499638782921842051e+00
2.499638782921842051e+00
2.503951414532914033e+00
2.503951414532914033e+00
2.503951414532914033e+00
2.503951414532914033e+00
2.480325693533127485e+00
2.480325693533127485e+00
2.480325693533127485e+00
2.490451002533036640e+00
2.490451002533036640e+00
2.490451002533036640e+00
2.539952513199255080e+00
2.539952513199255080e+00
2.539952513199255080e+00
2.539952513199255080e+00
2.502451368755150174e+00
2.502451368755150174e+00
2.502451368755150174e+00
2.495513657032990551e+00
2.495513657032990551e+00
2.495513657032990551e+00
2.495513657032990551e+00
2.461012604144413807e+00
2.461012604144413807e+00
2.461012604144413807e+00
2.473387981810968306e+00
2.473387981810968306e+00
2.473387981810968306e+00
2.456887478255561863e+00
2.456887478255561863e+00
2.456887478255561863e+00
2.456887478255561863e+00
2.447512192144535526e+00
2.447512192144535526e+00
2.447512192144535526e+00
2.428011597033600921e+00
2.428011597033600921e+00
2.428011597033600921e+00
2.428011597033600921e+00
2.466637775811029609e+00
2.466637775811029609e+00
2.466637775811029609e+00
2.555327982421338628e+00
2.555327982421338628e+00
2.555327982421338628e+00
2.593391644032105425e+00
2.593391644032105425e+00
2.593391644032105425e+00
2.593391644032105425e+00
2.562828211310159254e+00
2.562828211310159254e+00
2.562828211310159254e+00
2.534889858699301168e+00
2.534889858699301168e+00
2.534889858699301168e+00
2.534889858699301168e+00
2.477138096255378841e+00
2.477138096255378841e+00
2.477138096255378841e+00
2.456887478255561863e+00
2.456887478255561863e+00
2.456887478255561863e+00
2.456887478255561863e+00
2.455574938200018487e+00
2.455574938200018487e+00
2.455574938200018487e+00
2.488200933866389963e+00
2.488200933866389963e+00
2.488200933866389963e+00
2.501888851588488727e+00
2.501888851588488727e+00
2.501888851588488727e+00
2.501888851588488727e+00
2.530202215643787778e+00
2.530202215643787778e+00
2.530202215643787778e+00
2.452387340922269399e+00
2.452387340922269399e+00
2.452387340922269399e+00
2.452387340922269399e+00
2.446762169255653596e+00
2.446762169255653596e+00
2.446762169255653596e+00
2.492138554033020981e+00
2.492138554033020981e+00
2.492138554033020981e+00
2.500951322977385871e+00
2.500951322977385871e+00
2.500951322977385871e+00
2.500951322977385871e+00
2.499826288644062977e+00
2.499826288644062977e+00
2.499826288644062977e+00
2.513326700643940814e+00
2.513326700643940814e+00
2.513326700643940814e+00
2.513326700643940814e+00
2.507701528977324568e+00
2.507701528977324568e+00
2.507701528977324568e+00
2.496826197088534371e+00
2.496826197088534371e+00
2.496826197088534371e+00
2.496826197088534371e+00
2.464012695699941968e+00
2.464012695699941968e+00
2.464012695699941968e+00
2.455199926755577522e+00
2.455199926755577522e+00
2.455199926755577522e+00
2.489513473921933784e+00
2.489513473921933784e+00
2.489513473921933784e+00
2.489513473921933784e+00
2.501513840144047762e+00
2.501513840144047762e+00
2.501513840144047762e+00
2.524952055421613384e+00
2.524952055421613384e+00
2.524952055421613384e+00
2.489888485366374749e+00
2.489888485366374749e+00
2.489888485366374749e+00
2.489888485366374749e+00
2.491951048310800498e+00
2.491951048310800498e+00
2.491951048310800498e+00
2.457637501144443792e+00
2.457637501144443792e+00
2.457637501144443792e+00
2.457637501144443792e+00
2.444512100589007364e+00
2.444512100589007364e+00
2.444512100589007364e+00
2.512951689199499850e+00
2.512951689199499850e+00
2.512951689199499850e+00
2.561328165532395840e+00
2.561328165532395840e+00
2.561328165532395840e+00
2.561328165532395840e+00
2.531889767143772563e+00
2.531889767143772563e+00
2.531889767143772563e+00
2.483325785088656090e+00
2.483325785088656090e+00
2.483325785088656090e+00
2.483325785088656090e+00
2.516701803643909940e+00
2.516701803643909940e+00
2.516701803643909940e+00
2.519514389477218064e+00
2.519514389477218064e+00
2.519514389477218064e+00
2.452387340922269399e+00
2.452387340922269399e+00
2.452387340922269399e+00
2.452387340922269399e+00
2.438136906033509188e+00
2.438136906033509188e+00
2.438136906033509188e+00
2.459700064088869986e+00
2.459700064088869986e+00
2.459700064088869986e+00
2.459700064088869986e+00
2.479200659199805035e+00
2.479200659199805035e+00
2.479200659199805035e+00
2.483138279366435608e+00
2.483138279366435608e+00
2.483138279366435608e+00
2.464387707144383377e+00
2.464387707144383377e+00
2.464387707144383377e+00
2.464387707144383377e+00
2.465512741477706271e+00
2.465512741477706271e+00
2.465512741477706271e+00
2.557953062532425825e+00
2.557953062532425825e+00
2.557953062532425825e+00
2.557953062532425825e+00
2.594704184087649246e+00
2.594704184087649246e+00
2.594704184087649246e+00
2.583453840754417641e+00
2.583453840754417641e+00
2.583453840754417641e+00
2.583453840754417641e+00
2.509576586199530279e+00
2.509576586199530279e+00
2.509576586199530279e+00
2.431761711478011456e+00
2.431761711478011456e+00
2.431761711478011456e+00
2.413761162144840711e+00
2.413761162144840711e+00
2.413761162144840711e+00
2.413761162144840711e+00
2.422386425366985119e+00
2.422386425366985119e+00
2.422386425366985119e+00
2.407198461867122496e+00
2.407198461867122496e+00
2.407198461867122496e+00
2.407198461867122496e+00
2.478825647755364070e+00
2.478825647755364070e+00
2.478825647755364070e+00
2.516889309366130423e+00
2.516889309366130423e+00
2.516889309366130423e+00
2.542202581865901756e+00
2.542202581865901756e+00
2.542202581865901756e+00
2.542202581865901756e+00
2.547265236365856111e+00
2.547265236365856111e+00
2.547265236365856111e+00
2.557765556810205343e+00
2.557765556810205343e+00
2.557765556810205343e+00
2.557765556810205343e+00
2.551952879421369058e+00
2.551952879421369058e+00
2.551952879421369058e+00
2.542202581865901756e+00
2.542202581865901756e+00
2.542202581865901756e+00
2.551952879421369058e+00
2.551952879421369058e+00
2.551952879421369058e+00
2.551952879421369058e+00
2.547640247810297076e+00
2.547640247810297076e+00
2.547640247810297076e+00
2.517076815088350905e+00
2.517076815088350905e+00
2.517076815088350905e+00
2.517076815088350905e+00
2.476763084810937876e+00
2.476763084810937876e+00
2.476763084810937876e+00
2.481075716422009858e+00
2.481075716422009858e+00
2.481075716422009858e+00
2.481075716422009858e+00
2.469075350199895880e+00
2.469075350199895880e+00
2.469075350199895880e+00
2.401198278756065729e+00
2.401198278756065729e+00
2.401198278756065729e+00
2.437199377422406776e+00
2.437199377422406776e+00
2.437199377422406776e+00
2.437199377422406776e+00
2.451637318033387469e+00
2.451637318033387469e+00
2.451637318033387469e+00
2.454262398144474666e+00
2.454262398144474666e+00
2.454262398144474666e+00
2.484825830866420393e+00
2.484825830866420393e+00
2.484825830866420393e+00
2.484825830866420393e+00
2.511451643421735547e+00
2.511451643421735547e+00
2.511451643421735547e+00
2.544827661976988953e+00
2.544827661976988953e+00
2.544827661976988953e+00
2.544827661976988953e+00
2.482013245033112270e+00
2.482013245033112270e+00
2.482013245033112270e+00
2.439261940366832526e+00
2.439261940366832526e+00
2.439261940366832526e+00
2.526827112643818651e+00
2.526827112643818651e+00
2.526827112643818651e+00
2.526827112643818651e+00
2.548202764976958523e+00
2.548202764976958523e+00
2.548202764976958523e+00
2.529077181310464884e+00
2.529077181310464884e+00
2.529077181310464884e+00
2.529077181310464884e+00
2.534702352977080686e+00
2.534702352977080686e+00
2.534702352977080686e+00
2.540140018921475562e+00
2.540140018921475562e+00
2.540140018921475562e+00
2.540140018921475562e+00
2.537514938810388809e+00
2.537514938810388809e+00
2.537514938810388809e+00
2.500763817255165389e+00
2.500763817255165389e+00
2.500763817255165389e+00
2.438886928922391562e+00
2.438886928922391562e+00
2.438886928922391562e+00
2.438886928922391562e+00
2.480700704977568893e+00
2.480700704977568893e+00
2.480700704977568893e+00
2.405510910367137711e+00
2.405510910367137711e+00
2.405510910367137711e+00
2.405510910367137711e+00
2.381135166478469234e+00
2.381135166478469234e+00
2.381135166478469234e+00
2.385635303811762142e+00
2.385635303811762142e+00
2.385635303811762142e+00
2.460075075533310951e+00
2.460075075533310951e+00
2.460075075533310951e+00
2.460075075533310951e+00
2.527202124088259172e+00
2.527202124088259172e+00
2.527202124088259172e+00
2.595079195532090210e+00
2.595079195532090210e+00
2.595079195532090210e+00
2.595079195532090210e+00
2.544640156254768470e+00
2.544640156254768470e+00
2.544640156254768470e+00
2.478263130588702179e+00
2.478263130588702179e+00
2.478263130588702179e+00
2.463262672811060039e+00
2.463262672811060039e+00
2.463262672811060039e+00
2.463262672811060039e+00
2.495701162755211033e+00
2.495701162755211033e+00
2.495701162755211033e+00
2.513326700643940814e+00
2.513326700643940814e+00
2.513326700643940814e+00
2.513326700643940814e+00
2.534702352977080686e+00
2.534702352977080686e+00
2.534702352977080686e+00
2.497013702810754854e+00
2.497013702810754854e+00
2.497013702810754854e+00
2.476763084810937876e+00
2.476763084810937876e+00
2.476763084810937876e+00
2.476763084810937876e+00
2.430449171422468080e+00
2.430449171422468080e+00
2.430449171422468080e+00
2.509014069032868388e+00
2.509014069032868388e+00
2.509014069032868388e+00
2.509014069032868388e+00
2.563390728476821145e+00
2.563390728476821145e+00
2.563390728476821145e+00
2.545765190588091809e+00
2.545765190588091809e+00
2.545765190588091809e+00
2.533389812921536866e+00
2.533389812921536866e+00
2.533389812921536866e+00
2.533389812921536866e+00
2.526264595477157204e+00
2.526264595477157204e+00
2.526264595477157204e+00
2.497763725699636783e+00
2.497763725699636783e+00
2.497763725699636783e+00
2.497763725699636783e+00
2.483138279366435608e+00
2.483138279366435608e+00
2.483138279366435608e+00
2.442262031922361132e+00
2.442262031922361132e+00
2.442262031922361132e+00
2.397635670033875677e+00
2.397635670033875677e+00
2.397635670033875677e+00
2.454074892422254184e+00
2.454074892422254184e+00
2.481638233588671305e+00
2.481638233588671305e+00
2.481638233588671305e+00
2.481638233588671305e+00
2.488013428144169481e+00
2.488013428144169481e+00
2.488013428144169481e+00
2.430261665700247153e+00
2.430261665700247153e+00
2.430261665700247153e+00
2.417136265144810281e+00
2.417136265144810281e+00
2.417136265144810281e+00
2.417136265144810281e+00
2.450324777977843649e+00
2.450324777977843649e+00
2.450324777977843649e+00
2.496451185644092963e+00
2.496451185644092963e+00
2.496451185644092963e+00
2.558703085421308199e+00
2.558703085421308199e+00
2.558703085421308199e+00
2.558703085421308199e+00
2.601641895809808869e+00
2.601641895809808869e+00
2.601641895809808869e+00
2.580828760643330444e+00
2.580828760643330444e+00
2.580828760643330444e+00
2.580828760643330444e+00
2.558890591143528681e+00
2.558890591143528681e+00
2.558890591143528681e+00
2.550265327921384717e+00
2.550265327921384717e+00
2.550265327921384717e+00
2.521389446699423331e+00
2.521389446699423331e+00
2.521389446699423331e+00
2.521389446699423331e+00
2.503576403088473068e+00
2.503576403088473068e+00
2.503576403088473068e+00
2.484825830866420393e+00
2.484825830866420393e+00
2.484825830866420393e+00
2.484825830866420393e+00
2.488388439588610446e+00
2.488388439588610446e+00
2.488388439588610446e+00
2.453699880977813219e+00
2.453699880977813219e+00
2.453699880977813219e+00
2.453699880977813219e+00
2.339696401867732423e+00
2.339696401867732423e+00
2.339696401867732423e+00
2.425949034089175171e+00
2.425949034089175171e+00
2.425949034089175171e+00
2.450699789422284613e+00
2.450699789422284613e+00
2.450699789422284613e+00
2.450699789422284613e+00
2.542202581865901756e+00
2.542202581865901756e+00
2.542202581865901756e+00
2.586453932309945802e+00
2.586453932309945802e+00
2.586453932309945802e+00
2.586453932309945802e+00
2.539952513199255080e+00
2.539952513199255080e+00
2.539952513199255080e+00
2.514451734977264152e+00
2.514451734977264152e+00
2.514451734977264152e+00
2.458387524033326166e+00
2.458387524033326166e+00
2.458387524033326166e+00
2.458387524033326166e+00
2.527577135532700581e+00
2.527577135532700581e+00
2.527577135532700581e+00
2.465137730033265306e+00
2.465137730033265306e+00
2.465137730033265306e+00
2.465137730033265306e+00
2.458012512588885201e+00
2.458012512588885201e+00
2.458012512588885201e+00
2.438136906033509188e+00
2.438136906033509188e+00
2.438136906033509188e+00
2.462887661366619074e+00
2.462887661366619074e+00
2.462887661366619074e+00
2.462887661366619074e+00
2.425011505478072316e+00
2.425011505478072316e+00
2.425011505478072316e+00
2.439449446089053009e+00
2.439449446089053009e+00
2.439449446089053009e+00
2.439449446089053009e+00
2.465137730033265306e+00
2.465137730033265306e+00
2.465137730033265306e+00
2.482388256477553679e+00
2.482388256477553679e+00
2.482388256477553679e+00
2.525889584032716240e+00
2.525889584032716240e+00
2.525889584032716240e+00
2.538077455977050256e+00
2.538077455977050256e+00
2.538077455977050256e+00
2.606892056031983707e+00
2.606892056031983707e+00
2.606892056031983707e+00
2.640268074587237113e+00
2.640268074587237113e+00
2.640268074587237113e+00
2.640268074587237113e+00
2.572578508865627445e+00
2.572578508865627445e+00
2.572578508865627445e+00
2.459700064088869986e+00
2.459700064088869986e+00
2.459700064088869986e+00
2.459700064088869986e+00
2.398573198644978088e+00
2.398573198644978088e+00
2.398573198644978088e+00
2.434011780144657688e+00
2.434011780144657688e+00
2.434011780144657688e+00
2.485200842310861358e+00
2.485200842310861358e+00
2.485200842310861358e+00
2.485200842310861358e+00
2.497951231421857266e+00
2.497951231421857266e+00
2.497951231421857266e+00
2.523264503921628599e+00
2.523264503921628599e+00
2.523264503921628599e+00
2.561140659810174913e+00
2.561140659810174913e+00
2.561140659810174913e+00
2.561140659810174913e+00
2.550265327921384717e+00
2.550265327921384717e+00
2.550265327921384717e+00
2.465700247199926753e+00
2.465700247199926753e+00
2.465700247199926753e+00
2.451824823755607952e+00
2.451824823755607952e+00
2.451824823755607952e+00
2.451824823755607952e+00
2.456512466811120898e+00
2.456512466811120898e+00
2.456512466811120898e+00
2.518014343699453761e+00
2.518014343699453761e+00
2.518014343699453761e+00
2.575203588976714197e+00
2.575203588976714197e+00
2.575203588976714197e+00
2.575203588976714197e+00
2.581953794976653338e+00
2.581953794976653338e+00
2.581953794976653338e+00
2.501138828699606353e+00
2.501138828699606353e+00
2.501138828699606353e+00
2.501138828699606353e+00
2.451262306588946061e+00
2.451262306588946061e+00
2.451262306588946061e+00
2.385072786645100695e+00
2.385072786645100695e+00
2.385072786645100695e+00
2.385072786645100695e+00
2.409073519089327764e+00
2.409073519089327764e+00
2.409073519089327764e+00
2.471325418866542556e+00
2.471325418866542556e+00
2.471325418866542556e+00
2.429324137089144742e+00
2.429324137089144742e+00
2.429324137089144742e+00
2.429324137089144742e+00
2.440386974700155864e+00
2.440386974700155864e+00
2.440386974700155864e+00
2.563015717032380181e+00
2.563015717032380181e+00
2.563015717032380181e+00
2.563015717032380181e+00
2.573328531754509374e+00
2.573328531754509374e+00
2.573328531754509374e+00
2.528702169866023475e+00
2.528702169866023475e+00
2.528702169866023475e+00
2.542577593310342721e+00
2.542577593310342721e+00
2.542577593310342721e+00
2.542577593310342721e+00
2.575203588976714197e+00
2.575203588976714197e+00
2.575203588976714197e+00
2.637267983031708951e+00
2.637267983031708951e+00
2.637267983031708951e+00
2.637267983031708951e+00
2.553640430921353843e+00
2.553640430921353843e+00
2.553640430921353843e+00
2.415823725089266905e+00
2.415823725089266905e+00
2.415823725089266905e+00
2.415823725089266905e+00
2.342508987701040546e+00
2.342508987701040546e+00
2.342508987701040546e+00
2.381510177922910199e+00
2.381510177922910199e+00
2.381510177922910199e+00
2.412636127811517817e+00
2.412636127811517817e+00
2.412636127811517817e+00
2.412636127811517817e+00
2.483325785088656090e+00
2.483325785088656090e+00
2.483325785088656090e+00
2.521389446699423331e+00
2.521389446699423331e+00
2.521389446699423331e+00
2.521389446699423331e+00
2.495513657032990551e+00
2.495513657032990551e+00
2.495513657032990551e+00
2.460637592699972398e+00
2.460637592699972398e+00
2.460637592699972398e+00
2.460637592699972398e+00
2.487075899533067069e+00
2.487075899533067069e+00
2.487075899533067069e+00
2.605954527420880851e+00
2.605954527420880851e+00
2.605954527420880851e+00
2.660143681142613126e+00
2.660143681142613126e+00
2.660143681142613126e+00
2.660143681142613126e+00
2.612142216254158100e+00
2.612142216254158100e+00
2.612142216254158100e+00
2.511826654866176511e+00
2.511826654866176511e+00
2.511826654866176511e+00
2.511826654866176511e+00
2.446012146366771223e+00
2.446012146366771223e+00
2.446012146366771223e+00
2.473575487533188788e+00
2.473575487533188788e+00
2.473575487533188788e+00
2.330321115756706529e+00
2.330321115756706529e+00
2.330321115756706529e+00
2.330321115756706529e+00
2.272569353312784202e+00
2.272569353312784202e+00
2.272569353312784202e+00
2.399135715811639535e+00
2.399135715811639535e+00
2.399135715811639535e+00
2.512389172032837958e+00
2.512389172032837958e+00
2.512389172032837958e+00
2.512389172032837958e+00
2.470762901699881109e+00
2.470762901699881109e+00
2.470762901699881109e+00
2.450887295144505096e+00
2.450887295144505096e+00
2.450887295144505096e+00
2.450887295144505096e+00
2.538452467421491221e+00
2.538452467421491221e+00
2.538452467421491221e+00
2.540702536088137453e+00
2.540702536088137453e+00
2.540702536088137453e+00
2.574266060365611786e+00
2.574266060365611786e+00
2.574266060365611786e+00
2.574266060365611786e+00
2.570328440198980768e+00
2.570328440198980768e+00
2.570328440198980768e+00
2.594516678365428763e+00
2.594516678365428763e+00
2.594516678365428763e+00
2.594516678365428763e+00
2.630517777031769810e+00
2.630517777031769810e+00
2.630517777031769810e+00
2.531514755699331598e+00
2.531514755699331598e+00
2.531514755699331598e+00
2.514826746421705117e+00
2.514826746421705117e+00
2.514826746421705117e+00
2.514826746421705117e+00
2.457825006866664719e+00
2.457825006866664719e+00
2.457825006866664719e+00
2.409073519089327764e+00
2.409073519089327764e+00
2.409073519089327764e+00
2.409073519089327764e+00
2.392010498367259874e+00
2.392010498367259874e+00
2.392010498367259874e+00
2.492701071199682428e+00
2.492701071199682428e+00
2.492701071199682428e+00
2.492701071199682428e+00
2.411323587755973996e+00
2.411323587755973996e+00
2.411323587755973996e+00
2.435699331644642474e+00
2.435699331644642474e+00
2.435699331644642474e+00
2.471700430310983521e+00
2.471700430310983521e+00
2.471700430310983521e+00
2.471700430310983521e+00
2.483513290810876573e+00
2.483513290810876573e+00
2.483513290810876573e+00
2.594891689809869728e+00
2.594891689809869728e+00
2.594891689809869728e+00
2.594891689809869728e+00
2.572766014587847927e+00
2.572766014587847927e+00
2.572766014587847927e+00
2.536764915921506436e+00
2.536764915921506436e+00
2.536764915921506436e+00
2.447887203588976490e+00
2.447887203588976490e+00
2.447887203588976490e+00
2.447887203588976490e+00
2.361822077089755112e+00
2.361822077089755112e+00
2.361822077089755112e+00
2.355446882534256936e+00
2.355446882534256936e+00
2.355446882534256936e+00
2.355446882534256936e+00
2.409823541978209693e+00
2.409823541978209693e+00
2.409823541978209693e+00
2.502638874477370656e+00
2.502638874477370656e+00
2.502638874477370656e+00
2.554202948088015290e+00
2.554202948088015290e+00
2.554202948088015290e+00
2.554202948088015290e+00
2.538077455977050256e+00
2.538077455977050256e+00
2.538077455977050256e+00
2.539765007477034597e+00
2.539765007477034597e+00
2.539765007477034597e+00
2.539765007477034597e+00
2.605392010254219404e+00
2.605392010254219404e+00
2.605392010254219404e+00
2.635205420087282757e+00
2.635205420087282757e+00
2.635205420087282757e+00
2.635205420087282757e+00
2.602016907254249833e+00
2.602016907254249833e+00
2.602016907254249833e+00
2.560953154087954431e+00
2.560953154087954431e+00
2.560953154087954431e+00
2.500951322977385871e+00
2.500951322977385871e+00
2.500951322977385871e+00
2.500951322977385871e+00
2.471325418866542556e+00
2.471325418866542556e+00
2.471325418866542556e+00
2.476200567644276429e+00
2.476200567644276429e+00
2.476200567644276429e+00
2.476200567644276429e+00
2.506388988921781191e+00
2.506388988921781191e+00
2.506388988921781191e+00
2.380197637867366822e+00
2.380197637867366822e+00
2.380197637867366822e+00
2.326008484145634547e+00
2.326008484145634547e+00
2.326008484145634547e+00
2.326008484145634547e+00
2.353384319589831186e+00
2.353384319589831186e+00
2.353384319589831186e+00
2.540327524643696488e+00
2.540327524643696488e+00
2.540327524643696488e+00
2.540327524643696488e+00
2.587766472365489623e+00
2.587766472365489623e+00
2.587766472365489623e+00
2.593579149754326352e+00
2.593579149754326352e+00
2.593579149754326352e+00
2.593579149754326352e+00
2.534514847254860204e+00
2.534514847254860204e+00
2.534514847254860204e+00
2.495513657032990551e+00
2.495513657032990551e+00
2.495513657032990551e+00
2.386760338145085036e+00
2.386760338145085036e+00
2.386760338145085036e+00
2.386760338145085036e+00
2.336696310312204705e+00
2.336696310312204705e+00
2.336696310312204705e+00
2.418823816644795066e+00
2.418823816644795066e+00
2.418823816644795066e+00
2.418823816644795066e+00
2.533389812921536866e+00
2.533389812921536866e+00
2.533389812921536866e+00
2.556453016754661967e+00
2.556453016754661967e+00
2.556453016754661967e+00
2.548577776421399932e+00
2.548577776421399932e+00
2.548577776421399932e+00
2.548577776421399932e+00
2.517451826532791870e+00
2.517451826532791870e+00
2.517451826532791870e+00
2.534702352977080686e+00
2.534702352977080686e+00
2.534702352977080686e+00
2.534702352977080686e+00
2.502826380199591139e+00
2.502826380199591139e+00
2.502826380199591139e+00
2.423511459700308013e+00
2.423511459700308013e+00
2.423511459700308013e+00
2.490826013977477604e+00
2.490826013977477604e+00
2.490826013977477604e+00
2.490826013977477604e+00
2.585703909421063873e+00
2.585703909421063873e+00
2.585703909421063873e+00
2.501701345866268245e+00
2.501701345866268245e+00
2.501701345866268245e+00
2.501701345866268245e+00
2.502638874477370656e+00
2.502638874477370656e+00
2.502638874477370656e+00
2.482763267921994643e+00
2.482763267921994643e+00
2.482763267921994643e+00
2.571640980254524589e+00
2.571640980254524589e+00
2.571640980254524589e+00
2.571640980254524589e+00
2.622830042420728258e+00
2.622830042420728258e+00
2.622830042420728258e+00
2.576891140476698983e+00
2.576891140476698983e+00
2.576891140476698983e+00
2.576891140476698983e+00
2.457825006866664719e+00
2.457825006866664719e+00
2.457825006866664719e+00
2.472450453199865894e+00
2.472450453199865894e+00
2.472450453199865894e+00
2.472450453199865894e+00
2.480513199255348411e+00
2.480513199255348411e+00
2.480513199255348411e+00
2.448074709311197417e+00
2.448074709311197417e+00
2.448074709311197417e+00
2.329758598590044638e+00
2.329758598590044638e+00
2.329758598590044638e+00
2.329758598590044638e+00
2.431386700033570492e+00
2.431386700033570492e+00
2.431386700033570492e+00
2.465137730033265306e+00
2.465137730033265306e+00
2.465137730033265306e+00
2.465137730033265306e+00
2.493826105533005766e+00
2.493826105533005766e+00
2.493826105533005766e+00
2.523639515366069563e+00
2.523639515366069563e+00
2.523639515366069563e+00
2.511826654866176511e+00
2.511826654866176511e+00
2.511826654866176511e+00
2.511826654866176511e+00
2.447137180700094561e+00
2.447137180700094561e+00
2.447137180700094561e+00
2.504138920255134515e+00
2.504138920255134515e+00
2.504138920255134515e+00
2.504138920255134515e+00
2.548952787865840897e+00
2.548952787865840897e+00
2.548952787865840897e+00
2.546140202032532773e+00
2.546140202032532773e+00
2.546140202032532773e+00
2.546140202032532773e+00
2.592454115421003014e+00
2.592454115421003014e+00
2.592454115421003014e+00
2.523452009643849081e+00
2.523452009643849081e+00
2.523452009643849081e+00
2.452012329477828434e+00
2.452012329477828434e+00
2.452012329477828434e+00
2.452012329477828434e+00
2.494013611255226248e+00
2.494013611255226248e+00
2.494013611255226248e+00
2.546327707754753256e+00
2.546327707754753256e+00
2.546327707754753256e+00
2.501138828699606353e+00
2.501138828699606353e+00
2.501138828699606353e+00
2.501138828699606353e+00
2.498513748588519157e+00
2.498513748588519157e+00
2.498513748588519157e+00
2.471512924588763038e+00
2.471512924588763038e+00
2.471512924588763038e+00
2.471512924588763038e+00
2.383947752311777357e+00
2.383947752311777357e+00
2.383947752311777357e+00
2.418073793755913137e+00
2.418073793755913137e+00
2.418073793755913137e+00
2.435511825922421991e+00
2.435511825922421991e+00
2.435511825922421991e+00
2.435511825922421991e+00
2.483513290810876573e+00
2.483513290810876573e+00
2.483513290810876573e+00
2.544452650532547988e+00
2.544452650532547988e+00
2.544452650532547988e+00
2.544452650532547988e+00
2.548015259254738041e+00
2.548015259254738041e+00
2.548015259254738041e+00
2.541265053254798900e+00
2.541265053254798900e+00
2.541265053254798900e+00
2.497576219977416301e+00
2.497576219977416301e+00
2.497576219977416301e+00
2.497576219977416301e+00
2.546515213476973738e+00
2.546515213476973738e+00
2.546515213476973738e+00
2.608767113254188974e+00
2.608767113254188974e+00
2.608767113254188974e+00
2.608767113254188974e+00
2.560578142643513466e+00
2.560578142643513466e+00
2.560578142643513466e+00
2.554015442365794808e+00
2.554015442365794808e+00
2.554015442365794808e+00
2.461387615588854771e+00
2.461387615588854771e+00
2.461387615588854771e+00
2.461387615588854771e+00
2.404948393200476264e+00
2.404948393200476264e+00
2.404948393200476264e+00
2.321883358256782603e+00
2.321883358256782603e+00
2.321883358256782603e+00
2.321883358256782603e+00
2.439261940366832526e+00
2.439261940366832526e+00
2.439261940366832526e+00
2.553452925199133361e+00
2.553452925199133361e+00
2.553452925199133361e+00
2.553452925199133361e+00
2.611767204809717136e+00
2.611767204809717136e+00
2.611767204809717136e+00
2.501513840144047762e+00
2.501513840144047762e+00
2.501513840144047762e+00
2.354884365367595489e+00
2.354884365367595489e+00
2.354884365367595489e+00
2.354884365367595489e+00
2.433074251533554833e+00
2.433074251533554833e+00
2.433074251533554833e+00
2.420886379589221260e+00
2.420886379589221260e+00
2.420886379589221260e+00
2.420886379589221260e+00
2.368947294534135217e+00
2.368947294534135217e+00
2.368947294534135217e+00
2.540515030365916971e+00
2.540515030365916971e+00
2.540515030365916971e+00
2.532639790032654936e+00
2.532639790032654936e+00
2.532639790032654936e+00
2.532639790032654936e+00
2.612892239143040030e+00
2.612892239143040030e+00
2.612892239143040030e+00
2.517826837977233279e+00
2.517826837977233279e+00
2.517826837977233279e+00
2.517826837977233279e+00
2.429136631366924259e+00
2.429136631366924259e+00
2.429136631366924259e+00
2.415823725089266905e+00
2.415823725089266905e+00
2.415823725089266905e+00
2.465887752922147680e+00
2.465887752922147680e+00
2.465887752922147680e+00
2.465887752922147680e+00
2.636330454420606095e+00
2.636330454420606095e+00
2.636330454420606095e+00
2.716582903530991633e+00
2.716582903530991633e+00
2.716582903530991633e+00
2.716582903530991633e+00
2.599766838587603157e+00
2.599766838587603157e+00
2.599766838587603157e+00
2.449574755088961275e+00
2.449574755088961275e+00
2.449574755088961275e+00
2.449574755088961275e+00
2.504326425977354997e+00
2.504326425977354997e+00
2.504326425977354997e+00
2.559640614032411055e+00
2.559640614032411055e+00
2.559640614032411055e+00
2.465887752922147680e+00
2.465887752922147680e+00
2.465887752922147680e+00
2.465887752922147680e+00
2.478825647755364070e+00
2.478825647755364070e+00
2.478825647755364070e+00
2.506951506088442638e+00
2.506951506088442638e+00
2.506951506088442638e+00
2.506951506088442638e+00
2.531327249977111116e+00
2.531327249977111116e+00
2.531327249977111116e+00
2.563390728476821145e+00
2.563390728476821145e+00
2.563390728476821145e+00
2.495888668477431516e+00
2.495888668477431516e+00
2.495888668477431516e+00
2.495888668477431516e+00
2.363509628589739453e+00
2.363509628589739453e+00
2.363509628589739453e+00
2.372884914700766235e+00
2.372884914700766235e+00
2.372884914700766235e+00
2.372884914700766235e+00
2.329571092867824156e+00
2.329571092867824156e+00
2.329571092867824156e+00
2.461575121311075254e+00
2.461575121311075254e+00
2.461575121311075254e+00
2.548577776421399932e+00
2.548577776421399932e+00
2.548577776421399932e+00
2.548577776421399932e+00
2.576141117587817053e+00
2.576141117587817053e+00
2.576141117587817053e+00
2.620767479476302064e+00
2.620767479476302064e+00
2.620767479476302064e+00
2.620767479476302064e+00
2.575953611865596571e+00
2.575953611865596571e+00
2.575953611865596571e+00
2.485763359477523249e+00
2.485763359477523249e+00
2.438886928922391562e+00
2.438886928922391562e+00
2.466825281533250092e+00
2.466825281533250092e+00
2.508076540421765976e+00
2.403635853144932444e+00
2.403635853144932444e+00
2.444324594866786882e+00
2.444324594866786882e+00
2.466262764366588645e+00
2.601829401532029351e+00
2.601829401532029351e+00
2.500951322977385871e+00
2.434574297311319135e+00
2.434574297311319135e+00
2.488200933866389963e+00
2.488200933866389963e+00
2.446574663533433114e+00
2.511451643421735547e+00
2.511451643421735547e+00
2.588516495254371552e+00
2.588516495254371552e+00
2.446574663533433114e+00
2.464762718588824342e+00
2.464762718588824342e+00
2.458950041199987613e+00
2.458950041199987613e+00
2.515389263588366120e+00
2.522139469588305261e+00
2.522139469588305261e+00
2.479013153477584552e+00
2.479013153477584552e+00
2.517451826532791870e+00
2.589079012421033443e+00
2.589079012421033443e+00
2.560390636921292984e+00
2.421448896755882263e+00
2.421448896755882263e+00
2.423136448255867048e+00
2.423136448255867048e+00
2.454262398144474666e+00
2.526077089754936722e+00
2.526077089754936722e+00
2.496451185644092963e+00
2.557203039643543896e+00
2.557203039643543896e+00
2.548015259254738041e+00
2.417698782311472172e+00
2.417698782311472172e+00
2.466450270088809127e+00
2.539952513199255080e+00
2.539952513199255080e+00
2.628642719809564543e+00
2.628642719809564543e+00
2.653955992309335876e+00
2.617767387920773903e+00
2.617767387920773903e+00
2.634830408642841792e+00
2.572578508865627445e+00
2.572578508865627445e+00
2.438699423200171079e+00
2.438699423200171079e+00
2.315508163701284872e+00
2.333696218756676100e+00
2.333696218756676100e+00
2.315883175145725836e+00
2.315883175145725836e+00
2.501888851588488727e+00
2.418823816644795066e+00
2.418823816644795066e+00
2.219130222479934300e+00
2.219130222479934300e+00
2.284194708090456771e+00
2.545202673421430362e+00
2.545202673421430362e+00
2.598079287087618372e+00
2.598079287087618372e+00
2.689207068086794994e+00
2.715270363475447812e+00
2.715270363475447812e+00
2.612892239143040030e+00
2.570515945921201251e+00
2.570515945921201251e+00
2.517639332255012796e+00
2.517639332255012796e+00
2.394635578478347071e+00
2.272569353312784202e+00
2.272569353312784202e+00
2.384135258033997840e+00
2.384135258033997840e+00
2.346821619312112972e+00
2.521576952421643814e+00
2.521576952421643814e+00
2.690519608142338370e+00
2.690519608142338370e+00
2.681144322031312033e+00
2.623205053865169223e+00
2.623205053865169223e+00
2.492326059755241463e+00
2.338758873256630455e+00
2.338758873256630455e+00
2.487450910977508034e+00
2.704582537308877654e+00
2.704582537308877654e+00
2.722208075197607435e+00
2.696707296975615620e+00
2.696707296975615620e+00
2.586828943754386767e+00
2.586828943754386767e+00
2.561328165532395840e+00
2.380947660756248752e+00
2.380947660756248752e+00
2.125377361369670925e+00
2.125377361369670925e+00
2.125002349925229961e+00
2.289257362590411127e+00
2.289257362590411127e+00
2.502263863032929692e+00
2.502263863032929692e+00
2.519326883754997581e+00
2.615892330698568635e+00
2.615892330698568635e+00
2.692019653920102229e+00
2.534139835810419239e+00
2.534139835810419239e+00
2.490075991088595231e+00
2.490075991088595231e+00
2.493076082644123392e+00
2.446199652088991705e+00
2.446199652088991705e+00
2.297882625812555535e+00
2.297882625812555535e+00
2.233005645924253102e+00
2.466075258644368162e+00
2.466075258644368162e+00
2.499263771477401086e+00
2.512201666310617476e+00
2.512201666310617476e+00
2.621705008087404920e+00
2.621705008087404920e+00
2.635767937253944648e+00
2.768146977141636711e+00
2.768146977141636711e+00
2.822336130863368542e+00
2.822336130863368542e+00
2.719207983642078830e+00
2.560390636921292984e+00
2.560390636921292984e+00
2.531702261421552080e+00
2.531702261421552080e+00
2.423136448255867048e+00
2.149753105258339403e+00
2.149753105258339403e+00
2.059000335703604190e+00
2.138315256202887316e+00
2.138315256202887316e+00
2.237693288979766049e+00
2.237693288979766049e+00
2.472262947477644968e+00
2.709082674642170563e+00
2.709082674642170563e+00
2.926026795251319701e+00
2.926026795251319701e+00
2.760646748252815641e+00
2.463450178533280521e+00
2.463450178533280521e+00
2.520639423810540958e+00
2.520639423810540958e+00
2.453512375255592737e+00
2.366884731589709023e+00
2.366884731589709023e+00
2.434386791589098653e+00
2.431386700033570492e+00
2.431386700033570492e+00
2.436261848811303921e+00
2.436261848811303921e+00
2.585516403698843391e+00
2.400260750144962874e+00
2.400260750144962874e+00
2.477888119144261214e+00
2.477888119144261214e+00
2.604079470198675583e+00
2.620767479476302064e+00
2.620767479476302064e+00
2.626017639698477346e+00
2.626017639698477346e+00
2.472450453199865894e+00
2.368197271645252844e+00
2.368197271645252844e+00
2.429886654255806189e+00
2.565828302865687860e+00
2.565828302865687860e+00
2.667268898586993231e+00
2.667268898586993231e+00
2.495888668477431516e+00
2.304445326090273749e+00
2.304445326090273749e+00
2.261881527146214044e+00
2.261881527146214044e+00
2.431386700033570492e+00
2.657706106753745967e+00
2.657706106753745967e+00
2.651330912198248235e+00
2.601454390087587942e+00
2.601454390087587942e+00
2.527952146977141545e+00
2.527952146977141545e+00
2.559828119754631537e+00
2.459325052644428578e+00
2.459325052644428578e+00
2.426136539811395654e+00
2.426136539811395654e+00
2.417136265144810281e+00
2.496076174199651998e+00
2.496076174199651998e+00
2.509764091921750762e+00
2.528702169866023475e+00
2.528702169866023475e+00
2.600516861476485531e+00
2.600516861476485531e+00
2.551952879421369058e+00
2.400260750144962874e+00
2.400260750144962874e+00
2.331071138645588459e+00
2.331071138645588459e+00
2.133815118869594407e+00
2.329946104312265120e+00
2.329946104312265120e+00
2.657331095309305002e+00
2.657331095309305002e+00
2.801147984252449152e+00
2.761021759697256606e+00
2.761021759697256606e+00
2.527014618366038690e+00
2.429324137089144742e+00
2.429324137089144742e+00
2.259443952757347329e+00
2.259443952757347329e+00
2.233005645924253102e+00
2.321883358256782603e+00
2.321883358256782603e+00
2.392385509811700839e+00
2.392385509811700839e+00
2.479388164922025517e+00
2.875775261696218887e+00
2.875775261696218887e+00
2.813148350474562687e+00
2.813148350474562687e+00
2.718457960753196900e+00
2.665581347087008446e+00
2.665581347087008446e+00
2.443199560533463544e+00
2.201879696035645484e+00
2.201879696035645484e+00
2.116939603869747000e+00
2.116939603869747000e+00
2.392760521256141804e+00
2.451449812311166987e+00
2.451449812311166987e+00
2.596579241309854513e+00
2.596579241309854513e+00
2.722208075197607435e+00
2.655268532364879697e+00
2.655268532364879697e+00
2.628455214087344061e+00
2.628455214087344061e+00
2.620392468031861544e+00
2.676269173253578604e+00
2.676269173253578604e+00
2.567328348643452163e+00
2.436636860255744885e+00
2.436636860255744885e+00
2.298445142979216982e+00
2.298445142979216982e+00
2.272756859035004684e+00
2.107001800592058771e+00
2.107001800592058771e+00
2.160628437147130043e+00
2.160628437147130043e+00
2.772459608752708693e+00
2.903526108584856491e+00
2.903526108584856491e+00
2.710207708975493901e+00
2.710207708975493901e+00
2.558328073976867234e+00
2.518764366588335690e+00
2.518764366588335690e+00
2.359384502700888397e+00
2.359384502700888397e+00
2.351509262367625919e+00
2.267506698812830290e+00
2.267506698812830290e+00
2.426699056978057101e+00
2.656581072420422629e+00
2.656581072420422629e+00
2.787647572252571315e+00
2.787647572252571315e+00
2.673831598864711445e+00
2.608392101809748009e+00
2.608392101809748009e+00
2.597704275643177407e+00
2.597704275643177407e+00
2.218005188146610962e+00
2.132690084536271069e+00
2.132690084536271069e+00
2.354696859645375007e+00
2.354696859645375007e+00
2.518764366588335690e+00
2.667268898586993231e+00
2.667268898586993231e+00
2.660893704031495055e+00
2.566765831476790716e+00
2.566765831476790716e+00
2.255318826868495830e+00
2.255318826868495830e+00
2.075125827814569668e+00
2.077563402203436382e+00
2.077563402203436382e+00
2.616454847865230526e+00
2.616454847865230526e+00
3.097782036805322381e+00
2.902963591418195044e+00
2.902963591418195044e+00
2.669706472975859946e+00
2.584953886532181944e+00
2.584953886532181944e+00
2.329946104312265120e+00
2.329946104312265120e+00
2.185754203924680450e+00
2.315883175145725836e+00
2.315883175145725836e+00
2.326946012756737403e+00
2.326946012756737403e+00
2.396510635700552783e+00
2.415823725089266905e+00
2.415823725089266905e+00
2.611204687643055244e+00
2.611204687643055244e+00
2.597891781365397890e+00
2.761959288308359017e+00
2.761959288308359017e+00
2.752959013641773645e+00
2.752959013641773645e+00
2.441136997589037794e+00
2.446199652088991705e+00
2.446199652088991705e+00
2.591704092532120640e+00
2.386385326700643628e+00
2.386385326700643628e+00
2.377947569200720146e+00
2.377947569200720146e+00
2.555140476699118146e+00
2.587578966643269140e+00
2.587578966643269140e+00
2.423511459700308013e+00
2.423511459700308013e+00
2.253068758201849597e+00
2.347759147923215384e+00
2.347759147923215384e+00
2.539952513199255080e+00
2.539952513199255080e+00
2.676081667531358121e+00
2.421448896755882263e+00
2.421448896755882263e+00
2.457449995422223310e+00
2.457449995422223310e+00
2.537139927365947845e+00
2.600329355754265048e+00
2.600329355754265048e+00
2.607079561754204189e+00
2.671019013031403322e+00
2.671019013031403322e+00
2.678894253364665801e+00
2.678894253364665801e+00
2.811460798974577902e+00
2.484638325144199911e+00
2.484638325144199911e+00
2.040812280648213406e+00
2.040812280648213406e+00
1.954559648426770879e+00
1.972935209204382367e+00
1.972935209204382367e+00
2.382260200811792572e+00
2.810335764641255007e+00
2.810335764641255007e+00
2.829461348307748647e+00
2.829461348307748647e+00
2.887963133640553348e+00
2.574078554643390859e+00
2.574078554643390859e+00
2.266569170201727434e+00
2.361072054200873183e+00
2.361072054200873183e+00
2.287757316812646824e+00
2.287757316812646824e+00
2.580078737754448071e+00
2.600704367198706013e+00
2.600704367198706013e+00
2.829648854029969574e+00
2.829648854029969574e+00
2.645143223364970542e+00
2.411323587755973996e+00
2.411323587755973996e+00
2.251756218146305777e+00
2.251756218146305777e+00
2.383572740867336393e+00
1.987373149815363060e+00
1.987373149815363060e+00
2.319820795312356854e+00
2.943277321695608517e+00
2.943277321695608517e+00
2.959402813806573995e+00
2.959402813806573995e+00
2.740396130252998219e+00
2.415823725089266905e+00
2.415823725089266905e+00
2.441699514755699685e+00
2.441699514755699685e+00
2.538452467421491221e+00
2.444324594866786882e+00
2.444324594866786882e+00
2.351696768089846401e+00
2.351696768089846401e+00
2.633517868587297972e+00
2.651143406476027753e+00
2.651143406476027753e+00
2.374384960478530537e+00
1.931871456038086965e+00
1.931871456038086965e+00
2.021499191259499284e+00
2.021499191259499284e+00
2.435324320200201509e+00
2.582141300698873820e+00
2.582141300698873820e+00
2.899400982696005435e+00
2.899400982696005435e+00
2.764959379863887623e+00
2.559453108310190128e+00
2.559453108310190128e+00
2.678144230475783871e+00
2.678144230475783871e+00
2.503763908810693550e+00
2.389572923978392716e+00
2.389572923978392716e+00
2.287757316812646824e+00
2.287757316812646824e+00
2.226817957090975852e+00
2.389385418256172233e+00
2.389385418256172233e+00
2.655831049531541144e+00
2.612329721976378583e+00
2.612329721976378583e+00
2.785209997863704157e+00
2.785209997863704157e+00
2.737583544419690984e+00
2.654893520920438288e+00
2.654893520920438288e+00
2.567890865810114054e+00
2.567890865810114054e+00
2.338383861812189490e+00
2.182754112369151844e+00
2.182754112369151844e+00
2.238630817590868904e+00
2.545577684865871326e+00
2.545577684865871326e+00
2.716207892086550224e+00
2.716207892086550224e+00
2.627330179754020723e+00
2.529639698477126331e+00
2.529639698477126331e+00
2.424823999755851833e+00
2.424823999755851833e+00
2.193254432813501520e+00
2.368009765923032361e+00
2.368009765923032361e+00
2.485200842310861358e+00
2.485200842310861358e+00
2.616267342143010044e+00
2.565265785699026413e+00
2.565265785699026413e+00
2.698019837031159440e+00
2.491013519699698087e+00
2.491013519699698087e+00
2.206567339091158875e+00
2.206567339091158875e+00
2.251006195257423848e+00
2.533014801477095901e+00
2.533014801477095901e+00
2.710020203253273419e+00
2.710020203253273419e+00
2.470200384533219218e+00
2.493638599810785283e+00
2.493638599810785283e+00
2.557578051087984861e+00
2.557578051087984861e+00
2.473762993255409270e+00
2.349821710867641578e+00
2.349821710867641578e+00
2.583641346476638123e+00
2.583641346476638123e+00
2.595079195532090210e+00
2.418448805200354101e+00
2.418448805200354101e+00
2.409073519089327764e+00
2.621329996642963955e+00
2.621329996642963955e+00
2.721270546586505024e+00
2.721270546586505024e+00
2.472262947477644968e+00
2.568078371532334536e+00
2.568078371532334536e+00
2.511264137699515064e+00
2.511264137699515064e+00
2.495888668477431516e+00
2.280069582201605716e+00
2.280069582201605716e+00
2.384885280922879769e+00
2.384885280922879769e+00
2.510326609088412209e+00
2.513139194921720332e+00
2.513139194921720332e+00
2.347384136478774419e+00
2.347384136478774419e+00
2.518014343699453761e+00
2.569203405865657430e+00
2.569203405865657430e+00
2.659206152531510270e+00
2.487825922421948999e+00
2.487825922421948999e+00
2.395010589922788480e+00
2.395010589922788480e+00
2.483325785088656090e+00
2.500201300088503942e+00
2.500201300088503942e+00
2.302570268868068482e+00
2.302570268868068482e+00
2.520264412366099993e+00
2.507326517532883603e+00
2.507326517532883603e+00
2.530577227088229186e+00
2.530577227088229186e+00
2.626017639698477346e+00
2.571265968810083624e+00
2.571265968810083624e+00
2.485013336588640875e+00
2.558703085421308199e+00
2.558703085421308199e+00
2.608954618976409012e+00
2.608954618976409012e+00
2.822523636585589024e+00
2.732145878475295220e+00
2.732145878475295220e+00
2.272569353312784202e+00
2.272569353312784202e+00
2.183129123813593253e+00
2.179003997924741309e+00
2.179003997924741309e+00
2.335571275978881367e+00
2.335571275978881367e+00
2.366509720145268059e+00
2.698394848475600405e+00
2.698394848475600405e+00
2.702519974364452349e+00
2.702519974364452349e+00
2.688269539475692138e+00
2.630705282753990293e+00
2.630705282753990293e+00
2.423323953978087530e+00
2.368947294534135217e+00
2.368947294534135217e+00
2.423698965422528495e+00
2.423698965422528495e+00
2.306882900479140464e+00
2.431761711478011456e+00
2.431761711478011456e+00
2.525327066866054349e+00
2.525327066866054349e+00
2.563765739921262110e+00
2.590766563921018228e+00
2.590766563921018228e+00
2.413948667867061193e+00
2.413948667867061193e+00
2.487263405255287552e+00
2.436636860255744885e+00
2.436636860255744885e+00
2.362759605700857524e+00
2.422948942533646566e+00
2.422948942533646566e+00
2.466075258644368162e+00
2.466075258644368162e+00
2.705332560197760028e+00
2.807710684530167811e+00
2.807710684530167811e+00
2.575391094698934680e+00
2.554015442365794808e+00
2.554015442365794808e+00
2.400823267311624321e+00
2.400823267311624321e+00
2.310820520645771925e+00
2.253818781090731527e+00
2.253818781090731527e+00
2.414511185033723084e+00
2.414511185033723084e+00
2.524202032532731454e+00
2.634080385753959863e+00
2.634080385753959863e+00
2.709270180364391045e+00
2.709270180364391045e+00
2.607454573198645154e+00
2.503013885921811621e+00
2.503013885921811621e+00
2.293194982757042144e+00
2.293194982757042144e+00
2.335008758812219920e+00
2.452012329477828434e+00
2.452012329477828434e+00
2.557578051087984861e+00
2.638580523087252327e+00
2.638580523087252327e+00
2.719020477919858347e+00
2.719020477919858347e+00
2.569203405865657430e+00
2.455387432477798004e+00
2.455387432477798004e+00
2.375697500534073914e+00
2.375697500534073914e+00
2.255881344035157721e+00
2.182379100924710880e+00
2.182379100924710880e+00
2.375322489089632505e+00
2.375322489089632505e+00
2.480700704977568893e+00
2.659393658253730752e+00
2.659393658253730752e+00
2.640455580309458039e+00
2.676831690420240051e+00
2.676831690420240051e+00
2.609329630420849977e+00
2.609329630420849977e+00
2.660331186864833608e+00
2.559265602587969646e+00
2.559265602587969646e+00
2.447137180700094561e+00
2.447137180700094561e+00
2.302007751701407035e+00
2.338008850367748082e+00
2.338008850367748082e+00
2.446949674977874079e+00
2.446949674977874079e+00
2.669893978698080428e+00
2.549327799310281861e+00
2.549327799310281861e+00
2.446012146366771223e+00
2.478638142033143144e+00
2.478638142033143144e+00
2.581016266365550926e+00
2.581016266365550926e+00
2.481075716422009858e+00
2.606704550309763224e+00
2.606704550309763224e+00
2.632205328531754596e+00
2.632205328531754596e+00
2.492888576921902910e+00
2.327133518478957885e+00
2.327133518478957885e+00
2.376072511978514878e+00
2.351884273812066883e+00
2.351884273812066883e+00
2.373072420422986717e+00
2.373072420422986717e+00
2.551577867976928093e+00
2.769272011474959605e+00
2.769272011474959605e+00
2.680394299142429659e+00
2.680394299142429659e+00
2.575391094698934680e+00
2.312695577867977192e+00
2.312695577867977192e+00
2.145252967925046494e+00
2.145252967925046494e+00
2.319820795312356854e+00
2.444512100589007364e+00
2.444512100589007364e+00
2.610829676198614280e+00
2.610829676198614280e+00
2.745083773308511610e+00
2.806773155919064955e+00
2.806773155919064955e+00
2.563953245643482592e+00
2.405885921811578676e+00
2.405885921811578676e+00
2.518014343699453761e+00
2.518014343699453761e+00
2.346259102145451525e+00
2.436824365977965812e+00
2.436824365977965812e+00
2.416386242255928352e+00
2.416386242255928352e+00
2.502076357310709209e+00
2.385072786645100695e+00
2.385072786645100695e+00
2.350009216589862060e+00
2.350009216589862060e+00
2.410948576311533031e+00
2.622830042420728258e+00
2.622830042420728258e+00
2.675331644642475748e+00
2.675331644642475748e+00
2.584766380809961461e+00
2.355446882534256936e+00
2.355446882534256936e+00
2.311383037812433372e+00
2.530389721366008260e+00
2.530389721366008260e+00
2.788960112308114692e+00
2.788960112308114692e+00
2.700644917142247081e+00
2.503951414532914033e+00
2.503951414532914033e+00
2.326195989867855030e+00
2.326195989867855030e+00
2.367634754478591397e+00
2.527014618366038690e+00
2.527014618366038690e+00
2.631830317087313631e+00
2.526077089754936722e+00
2.526077089754936722e+00
2.604266975920896066e+00
2.604266975920896066e+00
2.436636860255744885e+00
2.244068483535264225e+00
2.244068483535264225e+00
2.438324411755729670e+00
2.438324411755729670e+00
2.671769035920285695e+00
2.668393932920316125e+00
2.668393932920316125e+00
2.585703909421063873e+00
2.510514114810632691e+00
2.510514114810632691e+00
2.394448072756126589e+00
2.394448072756126589e+00
2.254943815424054865e+00
2.226630451368755370e+00
2.226630451368755370e+00
2.399698232978301426e+00
2.399698232978301426e+00
2.609517136143070459e+00
2.606142033143101333e+00
2.606142033143101333e+00
2.857962218085268624e+00
2.857962218085268624e+00
2.746396313364055430e+00
2.511076631977294138e+00
2.511076631977294138e+00
2.345134067812128187e+00
2.345134067812128187e+00
2.308757957701345731e+00
2.289069856868190644e+00
2.289069856868190644e+00
2.290944914090395912e+00
2.332196172978911797e+00
2.332196172978911797e+00
2.691644642475661264e+00
2.691644642475661264e+00
2.626205145420697828e+00
2.674206610309152410e+00
2.674206610309152410e+00
2.537327433088168327e+00
2.537327433088168327e+00
2.490638508255257122e+00
2.481263222144230340e+00
2.481263222144230340e+00
2.453512375255592737e+00
2.453512375255592737e+00
2.532452284310434454e+00
2.523264503921628599e+00
2.523264503921628599e+00
2.365384685811944721e+00
2.365384685811944721e+00
2.404385876033814373e+00
2.555327982421338628e+00
2.555327982421338628e+00
2.565453291421246895e+00
2.517076815088350905e+00
2.517076815088350905e+00
2.308945463423566213e+00
2.308945463423566213e+00
2.438511917477950597e+00
2.618892422254097241e+00
2.618892422254097241e+00
2.739833613086336772e+00
2.739833613086336772e+00
2.686769493697927835e+00
2.629205236976226434e+00
2.629205236976226434e+00
2.673456587420270480e+00
2.673456587420270480e+00
2.490451002533036640e+00
2.198129581591235393e+00
2.198129581591235393e+00
2.122377269814142320e+00
2.287194799645985377e+00
2.287194799645985377e+00
2.405135898922696747e+00
2.405135898922696747e+00
2.542765099032563203e+00
2.502638874477370656e+00
2.502638874477370656e+00
2.644393200476088612e+00
2.644393200476088612e+00
2.516701803643909940e+00
2.535452375865963059e+00
2.535452375865963059e+00
2.438136906033509188e+00
2.438136906033509188e+00
2.596579241309854513e+00
2.566953337199011198e+00
2.566953337199011198e+00
2.392198004089480357e+00
2.426886562700277583e+00
2.426886562700277583e+00
2.430261665700247153e+00
2.430261665700247153e+00
2.572953520310068409e+00
2.703645008697775243e+00
2.703645008697775243e+00
2.625080111087374490e+00
2.625080111087374490e+00
2.493263588366343875e+00
2.460262581255531433e+00
2.460262581255531433e+00
2.486700888088625661e+00
2.486700888088625661e+00
2.286632282479323930e+00
2.259068941312906365e+00
2.259068941312906365e+00
2.644955717642750059e+00
2.644955717642750059e+00
2.620767479476302064e+00
2.536577410199285953e+00
2.536577410199285953e+00
2.514639240699484635e+00
2.387697866756187448e+00
2.387697866756187448e+00
2.559078096865749163e+00
2.559078096865749163e+00
2.635392925809503240e+00
2.607079561754204189e+00
2.607079561754204189e+00
2.541077547532578418e+00
2.541077547532578418e+00
2.406635944700461049e+00
2.368197271645252844e+00
2.360697042756431774e+00
2.360697042756431774e+00
2.382072695089572090e+00
2.484450819421979428e+00
2.484450819421979428e+00
2.588704000976592479e+00
2.588704000976592479e+00
2.571640980254524589e+00
2.587391460921048658e+00
2.587391460921048658e+00
2.587203955198828176e+00
2.529452192754905848e+00
2.529452192754905848e+00
2.378322580645161111e+00
2.378322580645161111e+00
2.414511185033723084e+00
2.373259926145207199e+00
2.373259926145207199e+00
2.443199560533463544e+00
2.443199560533463544e+00
2.464200201422162451e+00
2.414886196478164049e+00
2.414886196478164049e+00
2.486138370921964214e+00
2.486138370921964214e+00
2.601454390087587942e+00
2.567890865810114054e+00
2.567890865810114054e+00
2.365009674367503756e+00
2.365009674367503756e+00
2.560765648365733949e+00
2.696519791253395137e+00
2.696519791253395137e+00
2.648330820642719630e+00
2.473950498977630197e+00
2.473950498977630197e+00
2.436449354533524403e+00
2.436449354533524403e+00
2.491013519699698087e+00
2.526452101199377687e+00
2.526452101199377687e+00
2.546515213476973738e+00
2.546515213476973738e+00
2.568640888698995983e+00
2.434574297311319135e+00
2.434574297311319135e+00
2.314945646534623425e+00
2.314945646534623425e+00
2.257568895535142062e+00
2.411136082033753514e+00
2.411136082033753514e+00
2.630142765587328846e+00
2.787085055085909424e+00
2.787085055085909424e+00
2.669706472975859946e+00
2.669706472975859946e+00
2.521764458143864296e+00
2.436824365977965812e+00
2.395198095645008962e+00
2.395198095645008962e+00
2.439261940366832526e+00
2.439261940366832526e+00
2.342321481978820064e+00
2.288507339701529197e+00
2.288507339701529197e+00
2.389010406811731269e+00
2.389010406811731269e+00
2.497763725699636783e+00
2.551952879421369058e+00
2.551952879421369058e+00
2.673081575975829516e+00
2.571640980254524589e+00
2.571640980254524589e+00
2.679644276253547730e+00
2.679644276253547730e+00
2.609517136143070459e+00
2.535639881588183542e+00
2.535639881588183542e+00
2.371947386089663379e+00
2.371947386089663379e+00
2.420886379589221260e+00
2.439074434644612044e+00
2.439074434644612044e+00
2.470012878810998735e+00
2.486888393810846587e+00
2.486888393810846587e+00
2.486325876644184696e+00
2.486325876644184696e+00
2.459700064088869986e+00
2.575578600421155162e+00
2.575578600421155162e+00
2.556078005310220558e+00
2.556078005310220558e+00
2.319445783867915889e+00
2.299757683034760802e+00
2.299757683034760802e+00
2.519326883754997581e+00
2.641768120365001415e+00
2.641768120365001415e+00
2.604454481643116548e+00
2.604454481643116548e+00
2.635955442976165131e+00
2.499826288644062977e+00
2.499826288644062977e+00
2.433824274422437206e+00
2.433824274422437206e+00
2.385635303811762142e+00
2.390697958311716054e+00
2.390697958311716054e+00
2.437574388866847741e+00
2.581578783532212373e+00
2.581578783532212373e+00
2.657893612475966449e+00
2.657893612475966449e+00
2.589266518143253926e+00
2.487075899533067069e+00
2.487075899533067069e+00
2.444887112033448329e+00
2.444887112033448329e+00
2.500763817255165389e+00
2.446387157811212187e+00
2.446387157811212187e+00
2.461200109866634289e+00
2.461200109866634289e+00
2.534702352977080686e+00
2.471512924588763038e+00
2.471512924588763038e+00
2.437574388866847741e+00
2.437574388866847741e+00
2.344571550645466296e+00
2.579703726310007106e+00
2.579703726310007106e+00
2.577078646198919465e+00
2.525702078310495757e+00
2.525702078310495757e+00
2.495513657032990551e+00
2.513326700643940814e+00
2.513326700643940814e+00
2.367259743034150432e+00
2.367259743034150432e+00
2.401948301644947659e+00
2.545202673421430362e+00
2.545202673421430362e+00
2.623580065309610188e+00
2.623580065309610188e+00
2.552890408032471470e+00
2.515764275032807085e+00
2.515764275032807085e+00
2.449387249366740793e+00
2.449387249366740793e+00
2.431199194311350009e+00
2.418261299478133619e+00
2.418261299478133619e+00
2.515764275032807085e+00
2.475263039033173573e+00
2.475263039033173573e+00
2.442449537644581614e+00
2.442449537644581614e+00
2.548577776421399932e+00
2.520076906643879511e+00
2.520076906643879511e+00
2.541077547532578418e+00
2.541077547532578418e+00
2.543515121921445576e+00
2.561328165532395840e+00
2.561328165532395840e+00
2.468700338755454915e+00
2.468700338755454915e+00
2.422573931089205601e+00
2.515576769310586602e+00
2.515576769310586602e+00
2.512014160588396994e+00
2.518389355143894726e+00
2.518389355143894726e+00
2.539952513199255080e+00
2.472637958922086376e+00
2.472637958922086376e+00
2.430074159978026671e+00
2.430074159978026671e+00
2.508076540421765976e+00
2.599766838587603157e+00
2.599766838587603157e+00
2.436074343089083438e+00
2.436074343089083438e+00
2.344946562089907705e+00
2.419386333811456957e+00
2.419386333811456957e+00
2.389010406811731269e+00
2.389010406811731269e+00
2.454262398144474666e+00
2.597329264198736443e+00
2.597329264198736443e+00
2.636705465865047060e+00
2.636705465865047060e+00
2.571265968810083624e+00
2.494951139866329104e+00
2.494951139866329104e+00
2.526639606921598169e+00
2.526639606921598169e+00
2.488763451033051854e+00
2.432886745811334794e+00
2.432886745811334794e+00
2.430074159978026671e+00
2.499451277199621568e+00
2.499451277199621568e+00
2.536202398754844989e+00
2.536202398754844989e+00
2.492888576921902910e+00
2.538827478865932186e+00
2.538827478865932186e+00
2.526452101199377687e+00
2.526452101199377687e+00
2.487450910977508034e+00
2.344196539201025331e+00
2.344196539201025331e+00
2.250631183812982439e+00
2.250631183812982439e+00
2.374384960478530537e+00
2.486700888088625661e+00
2.486700888088625661e+00
2.704020020142216207e+00
2.704020020142216207e+00
2.596391735587634031e+00
2.522701986754967152e+00
2.522701986754967152e+00
2.602204412976470316e+00
2.636517960142826578e+00
2.636517960142826578e+00
2.607267067476424671e+00
2.607267067476424671e+00
2.597891781365397890e+00
2.479013153477584552e+00
2.479013153477584552e+00
2.362009582811975594e+00
2.362009582811975594e+00
2.454637409588916075e+00
2.451637318033387469e+00
2.451637318033387469e+00
2.353384319589831186e+00
2.353384319589831186e+00
2.326383495590075512e+00
2.436074343089083438e+00
2.436074343089083438e+00
2.575203588976714197e+00
2.555140476699118146e+00
2.555140476699118146e+00
2.505826471755119300e+00
2.505826471755119300e+00
2.495701162755211033e+00
2.559640614032411055e+00
2.559640614032411055e+00
2.569953428754539804e+00
2.569953428754539804e+00
2.572391003143406518e+00
2.480888210699789376e+00
2.480888210699789376e+00
2.443949583422345917e+00
2.443949583422345917e+00
2.537139927365947845e+00
2.539952513199255080e+00
2.539952513199255080e+00
2.522139469588305261e+00
2.522139469588305261e+00
2.430074159978026671e+00
2.392573015533921321e+00
2.392573015533921321e+00
2.375134983367412023e+00
2.452762352366710363e+00
2.452762352366710363e+00
2.455762443922238969e+00
2.455762443922238969e+00
2.523639515366069563e+00
2.549702810754722826e+00
2.549702810754722826e+00
2.568640888698995983e+00
2.541827570421460791e+00
2.541827570421460791e+00
2.558140568254646752e+00
2.558140568254646752e+00
2.456512466811120898e+00
2.503951414532914033e+00
2.503951414532914033e+00
2.515576769310586602e+00
2.515576769310586602e+00
2.384697775200659287e+00
2.384697775200659287e+00
2.384697775200659287e+00
2.512951689199499850e+00
2.512951689199499850e+00
2.458950041199987613e+00
2.425199011200292798e+00
2.425199011200292798e+00
2.538264961699270739e+00
2.538264961699270739e+00
2.593016632587664461e+00
2.551202856532486685e+00
2.551202856532486685e+00
2.577641163365581356e+00
2.503763908810693550e+00
2.503763908810693550e+00
2.401573290200506694e+00
2.401573290200506694e+00
2.467012787255470574e+00
2.570890957365642215e+00
2.570890957365642215e+00
2.532452284310434454e+00
2.532452284310434454e+00
2.600141850032044566e+00
2.568265877254555019e+00
2.568265877254555019e+00
2.533202307199316383e+00
2.533202307199316383e+00
2.484825830866420393e+00
2.384885280922879769e+00
2.384885280922879769e+00
2.286069765312662039e+00
2.298820154423657947e+00
2.298820154423657947e+00
2.561515671254616322e+00
2.561515671254616322e+00
2.638580523087252327e+00
2.594329172643208281e+00
2.594329172643208281e+00
2.513326700643940814e+00
2.513326700643940814e+00
2.423698965422528495e+00
2.457637501144443792e+00
2.457637501144443792e+00
2.461762627033295736e+00
2.461762627033295736e+00
2.459700064088869986e+00
2.467387798699911539e+00
2.467387798699911539e+00
2.550452833643604755e+00
2.550452833643604755e+00
2.443012054811243061e+00
2.507889034699545494e+00
2.507889034699545494e+00
2.525139561143833866e+00
2.518201849421674243e+00
2.518201849421674243e+00
2.628267708365123578e+00
2.628267708365123578e+00
2.582891323587756194e+00
2.474700521866512126e+00
2.474700521866512126e+00
2.332571184423352761e+00
2.332571184423352761e+00
2.326383495590075512e+00
2.462325144199957183e+00
2.462325144199957183e+00
2.562828211310159254e+00
2.562828211310159254e+00
2.564515762810144484e+00
2.466262764366588645e+00
2.466262764366588645e+00
2.367072237311929506e+00
2.367072237311929506e+00
2.394635578478347071e+00
2.585891415143284355e+00
2.585891415143284355e+00
2.586078920865504838e+00
2.520639423810540958e+00
2.520639423810540958e+00
2.517826837977233279e+00
2.517826837977233279e+00
2.554015442365794808e+00
2.595454206976531619e+00
2.595454206976531619e+00
2.502826380199591139e+00
2.502826380199591139e+00
2.479388164922025517e+00
2.509764091921750762e+00
2.509764091921750762e+00
2.405323404644917229e+00
2.405323404644917229e+00
2.449387249366740793e+00
2.404198370311593891e+00
2.404198370311593891e+00
2.492701071199682428e+00
2.552702902310250987e+00
2.552702902310250987e+00
2.563765739921262110e+00
2.563765739921262110e+00
2.566203314310129269e+00
2.569765923032319321e+00
2.569765923032319321e+00
2.551015350810266202e+00
2.551015350810266202e+00
2.497576219977416301e+00
2.400823267311624321e+00
2.400823267311624321e+00
2.423136448255867048e+00
2.423136448255867048e+00
2.501701345866268245e+00
2.454449903866695148e+00
2.454449903866695148e+00
2.435136814477980582e+00
2.435136814477980582e+00
2.465512741477706271e+00
2.550077822199164235e+00
2.550077822199164235e+00
2.520826929532761884e+00
2.451824823755607952e+00
2.451824823755607952e+00
2.479950682088686964e+00
2.552327890865810023e+00
2.552327890865810023e+00
2.599204321420941710e+00
2.608767113254188974e+00
2.608767113254188974e+00
2.545765190588091809e+00
2.449012237922299828e+00
2.449012237922299828e+00
2.442637043366802097e+00
2.442637043366802097e+00
2.461762627033295736e+00
2.453512375255592737e+00
2.453512375255592737e+00
2.489700979644154266e+00
2.489700979644154266e+00
2.380572649311807787e+00
2.441136997589037794e+00
2.441136997589037794e+00
2.512201666310617476e+00
2.512201666310617476e+00
2.458012512588885201e+00
2.411886104922635443e+00
2.411886104922635443e+00
2.547827753532517558e+00
2.547827753532517558e+00
2.555702993865779593e+00
2.540327524643696488e+00
2.540327524643696488e+00
2.578578691976683768e+00
2.554390453810235773e+00
2.554390453810235773e+00
2.437574388866847741e+00
2.437574388866847741e+00
2.462512649922177665e+00
2.497013702810754854e+00
2.497013702810754854e+00
2.534889858699301168e+00
2.534889858699301168e+00
2.466825281533250092e+00
2.423698965422528495e+00
2.423698965422528495e+00
2.447699697866756008e+00
2.447699697866756008e+00
2.484450819421979428e+00
2.575203588976714197e+00
2.575203588976714197e+00
2.545952696310312291e+00
2.545952696310312291e+00
2.456324961088900860e+00
2.404948393200476264e+00
2.404948393200476264e+00
2.488763451033051854e+00
2.486325876644184696e+00
2.486325876644184696e+00
2.506201483199560265e+00
2.519326883754997581e+00
2.519326883754997581e+00
2.542390087588122238e+00
2.548577776421399932e+00
2.548577776421399932e+00
2.547827753532517558e+00
2.547827753532517558e+00
2.515576769310586602e+00
2.506388988921781191e+00
2.506388988921781191e+00
2.532452284310434454e+00
2.532452284310434454e+00
2.526639606921598169e+00
2.447137180700094561e+00
2.447137180700094561e+00
2.417323770867030763e+00
2.380947660756248752e+00
2.380947660756248752e+00
2.441136997589037794e+00
2.441136997589037794e+00
2.569765923032319321e+00
2.588704000976592479e+00
2.588704000976592479e+00
2.542390087588122238e+00
2.542390087588122238e+00
2.462137638477736701e+00
2.394635578478347071e+00
2.394635578478347071e+00
2.302570268868068482e+00
2.302570268868068482e+00
2.316070680867946319e+00
2.346821619312112972e+00
2.346821619312112972e+00
2.610079653309732350e+00
2.767771965697195302e+00
2.767771965697195302e+00
2.737396038697470058e+00
2.737396038697470058e+00
2.667831415753654234e+00
2.519326883754997581e+00
2.519326883754997581e+00
2.410386059144871140e+00
2.476200567644276429e+00
2.476200567644276429e+00
2.488763451033051854e+00
2.488763451033051854e+00
2.452949858088931290e+00
2.397448164311655194e+00
2.397448164311655194e+00
2.435324320200201509e+00
2.435324320200201509e+00
2.435136814477980582e+00
2.458200018311105683e+00
2.458200018311105683e+00
2.437574388866847741e+00
2.536202398754844989e+00
2.536202398754844989e+00
2.512576677755058441e+00
2.512576677755058441e+00
2.539389996032593633e+00
2.562828211310159254e+00
2.562828211310159254e+00
2.569578417310098839e+00
2.569578417310098839e+00
2.511451643421735547e+00
2.493451094088564801e+00
2.493451094088564801e+00
2.529077181310464884e+00
2.529077181310464884e+00
2.535452375865963059e+00
2.479575670644245999e+00
2.479575670644245999e+00
2.398948210089419053e+00
2.435136814477980582e+00
2.435136814477980582e+00
2.374947477645191540e+00
2.374947477645191540e+00
2.456699972533341381e+00
2.580641254921109962e+00
2.580641254921109962e+00
2.572953520310068409e+00
2.556640522476882449e+00
2.556640522476882449e+00
2.481638233588671305e+00
2.481638233588671305e+00
2.458950041199987613e+00
2.479200659199805035e+00
2.479200659199805035e+00
2.490826013977477604e+00
2.490826013977477604e+00
2.521951963866084778e+00
2.539389996032593633e+00
2.539389996032593633e+00
2.494201116977446731e+00
2.494201116977446731e+00
2.449012237922299828e+00
2.423323953978087530e+00
2.423323953978087530e+00
2.356571916867580274e+00
2.356571916867580274e+00
2.370072328867458111e+00
2.510139103366191726e+00
2.510139103366191726e+00
2.597329264198736443e+00
2.597329264198736443e+00
2.622830042420728258e+00
2.589266518143253926e+00
2.589266518143253926e+00
2.520076906643879511e+00
2.528327158421582510e+00
2.528327158421582510e+00
2.515764275032807085e+00
2.515764275032807085e+00
2.474138004699850679e+00
2.470387890255439700e+00
2.470387890255439700e+00
2.378322580645161111e+00
2.378322580645161111e+00
2.340071413312173831e+00
2.420323862422559369e+00
2.420323862422559369e+00
2.513326700643940814e+00
2.513326700643940814e+00
2.613454756309701921e+00
2.644955717642750059e+00
2.644955717642750059e+00
2.555890499588000075e+00
2.510701620532853173e+00
2.510701620532853173e+00
2.466075258644368162e+00
2.466075258644368162e+00
2.462325144199957183e+00
2.467200292977691056e+00
2.467200292977691056e+00
2.370259834589678594e+00
2.370259834589678594e+00
2.428949125644703777e+00
2.483325785088656090e+00
2.483325785088656090e+00
2.510514114810632691e+00
2.510514114810632691e+00
2.513326700643940814e+00
2.501701345866268245e+00
2.501701345866268245e+00
2.523076998199408116e+00
2.526639606921598169e+00
2.526639606921598169e+00
2.541077547532578418e+00
2.541077547532578418e+00
2.629580248420667399e+00
2.570890957365642215e+00
2.570890957365642215e+00
2.482950773644215126e+00
2.482950773644215126e+00
2.398948210089419053e+00
2.418636310922574584e+00
2.418636310922574584e+00
2.476013061922055947e+00
2.476013061922055947e+00
2.444512100589007364e+00
2.493263588366343875e+00
2.493263588366343875e+00
2.499826288644062977e+00
2.499826288644062977e+00
2.465325235755485789e+00
2.460637592699972398e+00
2.460637592699972398e+00
2.477325601977599767e+00
2.548952787865840897e+00
2.548952787865840897e+00
2.514076723532822744e+00
2.514076723532822744e+00
2.525514572588274831e+00
2.521389446699423331e+00
2.521389446699423331e+00
2.483325785088656090e+00
2.483325785088656090e+00
2.419761345255897922e+00
2.444699606311227846e+00
2.444699606311227846e+00
2.497013702810754854e+00
2.497013702810754854e+00
2.486325876644184696e+00
2.540515030365916971e+00
2.540515030365916971e+00
2.517076815088350905e+00
2.517076815088350905e+00
2.514826746421705117e+00
2.541265053254798900e+00
2.541265053254798900e+00
2.560578142643513466e+00
2.504701437421796406e+00
2.504701437421796406e+00
2.498701254310739639e+00
2.498701254310739639e+00
2.511826654866176511e+00
2.444137089144566399e+00
2.444137089144566399e+00
2.327883541367839371e+00
2.327883541367839371e+00
2.360884548478652700e+00
2.449574755088961275e+00
2.449574755088961275e+00
2.585516403698843391e+00
2.585516403698843391e+00
2.599766838587603157e+00
2.530952238532670151e+00
2.530952238532670151e+00
2.495326151310770069e+00
2.495326151310770069e+00
2.463075167088839557e+00
2.499826288644062977e+00
2.499826288644062977e+00
2.559828119754631537e+00
2.549702810754722826e+00
2.549702810754722826e+00
2.471325418866542556e+00
2.471325418866542556e+00
2.473762993255409270e+00
2.376072511978514878e+00
2.376072511978514878e+00
2.435511825922421991e+00
2.530389721366008260e+00
2.530389721366008260e+00
2.567515854365672645e+00
2.567515854365672645e+00
2.549702810754722826e+00
2.515201757866145638e+00
2.515201757866145638e+00
2.472450453199865894e+00
2.472450453199865894e+00
2.433261757255775315e+00
2.418073793755913137e+00
2.418073793755913137e+00
2.443574571977904952e+00
2.443574571977904952e+00
2.472637958922086376e+00
2.521389446699423331e+00
2.521389446699423331e+00
2.582328806421094747e+00
2.582328806421094747e+00
2.559828119754631537e+00
2.491951048310800498e+00
2.491951048310800498e+00
2.462887661366619074e+00
2.468137821588793912e+00
2.468137821588793912e+00
2.498326242866298674e+00
2.498326242866298674e+00
2.500576311532944906e+00
2.498138737144077748e+00
2.455949949644459451e+00
2.455949949644459451e+00
2.400635761589403838e+00
2.400635761589403838e+00
2.433824274422437206e+00
2.435136814477980582e+00
2.435136814477980582e+00
2.512201666310617476e+00
2.540140018921475562e+00
2.540140018921475562e+00
2.567703360087893572e+00
2.567703360087893572e+00
2.576141117587817053e+00
2.519326883754997581e+00
2.519326883754997581e+00
2.494201116977446731e+00
2.494201116977446731e+00
2.451449812311166987e+00
2.453137363811151772e+00
2.453137363811151772e+00
2.439261940366832526e+00
2.439261940366832526e+00
2.479200659199805035e+00
2.522701986754967152e+00
2.522701986754967152e+00
2.560390636921292984e+00
2.560390636921292984e+00
2.554015442365794808e+00
2.506013977477339782e+00
2.506013977477339782e+00
2.528327158421582510e+00
2.528327158421582510e+00
2.472075441755424485e+00
2.433636768700216724e+00
2.433636768700216724e+00
2.437199377422406776e+00
2.424073976866969904e+00
2.424073976866969904e+00
2.491013519699698087e+00
2.491013519699698087e+00
2.541265053254798900e+00
2.535452375865963059e+00
2.535452375865963059e+00
2.492138554033020981e+00
2.492138554033020981e+00
2.487825922421948999e+00
2.425949034089175171e+00
2.425949034089175171e+00
2.429324137089144742e+00
2.429324137089144742e+00
2.442262031922361132e+00
2.537139927365947845e+00
2.537139927365947845e+00
2.610642170476393797e+00
2.501326334421826836e+00
2.501326334421826836e+00
2.531139744254890633e+00
2.531139744254890633e+00
2.525327066866054349e+00
2.482950773644215126e+00
2.482950773644215126e+00
2.476388073366496911e+00
2.476388073366496911e+00
2.464200201422162451e+00
2.432511734366893830e+00
2.432511734366893830e+00
2.445637134922330258e+00
2.445637134922330258e+00
2.456324961088900860e+00
2.474513016144291644e+00
2.474513016144291644e+00
2.512201666310617476e+00
2.538452467421491221e+00
2.538452467421491221e+00
2.564703268532364966e+00
2.564703268532364966e+00
2.555327982421338628e+00
2.558890591143528681e+00
2.558890591143528681e+00
2.495888668477431516e+00
2.495888668477431516e+00
2.474138004699850679e+00
2.509389080477309353e+00
2.509389080477309353e+00
2.485575853755302767e+00
2.485575853755302767e+00
2.449762260811182202e+00
2.443949583422345917e+00
2.443949583422345917e+00
2.426699056978057101e+00
2.414136173589282119e+00
2.414136173589282119e+00
2.419198828089236475e+00
2.419198828089236475e+00
2.494576128421887695e+00
2.576516129032258018e+00
2.576516129032258018e+00
2.553640430921353843e+00
2.553640430921353843e+00
2.517451826532791870e+00
2.516139286477248493e+00
2.516139286477248493e+00
2.448449720755638381e+00
2.467200292977691056e+00
2.467200292977691056e+00
2.479575670644245999e+00
2.479575670644245999e+00
2.495326151310770069e+00
2.518014343699453761e+00
2.518014343699453761e+00
2.531702261421552080e+00
2.531702261421552080e+00
2.535827387310404024e+00
2.506764000366222156e+00
2.506764000366222156e+00
2.488763451033051854e+00
2.486138370921964214e+00
2.486138370921964214e+00
2.436449354533524403e+00
2.436449354533524403e+00
2.406635944700461049e+00
2.535264870143742133e+00
2.535264870143742133e+00
2.523076998199408116e+00
2.523076998199408116e+00
2.578766197698904250e+00
2.532264778588213971e+00
2.532264778588213971e+00
2.478825647755364070e+00
2.478825647755364070e+00
2.454824915311136557e+00
2.426136539811395654e+00
2.426136539811395654e+00
2.395573107089449927e+00
2.395573107089449927e+00
2.384135258033997840e+00
2.377947569200720146e+00
2.377947569200720146e+00
2.473200476088747823e+00
2.566390820032349751e+00
2.566390820032349751e+00
2.583453840754417641e+00
2.583453840754417641e+00
2.585516403698843391e+00
2.589454023865474408e+00
2.589454023865474408e+00
2.555515488143559111e+00
2.555515488143559111e+00
2.503951414532914033e+00
2.496076174199651998e+00
2.496076174199651998e+00
2.431011688589129527e+00
2.431011688589129527e+00
2.388260383922848895e+00
2.435886837366862956e+00
2.435886837366862956e+00
2.482575762199774161e+00
2.482575762199774161e+00
2.548202764976958523e+00
2.442824549089022579e+00
2.442824549089022579e+00
2.450887295144505096e+00
2.504513931699575480e+00
2.504513931699575480e+00
2.502451368755150174e+00
2.502451368755150174e+00
2.527389629810480098e+00
2.561703176976836804e+00
2.561703176976836804e+00
2.545577684865871326e+00
2.545577684865871326e+00
2.527952146977141545e+00
2.529264687032685366e+00
2.529264687032685366e+00
2.501701345866268245e+00
2.501701345866268245e+00
2.485200842310861358e+00
2.466075258644368162e+00
2.466075258644368162e+00
2.459137546922208095e+00
2.475825556199835464e+00
2.475825556199835464e+00
2.442074526200140649e+00
2.442074526200140649e+00
2.455012421033357040e+00
2.527014618366038690e+00
2.527014618366038690e+00
2.522326975310525743e+00
2.522326975310525743e+00
2.517264320810571387e+00
2.519701895199438546e+00
2.519701895199438546e+00
2.495513657032990551e+00
2.495513657032990551e+00
2.452387340922269399e+00
2.408698507644886799e+00
2.408698507644886799e+00
2.453324869533372254e+00
2.507514023255104085e+00
2.507514023255104085e+00
2.470575395977660182e+00
2.470575395977660182e+00
2.461200109866634289e+00
2.452574846644489881e+00
2.452574846644489881e+00
2.487825922421948999e+00
2.487825922421948999e+00
2.551765373699148576e+00
2.566203314310129269e+00
2.566203314310129269e+00
2.554577959532456255e+00
2.554577959532456255e+00
2.555890499588000075e+00
2.511451643421735547e+00
2.511451643421735547e+00
2.485950865199743731e+00
2.485950865199743731e+00
2.393698049867244659e+00
2.384697775200659287e+00
2.384697775200659287e+00
2.423323953978087530e+00
2.517076815088350905e+00
2.517076815088350905e+00
2.523827021088290046e+00
2.523827021088290046e+00
2.514451734977264152e+00
2.499263771477401086e+00
2.499263771477401086e+00
2.504513931699575480e+00
2.504513931699575480e+00
2.521389446699423331e+00
2.512389172032837958e+00
2.512389172032837958e+00
2.495326151310770069e+00
2.500388805810724424e+00
2.500388805810724424e+00
2.481825739310891787e+00
2.481825739310891787e+00
2.440949491866817311e+00
2.464387707144383377e+00
2.464387707144383377e+00
2.474700521866512126e+00
2.474700521866512126e+00
2.526827112643818651e+00
2.523639515366069563e+00
2.523639515366069563e+00
2.518014343699453761e+00
2.512201666310617476e+00
2.512201666310617476e+00
2.505263954588457853e+00
2.505263954588457853e+00
2.511076631977294138e+00
2.534139835810419239e+00
2.534139835810419239e+00
2.554577959532456255e+00
2.554577959532456255e+00
2.442449537644581614e+00
2.429699148533585706e+00
2.429699148533585706e+00
2.434199285866878171e+00
2.434199285866878171e+00
2.476950590533158358e+00
2.491576036866359534e+00
2.491576036866359534e+00
2.492326059755241463e+00
2.490263496810816157e+00
2.490263496810816157e+00
2.467012787255470574e+00
2.467012787255470574e+00
2.437574388866847741e+00
2.496638691366313889e+00
2.496638691366313889e+00
2.542390087588122238e+00
2.542390087588122238e+00
2.556265511032441040e+00
2.570515945921201251e+00
2.570515945921201251e+00
2.528702169866023475e+00
2.528702169866023475e+00
2.493451094088564801e+00
2.488013428144169481e+00
2.488013428144169481e+00
2.483325785088656090e+00
2.483325785088656090e+00
2.470575395977660182e+00
2.462887661366619074e+00
2.462887661366619074e+00
2.442449537644581614e+00
2.447137180700094561e+00
2.447137180700094561e+00
2.451074800866725578e+00
2.451074800866725578e+00
2.475638050477614982e+00
2.500576311532944906e+00
2.500576311532944906e+00
2.500388805810724424e+00
2.518576860866115208e+00
2.518576860866115208e+00
2.539202490310373150e+00
2.539202490310373150e+00
2.554952970976897664e+00
2.569015900143436948e+00
2.569015900143436948e+00
2.531514755699331598e+00
2.531514755699331598e+00
2.473575487533188788e+00
2.483513290810876573e+00
2.483513290810876573e+00
2.467762810144352947e+00
2.467762810144352947e+00
2.408323496200445835e+00
2.391072969756157018e+00
2.391072969756157018e+00
2.463825189977721486e+00
2.463825189977721486e+00
2.488763451033051854e+00
2.493826105533005766e+00
2.493826105533005766e+00
2.521389446699423331e+00
2.524202032532731454e+00
2.524202032532731454e+00
2.517639332255012796e+00
2.517639332255012796e+00
2.527389629810480098e+00
2.551765373699148576e+00
2.551765373699148576e+00
2.520639423810540958e+00
2.520639423810540958e+00
2.492138554033020981e+00
2.464387707144383377e+00
2.464387707144383377e+00
2.415823725089266905e+00
2.415823725089266905e+00
2.419948850978118404e+00
2.453512375255592737e+00
2.453512375255592737e+00
2.467200292977691056e+00
2.482013245033112270e+00
2.482013245033112270e+00
2.497763725699636783e+00
2.497763725699636783e+00
2.510326609088412209e+00
2.500388805810724424e+00
2.500388805810724424e+00
2.470575395977660182e+00
2.470575395977660182e+00
2.506388988921781191e+00
2.510701620532853173e+00
2.510701620532853173e+00
2.531702261421552080e+00
2.531702261421552080e+00
2.592079103976562049e+00
2.566578325754570233e+00
2.566578325754570233e+00
2.515576769310586602e+00
2.515576769310586602e+00
2.467012787255470574e+00
2.423136448255867048e+00
2.423136448255867048e+00
2.422573931089205601e+00
2.358446974089785542e+00
2.358446974089785542e+00
2.410198553422650658e+00
2.410198553422650658e+00
2.527577135532700581e+00
2.566203314310129269e+00
2.566203314310129269e+00
2.567328348643452163e+00
2.567328348643452163e+00
2.560765648365733949e+00
2.513514206366161297e+00
2.513514206366161297e+00
2.477325601977599767e+00
2.480325693533127485e+00
2.480325693533127485e+00
2.461012604144413807e+00
2.461012604144413807e+00
2.488388439588610446e+00
2.509951597643971244e+00
2.509951597643971244e+00
2.440761986144596829e+00
2.440761986144596829e+00
2.446199652088991705e+00
2.465512741477706271e+00
2.465512741477706271e+00
2.447887203588976490e+00
2.447887203588976490e+00
2.480513199255348411e+00
2.513701712088381779e+00
2.513701712088381779e+00
2.505638966032898818e+00
2.586266426587725320e+00
2.586266426587725320e+00
2.587016449476607249e+00
2.587016449476607249e+00
2.530389721366008260e+00
2.532264778588213971e+00
2.532264778588213971e+00
2.488013428144169481e+00
2.488013428144169481e+00
2.464950224311044824e+00
2.462512649922177665e+00
2.462512649922177665e+00
2.452574846644489881e+00
2.452574846644489881e+00
2.459325052644428578e+00
2.445074617755668811e+00
2.445074617755668811e+00
2.420886379589221260e+00
2.420886379589221260e+00
2.448637226477858864e+00
2.499263771477401086e+00
2.499263771477401086e+00
2.479388164922025517e+00
2.483138279366435608e+00
2.483138279366435608e+00
2.508826563310647906e+00
2.508826563310647906e+00
2.539577501754814115e+00
2.531514755699331598e+00
2.531514755699331598e+00
2.523264503921628599e+00
2.523264503921628599e+00
2.531702261421552080e+00
2.526452101199377687e+00
2.526452101199377687e+00
2.511264137699515064e+00
2.511264137699515064e+00
2.476200567644276429e+00
2.453887386700033701e+00
2.453887386700033701e+00
2.476575579088717394e+00
2.476575579088717394e+00
2.488013428144169481e+00
2.477513107699820250e+00
2.477513107699820250e+00
2.495513657032990551e+00
2.497201208532975336e+00
2.497201208532975336e+00
2.509201574755088870e+00
2.509201574755088870e+00
2.493451094088564801e+00
2.470950407422101591e+00
2.470950407422101591e+00
2.451449812311166987e+00
2.451449812311166987e+00
2.469075350199895880e+00
2.486888393810846587e+00
2.486888393810846587e+00
2.496638691366313889e+00
2.496638691366313889e+00
2.452387340922269399e+00
2.441136997589037794e+00
2.441136997589037794e+00
2.526639606921598169e+00
2.565453291421246895e+00
2.565453291421246895e+00
2.567328348643452163e+00
2.567328348643452163e+00
2.547827753532517558e+00
2.524577043977172419e+00
2.524577043977172419e+00
2.474888027588732609e+00
2.474888027588732609e+00
2.460825098422192880e+00
2.421261391033662225e+00
2.421261391033662225e+00
2.431949217200232383e+00
2.431949217200232383e+00
2.443762077700125435e+00
2.447137180700094561e+00
2.447137180700094561e+00
2.475075533310953091e+00
2.466450270088809127e+00
2.466450270088809127e+00
2.494576128421887695e+00
2.494576128421887695e+00
2.545577684865871326e+00
2.553640430921353843e+00
2.553640430921353843e+00
2.575578600421155162e+00
2.575578600421155162e+00
2.581391277809991891e+00
2.553827936643574326e+00
2.553827936643574326e+00
2.518951872310556173e+00
2.518951872310556173e+00
2.494201116977446731e+00
2.471700430310983521e+00
2.471700430310983521e+00
2.460075075533310951e+00
2.460075075533310951e+00
2.450512283700064131e+00
2.437199377422406776e+00
2.437199377422406776e+00
2.450699789422284613e+00
2.467575304422132465e+00
2.467575304422132465e+00
2.514076723532822744e+00
2.514076723532822744e+00
2.483325785088656090e+00
2.486888393810846587e+00
2.486888393810846587e+00
2.500388805810724424e+00
2.477138096255378841e+00
2.452199835200048916e+00
2.452199835200048916e+00
2.464012695699941968e+00
2.464012695699941968e+00
2.450512283700064131e+00
2.463075167088839557e+00
2.463075167088839557e+00
2.487825922421948999e+00
2.487825922421948999e+00
2.486513382366405178e+00
2.477325601977599767e+00
2.477325601977599767e+00
2.461950132755516218e+00
2.461950132755516218e+00
2.464387707144383377e+00
2.503951414532914033e+00
2.503951414532914033e+00
2.485013336588640875e+00
2.483325785088656090e+00
2.483325785088656090e+00
2.579891232032227588e+00
2.579891232032227588e+00
2.562640705587938772e+00
2.543890133365886541e+00
2.543890133365886541e+00
2.537702444532609292e+00
2.537702444532609292e+00
2.516514297921689458e+00
2.478263130588702179e+00
2.478263130588702179e+00
2.441887020477920167e+00
2.441887020477920167e+00
2.439636951811273491e+00
2.461200109866634289e+00
2.461200109866634289e+00
2.453512375255592737e+00
2.442637043366802097e+00
2.442637043366802097e+00
2.486325876644184696e+00
2.486325876644184696e+00
2.508451551866206941e+00
2.521764458143864296e+00
2.521764458143864296e+00
2.566953337199011198e+00
2.566953337199011198e+00
2.589266518143253926e+00
2.522701986754967152e+00
2.522701986754967152e+00
2.470387890255439700e+00
2.470387890255439700e+00
2.447512192144535526e+00
2.448262215033417899e+00
2.448262215033417899e+00
2.461012604144413807e+00
2.461012604144413807e+00
2.450324777977843649e+00
2.457074983977782345e+00
2.484450819421979428e+00
2.484450819421979428e+00
2.495888668477431516e+00
2.500951322977385871e+00
2.500951322977385871e+00
2.512576677755058441e+00
2.512576677755058441e+00
2.550827845088045720e+00
2.554015442365794808e+00
2.554015442365794808e+00
2.519701895199438546e+00
2.491388531144139051e+00
2.491388531144139051e+00
2.459137546922208095e+00
2.459137546922208095e+00
2.451449812311166987e+00
2.461200109866634289e+00
2.461200109866634289e+00
2.435136814477980582e+00
2.435136814477980582e+00
2.432136722922452865e+00
2.438136906033509188e+00
2.438136906033509188e+00
2.468325327311013950e+00
2.515389263588366120e+00
2.515389263588366120e+00
2.551765373699148576e+00
2.551765373699148576e+00
2.551202856532486685e+00
2.562078188421277325e+00
2.562078188421277325e+00
2.541077547532578418e+00
2.541077547532578418e+00
2.512014160588396994e+00
2.494951139866329104e+00
2.494951139866329104e+00
2.480513199255348411e+00
2.470950407422101591e+00
2.470950407422101591e+00
2.459700064088869986e+00
2.459700064088869986e+00
2.438136906033509188e+00
2.464200201422162451e+00
2.464200201422162451e+00
2.466262764366588645e+00
2.460825098422192880e+00
2.460825098422192880e+00
2.474700521866512126e+00
2.474700521866512126e+00
2.501138828699606353e+00
2.489513473921933784e+00
2.489513473921933784e+00
2.509951597643971244e+00
2.509951597643971244e+00
2.566765831476790716e+00
2.570703451643421733e+00
2.570703451643421733e+00
2.528702169866023475e+00
2.528702169866023475e+00
2.526452101199377687e+00
2.485575853755302767e+00
2.485575853755302767e+00
2.505451460310678335e+00
2.437761894589068223e+00
2.437761894589068223e+00
2.359384502700888397e+00
2.359384502700888397e+00
2.375509994811853431e+00
2.443762077700125435e+00
2.443762077700125435e+00
2.480138187810907002e+00
2.480138187810907002e+00
2.508264046143986459e+00
2.545577684865871326e+00
2.545577684865871326e+00
2.532077272865993045e+00
2.486138370921964214e+00
2.486138370921964214e+00
2.472075441755424485e+00
2.472075441755424485e+00
2.452949858088931290e+00
2.479575670644245999e+00
2.479575670644245999e+00
2.517826837977233279e+00
2.517826837977233279e+00
2.495138645588549586e+00
2.491576036866359534e+00
2.491576036866359534e+00
2.497576219977416301e+00
2.480513199255348411e+00
2.480513199255348411e+00
2.504888943144016888e+00
2.504888943144016888e+00
2.532452284310434454e+00
2.540515030365916971e+00
2.540515030365916971e+00
2.549702810754722826e+00
2.549702810754722826e+00
2.521201940977202849e+00
2.499451277199621568e+00
