2.473950498977630197e+00
2.447137180700094561e+00
2.447137180700094561e+00
2.447137180700094561e+00
2.427636585589159957e+00
2.427636585589159957e+00
2.427636585589159957e+00
2.414511185033723084e+00
2.414511185033723084e+00
2.414511185033723084e+00
2.414511185033723084e+00
2.443574571977904952e+00
2.443574571977904952e+00
2.443574571977904952e+00
2.524764549699392902e+00
2.524764549699392902e+00
2.524764549699392902e+00
2.524764549699392902e+00
2.552702902310250987e+00
2.552702902310250987e+00
2.552702902310250987e+00
2.578391186254463285e+00
2.578391186254463285e+00
2.578391186254463285e+00
2.580641254921109962e+00
2.580641254921109962e+00
2.580641254921109962e+00
2.580641254921109962e+00
2.561328165532395840e+00
2.561328165532395840e+00
2.561328165532395840e+00
2.509201574755088870e+00
2.509201574755088870e+00
2.509201574755088870e+00
2.509201574755088870e+00
2.494201116977446731e+00
2.494201116977446731e+00
2.494201116977446731e+00
2.463637684255501004e+00
2.463637684255501004e+00
2.463637684255501004e+00
2.463637684255501004e+00
2.457637501144443792e+00
2.457637501144443792e+00
2.457637501144443792e+00
2.466637775811029609e+00
2.466637775811029609e+00
2.466637775811029609e+00
2.479013153477584552e+00
2.479013153477584552e+00
2.479013153477584552e+00
2.479013153477584552e+00
2.497763725699636783e+00
2.497763725699636783e+00
2.497763725699636783e+00
2.481450727866450823e+00
2.481450727866450823e+00
2.481450727866450823e+00
2.481450727866450823e+00
2.473387981810968306e+00
2.473387981810968306e+00
2.473387981810968306e+00
2.524202032532731454e+00
2.524202032532731454e+00
2.524202032532731454e+00
2.524202032532731454e+00
2.548390270699179450e+00
2.548390270699179450e+00
2.548390270699179450e+00
2.592829126865443978e+00
2.592829126865443978e+00
2.592829126865443978e+00
2.584766380809961461e+00
2.584766380809961461e+00
2.584766380809961461e+00
2.584766380809961461e+00
2.548202764976958523e+00
2.548202764976958523e+00
2.548202764976958523e+00
2.522514481032746669e+00
2.522514481032746669e+00
2.522514481032746669e+00
2.522514481032746669e+00
2.500576311532944906e+00
2.500576311532944906e+00
2.500576311532944906e+00
2.472262947477644968e+00
2.472262947477644968e+00
2.472262947477644968e+00
2.472262947477644968e+00
2.454262398144474666e+00
2.454262398144474666e+00
2.454262398144474666e+00
2.446949674977874079e+00
2.446949674977874079e+00
2.470950407422101591e+00
2.470950407422101591e+00
2.470950407422101591e+00
2.470950407422101591e+00
2.447699697866756008e+00
2.447699697866756008e+00
2.447699697866756008e+00
2.451637318033387469e+00
2.451637318033387469e+00
2.451637318033387469e+00
2.451637318033387469e+00
2.493451094088564801e+00
2.493451094088564801e+00
2.493451094088564801e+00
2.513326700643940814e+00
2.513326700643940814e+00
2.513326700643940814e+00
2.504888943144016888e+00
2.504888943144016888e+00
2.504888943144016888e+00
2.504888943144016888e+00
2.549515305032502344e+00
2.549515305032502344e+00
2.549515305032502344e+00
2.532452284310434454e+00
2.532452284310434454e+00
2.532452284310434454e+00
2.500951322977385871e+00
2.500951322977385871e+00
2.500951322977385871e+00
2.500951322977385871e+00
2.516139286477248493e+00
2.516139286477248493e+00
2.516139286477248493e+00
2.515764275032807085e+00
2.515764275032807085e+00
2.515764275032807085e+00
2.515764275032807085e+00
2.498701254310739639e+00
2.498701254310739639e+00
2.498701254310739639e+00
2.496826197088534371e+00
2.496826197088534371e+00
2.496826197088534371e+00
2.517826837977233279e+00
2.517826837977233279e+00
2.517826837977233279e+00
2.494388622699667213e+00
2.494388622699667213e+00
2.494388622699667213e+00
2.494388622699667213e+00
2.497013702810754854e+00
2.497013702810754854e+00
2.497013702810754854e+00
2.484263313699758946e+00
2.484263313699758946e+00
2.484263313699758946e+00
2.484263313699758946e+00
2.532264778588213971e+00
2.532264778588213971e+00
2.532264778588213971e+00
2.537514938810388809e+00
2.537514938810388809e+00
2.537514938810388809e+00
2.537514938810388809e+00
2.548202764976958523e+00
2.548202764976958523e+00
2.548202764976958523e+00
2.589454023865474408e+00
2.589454023865474408e+00
2.589454023865474408e+00
2.581016266365550926e+00
2.581016266365550926e+00
2.581016266365550926e+00
2.581016266365550926e+00
2.503201391644032547e+00
2.503201391644032547e+00
2.503201391644032547e+00
2.472262947477644968e+00
2.472262947477644968e+00
2.472262947477644968e+00
2.472262947477644968e+00
2.481450727866450823e+00
2.481450727866450823e+00
2.481450727866450823e+00
2.477325601977599767e+00
2.477325601977599767e+00
2.477325601977599767e+00
2.482388256477553679e+00
2.482388256477553679e+00
2.482388256477553679e+00
2.482388256477553679e+00
2.511826654866176511e+00
2.511826654866176511e+00
2.511826654866176511e+00
2.516701803643909940e+00
2.516701803643909940e+00
2.516701803643909940e+00
2.516701803643909940e+00
2.494013611255226248e+00
2.494013611255226248e+00
2.494013611255226248e+00
2.518764366588335690e+00
2.518764366588335690e+00
2.518764366588335690e+00
2.540515030365916971e+00
2.540515030365916971e+00
2.540515030365916971e+00
2.540515030365916971e+00
2.525702078310495757e+00
2.525702078310495757e+00
2.525702078310495757e+00
2.538452467421491221e+00
2.538452467421491221e+00
2.538452467421491221e+00
2.538452467421491221e+00
2.540702536088137453e+00
2.540702536088137453e+00
2.540702536088137453e+00
2.496076174199651998e+00
2.496076174199651998e+00
2.496076174199651998e+00
2.496076174199651998e+00
2.453324869533372254e+00
2.453324869533372254e+00
2.453324869533372254e+00
2.468512833033234433e+00
2.468512833033234433e+00
2.468512833033234433e+00
2.468887844477675397e+00
2.468887844477675397e+00
2.468887844477675397e+00
2.468887844477675397e+00
2.471512924588763038e+00
2.471512924588763038e+00
2.471512924588763038e+00
2.460075075533310951e+00
2.460075075533310951e+00
2.460075075533310951e+00
2.460075075533310951e+00
2.469262855922116806e+00
2.469262855922116806e+00
2.469262855922116806e+00
2.503201391644032547e+00
2.503201391644032547e+00
2.503201391644032547e+00
2.503763908810693550e+00
2.503763908810693550e+00
2.503763908810693550e+00
2.503763908810693550e+00
2.536389904477065471e+00
2.536389904477065471e+00
2.536389904477065471e+00
2.559640614032411055e+00
2.559640614032411055e+00
2.559640614032411055e+00
2.559640614032411055e+00
2.584016357921079532e+00
2.584016357921079532e+00
2.584016357921079532e+00
2.594891689809869728e+00
2.594891689809869728e+00
2.594891689809869728e+00
2.594891689809869728e+00
2.586453932309945802e+00
2.586453932309945802e+00
2.586453932309945802e+00
2.546515213476973738e+00
2.546515213476973738e+00
2.546515213476973738e+00
2.525327066866054349e+00
2.525327066866054349e+00
2.525327066866054349e+00
2.525327066866054349e+00
2.499451277199621568e+00
2.499451277199621568e+00
2.499451277199621568e+00
2.470200384533219218e+00
2.470200384533219218e+00
2.470200384533219218e+00
2.470200384533219218e+00
2.466825281533250092e+00
2.466825281533250092e+00
2.466825281533250092e+00
2.445824640644550740e+00
2.445824640644550740e+00
2.445824640644550740e+00
2.449387249366740793e+00
2.449387249366740793e+00
2.449387249366740793e+00
2.449387249366740793e+00
2.404198370311593891e+00
2.404198370311593891e+00
2.404198370311593891e+00
2.376447523422955843e+00
2.376447523422955843e+00
2.376447523422955843e+00
2.470950407422101591e+00
2.470950407422101591e+00
2.470950407422101591e+00
2.470950407422101591e+00
2.542015076143681274e+00
2.542015076143681274e+00
2.542015076143681274e+00
2.542390087588122238e+00
2.542390087588122238e+00
2.542390087588122238e+00
2.542390087588122238e+00
2.580266243476668553e+00
2.580266243476668553e+00
2.580266243476668553e+00
2.593766655476546834e+00
2.593766655476546834e+00
2.593766655476546834e+00
2.593766655476546834e+00
2.546890224921415147e+00
2.546890224921415147e+00
2.546890224921415147e+00
2.500388805810724424e+00
2.500388805810724424e+00
2.500388805810724424e+00
2.500201300088503942e+00
2.500201300088503942e+00
2.500201300088503942e+00
2.500201300088503942e+00
2.518576860866115208e+00
2.518576860866115208e+00
2.518576860866115208e+00
2.530952238532670151e+00
2.530952238532670151e+00
2.530952238532670151e+00
2.530952238532670151e+00
2.466637775811029609e+00
2.466637775811029609e+00
2.466637775811029609e+00
2.451449812311166987e+00
2.451449812311166987e+00
2.451449812311166987e+00
2.436449354533524403e+00
2.436449354533524403e+00
2.436449354533524403e+00
2.436449354533524403e+00
2.477325601977599767e+00
2.477325601977599767e+00
2.477325601977599767e+00
2.478450636310922661e+00
2.478450636310922661e+00
2.478450636310922661e+00
2.478450636310922661e+00
2.492138554033020981e+00
2.492138554033020981e+00
2.492138554033020981e+00
2.571265968810083624e+00
2.571265968810083624e+00
2.571265968810083624e+00
2.571265968810083624e+00
2.593204138309884943e+00
2.593204138309884943e+00
2.593204138309884943e+00
2.608392101809748009e+00
2.608392101809748009e+00
2.608392101809748009e+00
2.573891048921170377e+00
2.573891048921170377e+00
2.573891048921170377e+00
2.573891048921170377e+00
2.517076815088350905e+00
2.517076815088350905e+00
2.517076815088350905e+00
2.488575945310831372e+00
2.488575945310831372e+00
2.488575945310831372e+00
2.488575945310831372e+00
2.470012878810998735e+00
2.470012878810998735e+00
2.470012878810998735e+00
2.486513382366405178e+00
2.486513382366405178e+00
2.486513382366405178e+00
2.486513382366405178e+00
2.503951414532914033e+00
2.503951414532914033e+00
2.503951414532914033e+00
2.484825830866420393e+00
2.484825830866420393e+00
2.484825830866420393e+00
2.451262306588946061e+00
2.451262306588946061e+00
2.451262306588946061e+00
2.451262306588946061e+00
2.437386883144627259e+00
2.437386883144627259e+00
2.437386883144627259e+00
2.494388622699667213e+00
2.494388622699667213e+00
2.494388622699667213e+00
2.494388622699667213e+00
2.529077181310464884e+00
2.529077181310464884e+00
2.529077181310464884e+00
2.562640705587938772e+00
2.562640705587938772e+00
2.562640705587938772e+00
2.544265144810327506e+00
2.544265144810327506e+00
2.544265144810327506e+00
2.544265144810327506e+00
2.499638782921842051e+00
2.499638782921842051e+00
2.499638782921842051e+00
2.492701071199682428e+00
2.492701071199682428e+00
2.492701071199682428e+00
2.492701071199682428e+00
2.489513473921933784e+00
2.489513473921933784e+00
2.489513473921933784e+00
2.515576769310586602e+00
2.515576769310586602e+00
2.515576769310586602e+00
2.515576769310586602e+00
2.535639881588183542e+00
2.535639881588183542e+00
2.535639881588183542e+00
2.538827478865932186e+00
2.538827478865932186e+00
2.538827478865932186e+00
2.533952330088198757e+00
2.533952330088198757e+00
2.533952330088198757e+00
2.533952330088198757e+00
2.506951506088442638e+00
2.506951506088442638e+00
2.506951506088442638e+00
2.467200292977691056e+00
2.467200292977691056e+00
2.467200292977691056e+00
2.502076357310709209e+00
2.502076357310709209e+00
2.502076357310709209e+00
2.502076357310709209e+00
2.536389904477065471e+00
2.536389904477065471e+00
2.536389904477065471e+00
2.512201666310617476e+00
2.512201666310617476e+00
2.512201666310617476e+00
2.512201666310617476e+00
2.518951872310556173e+00
2.518951872310556173e+00
2.518951872310556173e+00
2.497013702810754854e+00
2.497013702810754854e+00
2.497013702810754854e+00
2.499076265755180604e+00
2.499076265755180604e+00
2.499076265755180604e+00
2.499076265755180604e+00
2.471512924588763038e+00
2.471512924588763038e+00
2.471512924588763038e+00
2.491763542588580016e+00
2.491763542588580016e+00
2.491763542588580016e+00
2.491763542588580016e+00
2.521389446699423331e+00
2.521389446699423331e+00
2.521389446699423331e+00
2.494388622699667213e+00
2.494388622699667213e+00
2.494388622699667213e+00
2.468512833033234433e+00
2.468512833033234433e+00
2.468512833033234433e+00
2.468512833033234433e+00
2.451262306588946061e+00
2.451262306588946061e+00
2.451262306588946061e+00
2.434761803033539618e+00
2.434761803033539618e+00
2.434761803033539618e+00
2.434761803033539618e+00
2.450512283700064131e+00
2.450512283700064131e+00
2.450512283700064131e+00
2.455012421033357040e+00
2.455012421033357040e+00
2.455012421033357040e+00
2.455012421033357040e+00
2.517451826532791870e+00
2.517451826532791870e+00
2.517451826532791870e+00
2.578016174810022321e+00
2.578016174810022321e+00
2.578016174810022321e+00
2.623392559587389705e+00
2.623392559587389705e+00
2.623392559587389705e+00
2.623392559587389705e+00
2.618517410809656276e+00
2.618517410809656276e+00
2.618517410809656276e+00
2.571640980254524589e+00
2.571640980254524589e+00
2.571640980254524589e+00
2.571640980254524589e+00
2.569015900143436948e+00
2.569015900143436948e+00
2.569015900143436948e+00
2.554390453810235773e+00
2.554390453810235773e+00
2.554390453810235773e+00
2.518764366588335690e+00
2.518764366588335690e+00
2.518764366588335690e+00
2.518764366588335690e+00
2.484075807977538464e+00
2.484075807977538464e+00
2.484075807977538464e+00
2.453137363811151772e+00
2.453137363811151772e+00
2.453137363811151772e+00
2.453137363811151772e+00
2.483325785088656090e+00
2.483325785088656090e+00
2.483325785088656090e+00
2.452762352366710363e+00
2.452762352366710363e+00
2.452762352366710363e+00
2.452762352366710363e+00
2.377197546311838217e+00
2.377197546311838217e+00
2.377197546311838217e+00
2.402323313089388623e+00
2.402323313089388623e+00
2.402323313089388623e+00
2.472450453199865894e+00
2.472450453199865894e+00
2.472450453199865894e+00
2.472450453199865894e+00
2.509014069032868388e+00
2.509014069032868388e+00
2.509014069032868388e+00
2.561328165532395840e+00
2.561328165532395840e+00
2.561328165532395840e+00
2.561328165532395840e+00
2.605954527420880851e+00
2.605954527420880851e+00
2.605954527420880851e+00
2.615892330698568635e+00
2.615892330698568635e+00
2.615892330698568635e+00
2.591141575365459193e+00
2.591141575365459193e+00
2.591141575365459193e+00
2.591141575365459193e+00
2.527389629810480098e+00
2.527389629810480098e+00
2.527389629810480098e+00
2.513889217810602261e+00
2.513889217810602261e+00
2.513889217810602261e+00
2.513889217810602261e+00
2.475638050477614982e+00
2.475638050477614982e+00
2.475638050477614982e+00
2.425949034089175171e+00
2.425949034089175171e+00
2.425949034089175171e+00
2.403260841700491479e+00
2.403260841700491479e+00
2.403260841700491479e+00
2.403260841700491479e+00
2.388822901089510786e+00
2.388822901089510786e+00
2.388822901089510786e+00
2.490826013977477604e+00
2.490826013977477604e+00
2.490826013977477604e+00
2.490826013977477604e+00
2.556640522476882449e+00
2.556640522476882449e+00
2.556640522476882449e+00
2.580266243476668553e+00
2.580266243476668553e+00
2.580266243476668553e+00
2.580266243476668553e+00
2.629017731254005508e+00
2.629017731254005508e+00
2.629017731254005508e+00
2.641768120365001415e+00
2.641768120365001415e+00
2.641768120365001415e+00
2.641768120365001415e+00
2.562453199865718290e+00
2.562453199865718290e+00
2.562453199865718290e+00
2.493076082644123392e+00
2.493076082644123392e+00
2.493076082644123392e+00
2.443949583422345917e+00
2.443949583422345917e+00
2.443949583422345917e+00
2.443949583422345917e+00
2.452199835200048916e+00
2.452199835200048916e+00
2.452199835200048916e+00
2.400823267311624321e+00
2.400823267311624321e+00
2.400823267311624321e+00
2.400823267311624321e+00
2.372884914700766235e+00
2.372884914700766235e+00
2.372884914700766235e+00
2.438886928922391562e+00
2.438886928922391562e+00
2.438886928922391562e+00
2.438886928922391562e+00
2.462700155644398592e+00
2.462700155644398592e+00
2.462700155644398592e+00
2.483325785088656090e+00
2.483325785088656090e+00
2.483325785088656090e+00
2.563390728476821145e+00
2.563390728476821145e+00
2.563390728476821145e+00
2.563390728476821145e+00
2.599766838587603157e+00
2.599766838587603157e+00
2.599766838587603157e+00
2.644580706198309095e+00
2.644580706198309095e+00
2.644580706198309095e+00
2.644580706198309095e+00
2.602954435865352245e+00
2.602954435865352245e+00
2.602954435865352245e+00
2.559453108310190128e+00
2.559453108310190128e+00
2.559453108310190128e+00
2.559453108310190128e+00
2.511639149143956029e+00
2.511639149143956029e+00
2.511639149143956029e+00
2.489325968199713301e+00
2.489325968199713301e+00
2.489325968199713301e+00
2.497576219977416301e+00
2.497576219977416301e+00
2.497576219977416301e+00
2.497576219977416301e+00
2.476575579088717394e+00
2.476575579088717394e+00
2.476575579088717394e+00
2.480138187810907002e+00
2.480138187810907002e+00
2.480138187810907002e+00
2.480138187810907002e+00
2.425199011200292798e+00
2.425199011200292798e+00
2.425199011200292798e+00
2.385447798089541660e+00
2.385447798089541660e+00
2.385447798089541660e+00
2.431949217200232383e+00
2.431949217200232383e+00
2.431949217200232383e+00
2.431949217200232383e+00
2.483513290810876573e+00
2.483513290810876573e+00
2.483513290810876573e+00
2.500201300088503942e+00
2.500201300088503942e+00
2.500201300088503942e+00
2.500201300088503942e+00
2.536389904477065471e+00
2.536389904477065471e+00
2.536389904477065471e+00
2.559265602587969646e+00
2.559265602587969646e+00
2.559265602587969646e+00
2.559265602587969646e+00
2.587766472365489623e+00
2.587766472365489623e+00
2.587766472365489623e+00
2.576891140476698983e+00
2.576891140476698983e+00
2.576891140476698983e+00
2.551577867976928093e+00
2.551577867976928093e+00
2.551577867976928093e+00
2.551577867976928093e+00
2.533577318643757348e+00
2.533577318643757348e+00
2.533577318643757348e+00
2.484450819421979428e+00
2.484450819421979428e+00
2.484450819421979428e+00
2.484450819421979428e+00
2.450699789422284613e+00
2.450699789422284613e+00
2.450699789422284613e+00
2.484075807977538464e+00
2.484075807977538464e+00
2.484075807977538464e+00
2.483700796533097499e+00
2.483700796533097499e+00
2.483700796533097499e+00
2.483700796533097499e+00
2.453887386700033701e+00
2.453887386700033701e+00
2.453887386700033701e+00
2.465325235755485789e+00
2.465325235755485789e+00
2.465325235755485789e+00
2.508264046143986459e+00
2.508264046143986459e+00
2.508264046143986459e+00
2.508264046143986459e+00
2.514826746421705117e+00
2.514826746421705117e+00
2.514826746421705117e+00
2.513889217810602261e+00
2.513889217810602261e+00
2.513889217810602261e+00
2.524014526810510528e+00
2.524014526810510528e+00
2.524014526810510528e+00
2.524014526810510528e+00
2.587203955198828176e+00
2.587203955198828176e+00
2.587203955198828176e+00
2.580828760643330444e+00
2.580828760643330444e+00
2.580828760643330444e+00
2.580828760643330444e+00
2.510701620532853173e+00
2.510701620532853173e+00
2.510701620532853173e+00
2.516139286477248493e+00
2.516139286477248493e+00
2.516139286477248493e+00
2.516139286477248493e+00
2.504888943144016888e+00
2.504888943144016888e+00
2.504888943144016888e+00
2.514076723532822744e+00
2.514076723532822744e+00
2.514076723532822744e+00
2.479200659199805035e+00
2.479200659199805035e+00
2.479200659199805035e+00
2.479200659199805035e+00
2.465325235755485789e+00
2.465325235755485789e+00
2.465325235755485789e+00
2.432511734366893830e+00
2.432511734366893830e+00
2.432511734366893830e+00
2.432511734366893830e+00
2.424448988311410869e+00
2.424448988311410869e+00
2.424448988311410869e+00
2.539014984588152668e+00
2.539014984588152668e+00
2.539014984588152668e+00
2.539014984588152668e+00
2.560765648365733949e+00
2.560765648365733949e+00
2.560765648365733949e+00
2.553827936643574326e+00
2.553827936643574326e+00
2.553827936643574326e+00
2.580078737754448071e+00
2.580078737754448071e+00
2.580078737754448071e+00
2.580078737754448071e+00
2.552702902310250987e+00
2.552702902310250987e+00
2.552702902310250987e+00
2.502638874477370656e+00
2.502638874477370656e+00
2.502638874477370656e+00
2.502638874477370656e+00
2.501138828699606353e+00
2.501138828699606353e+00
2.501138828699606353e+00
2.491576036866359534e+00
2.491576036866359534e+00
2.491576036866359534e+00
2.494763634144108178e+00
2.494763634144108178e+00
2.494763634144108178e+00
2.494763634144108178e+00
2.491388531144139051e+00
2.491388531144139051e+00
2.491388531144139051e+00
2.481638233588671305e+00
2.481638233588671305e+00
2.481638233588671305e+00
2.481638233588671305e+00
2.484263313699758946e+00
2.484263313699758946e+00
2.484263313699758946e+00
2.457637501144443792e+00
2.457637501144443792e+00
2.457637501144443792e+00
2.457637501144443792e+00
2.487263405255287552e+00
2.487263405255287552e+00
2.487263405255287552e+00
2.519514389477218064e+00
2.519514389477218064e+00
2.519514389477218064e+00
2.561328165532395840e+00
2.561328165532395840e+00
2.561328165532395840e+00
2.561328165532395840e+00
2.593579149754326352e+00
2.593579149754326352e+00
2.593579149754326352e+00
2.623767571031830670e+00
2.623767571031830670e+00
2.623767571031830670e+00
2.623767571031830670e+00
2.548765282143620414e+00
2.548765282143620414e+00
2.548765282143620414e+00
2.491951048310800498e+00
2.491951048310800498e+00
2.491951048310800498e+00
2.399323221533860018e+00
2.399323221533860018e+00
2.399323221533860018e+00
2.399323221533860018e+00
2.434011780144657688e+00
2.434011780144657688e+00
2.434011780144657688e+00
2.445824640644550740e+00
2.445824640644550740e+00
2.445824640644550740e+00
2.445824640644550740e+00
2.419573839533677440e+00
2.419573839533677440e+00
2.419573839533677440e+00
2.475825556199835464e+00
2.475825556199835464e+00
2.475825556199835464e+00
2.475825556199835464e+00
2.518201849421674243e+00
2.518201849421674243e+00
2.518201849421674243e+00
2.508076540421765976e+00
2.508076540421765976e+00
2.508076540421765976e+00
2.484263313699758946e+00
2.484263313699758946e+00
2.484263313699758946e+00
2.484263313699758946e+00
2.468512833033234433e+00
2.468512833033234433e+00
2.468512833033234433e+00
2.508639057588427423e+00
2.508639057588427423e+00
2.508639057588427423e+00
2.508639057588427423e+00
2.559265602587969646e+00
2.559265602587969646e+00
2.559265602587969646e+00
2.639893063142796148e+00
2.639893063142796148e+00
2.639893063142796148e+00
2.612704733420819547e+00
2.612704733420819547e+00
2.612704733420819547e+00
2.612704733420819547e+00
2.497388714255195818e+00
2.497388714255195818e+00
2.497388714255195818e+00
2.502826380199591139e+00
2.502826380199591139e+00
2.502826380199591139e+00
2.502826380199591139e+00
2.543515121921445576e+00
2.543515121921445576e+00
2.543515121921445576e+00
2.554015442365794808e+00
2.554015442365794808e+00
2.554015442365794808e+00
2.554015442365794808e+00
2.518576860866115208e+00
2.518576860866115208e+00
2.518576860866115208e+00
2.504701437421796406e+00
2.504701437421796406e+00
2.504701437421796406e+00
2.425574022644734207e+00
2.425574022644734207e+00
2.425574022644734207e+00
2.425574022644734207e+00
2.361447065645314147e+00
2.361447065645314147e+00
2.361447065645314147e+00
2.367259743034150432e+00
2.367259743034150432e+00
2.367259743034150432e+00
2.367259743034150432e+00
2.431949217200232383e+00
2.431949217200232383e+00
2.431949217200232383e+00
2.500388805810724424e+00
2.500388805810724424e+00
2.500388805810724424e+00
2.555515488143559111e+00
2.555515488143559111e+00
2.555515488143559111e+00
2.555515488143559111e+00
2.635955442976165131e+00
2.635955442976165131e+00
2.635955442976165131e+00
2.625455122531815455e+00
2.625455122531815455e+00
2.625455122531815455e+00
2.625455122531815455e+00
2.579703726310007106e+00
2.579703726310007106e+00
2.579703726310007106e+00
2.525327066866054349e+00
2.525327066866054349e+00
2.525327066866054349e+00
2.525327066866054349e+00
2.531139744254890633e+00
2.531139744254890633e+00
2.531139744254890633e+00
2.536389904477065471e+00
2.536389904477065471e+00
2.536389904477065471e+00
2.549140293588061379e+00
2.549140293588061379e+00
2.549140293588061379e+00
2.549140293588061379e+00
2.504513931699575480e+00
2.504513931699575480e+00
2.504513931699575480e+00
2.450137272255623166e+00
2.450137272255623166e+00
2.450137272255623166e+00
2.450137272255623166e+00
2.437574388866847741e+00
2.437574388866847741e+00
2.437574388866847741e+00
2.394635578478347071e+00
2.394635578478347071e+00
2.394635578478347071e+00
2.383385235145115466e+00
2.383385235145115466e+00
2.383385235145115466e+00
2.383385235145115466e+00
2.451074800866725578e+00
2.451074800866725578e+00
2.451074800866725578e+00
2.574266060365611786e+00
2.574266060365611786e+00
2.574266060365611786e+00
2.574266060365611786e+00
2.658268623920407858e+00
2.658268623920407858e+00
2.658268623920407858e+00
2.668393932920316125e+00
2.668393932920316125e+00
2.668393932920316125e+00
2.668393932920316125e+00
2.585703909421063873e+00
2.585703909421063873e+00
2.585703909421063873e+00
2.502451368755150174e+00
2.502451368755150174e+00
2.502451368755150174e+00
2.511451643421735547e+00
2.511451643421735547e+00
2.511451643421735547e+00
2.511451643421735547e+00
2.488200933866389963e+00
2.488200933866389963e+00
2.488200933866389963e+00
2.410011047700430176e+00
2.410011047700430176e+00
2.410011047700430176e+00
2.410011047700430176e+00
2.329571092867824156e+00
2.329571092867824156e+00
2.329571092867824156e+00
2.348321665089877275e+00
2.348321665089877275e+00
2.348321665089877275e+00
2.434574297311319135e+00
2.434574297311319135e+00
2.434574297311319135e+00
2.434574297311319135e+00
2.552890408032471470e+00
2.552890408032471470e+00
2.552890408032471470e+00
2.613642262031922403e+00
2.613642262031922403e+00
2.613642262031922403e+00
2.613642262031922403e+00
2.640268074587237113e+00
2.640268074587237113e+00
2.640268074587237113e+00
2.578016174810022321e+00
2.578016174810022321e+00
2.578016174810022321e+00
2.606517044587542742e+00
2.606517044587542742e+00
2.606517044587542742e+00
2.606517044587542742e+00
2.574453566087832268e+00
2.574453566087832268e+00
2.574453566087832268e+00
2.469262855922116806e+00
2.469262855922116806e+00
2.469262855922116806e+00
2.469262855922116806e+00
2.458012512588885201e+00
2.458012512588885201e+00
2.458012512588885201e+00
2.433449262977995797e+00
2.433449262977995797e+00
2.433449262977995797e+00
2.433449262977995797e+00
2.473575487533188788e+00
2.473575487533188788e+00
2.473575487533188788e+00
2.519701895199438546e+00
2.519701895199438546e+00
2.519701895199438546e+00
2.465887752922147680e+00
2.465887752922147680e+00
2.465887752922147680e+00
2.465887752922147680e+00
2.434949308755760100e+00
2.434949308755760100e+00
2.434949308755760100e+00
2.477325601977599767e+00
2.477325601977599767e+00
2.477325601977599767e+00
2.477325601977599767e+00
2.505451460310678335e+00
2.505451460310678335e+00
2.505451460310678335e+00
2.524764549699392902e+00
2.524764549699392902e+00
2.524764549699392902e+00
2.611579699087496653e+00
2.611579699087496653e+00
2.611579699087496653e+00
2.611579699087496653e+00
2.612704733420819547e+00
2.612704733420819547e+00
2.612704733420819547e+00
2.508826563310647906e+00
2.508826563310647906e+00
2.508826563310647906e+00
2.508826563310647906e+00
2.384885280922879769e+00
2.384885280922879769e+00
2.384885280922879769e+00
2.442074526200140649e+00
2.442074526200140649e+00
2.442074526200140649e+00
2.442074526200140649e+00
2.443574571977904952e+00
2.443574571977904952e+00
2.443574571977904952e+00
2.511264137699515064e+00
2.511264137699515064e+00
2.511264137699515064e+00
2.547265236365856111e+00
2.547265236365856111e+00
2.547265236365856111e+00
2.547265236365856111e+00
2.567328348643452163e+00
2.567328348643452163e+00
2.567328348643452163e+00
2.583078829309976676e+00
2.583078829309976676e+00
2.583078829309976676e+00
2.583078829309976676e+00
2.549327799310281861e+00
2.549327799310281861e+00
2.549327799310281861e+00
2.505638966032898818e+00
2.505638966032898818e+00
2.505638966032898818e+00
2.409261024811548246e+00
2.409261024811548246e+00
2.409261024811548246e+00
2.409261024811548246e+00
2.360697042756431774e+00
2.360697042756431774e+00
2.360697042756431774e+00
2.389385418256172233e+00
2.389385418256172233e+00
2.389385418256172233e+00
2.389385418256172233e+00
2.383385235145115466e+00
2.383385235145115466e+00
2.383385235145115466e+00
2.520076906643879511e+00
2.520076906643879511e+00
2.520076906643879511e+00
2.650205877864925341e+00
2.650205877864925341e+00
2.650205877864925341e+00
2.650205877864925341e+00
2.660331186864833608e+00
2.660331186864833608e+00
2.660331186864833608e+00
2.611392193365276171e+00
2.611392193365276171e+00
2.611392193365276171e+00
2.611392193365276171e+00
2.570515945921201251e+00
2.570515945921201251e+00
2.570515945921201251e+00
2.548390270699179450e+00
2.548390270699179450e+00
2.548390270699179450e+00
2.485013336588640875e+00
2.485013336588640875e+00
2.485013336588640875e+00
2.485013336588640875e+00
2.440199468977935382e+00
2.440199468977935382e+00
2.440199468977935382e+00
2.463075167088839557e+00
2.463075167088839557e+00
2.463075167088839557e+00
2.463075167088839557e+00
2.487263405255287552e+00
2.487263405255287552e+00
2.487263405255287552e+00
2.486888393810846587e+00
2.486888393810846587e+00
2.486888393810846587e+00
2.486888393810846587e+00
2.580641254921109962e+00
2.580641254921109962e+00
2.580641254921109962e+00
2.600891872920926495e+00
2.600891872920926495e+00
2.600891872920926495e+00
2.587391460921048658e+00
2.587391460921048658e+00
2.587391460921048658e+00
2.587391460921048658e+00
2.620017456587420579e+00
2.620017456587420579e+00
2.620017456587420579e+00
2.562453199865718290e+00
2.562453199865718290e+00
2.562453199865718290e+00
2.562453199865718290e+00
2.494013611255226248e+00
2.494013611255226248e+00
2.494013611255226248e+00
2.425574022644734207e+00
2.425574022644734207e+00
2.425574022644734207e+00
2.394073061311685624e+00
2.394073061311685624e+00
2.394073061311685624e+00
2.394073061311685624e+00
2.399885738700521909e+00
2.399885738700521909e+00
2.399885738700521909e+00
2.461950132755516218e+00
2.461950132755516218e+00
2.461950132755516218e+00
2.461950132755516218e+00
2.428199102755821404e+00
2.428199102755821404e+00
2.428199102755821404e+00
2.408886013367107282e+00
2.408886013367107282e+00
2.408886013367107282e+00
2.408886013367107282e+00
2.554390453810235773e+00
2.554390453810235773e+00
2.554390453810235773e+00
2.580453749198889035e+00
2.580453749198889035e+00
2.580453749198889035e+00
2.589829035309915373e+00
2.589829035309915373e+00
2.589829035309915373e+00
2.589829035309915373e+00
2.530764732810449669e+00
2.530764732810449669e+00
2.530764732810449669e+00
2.623017548142948741e+00
2.623017548142948741e+00
2.623017548142948741e+00
2.623017548142948741e+00
2.627892696920682614e+00
2.627892696920682614e+00
2.627892696920682614e+00
2.506201483199560265e+00
2.506201483199560265e+00
2.506201483199560265e+00
2.400260750144962874e+00
2.400260750144962874e+00
2.400260750144962874e+00
2.400260750144962874e+00
2.344384044923245813e+00
2.344384044923245813e+00
2.344384044923245813e+00
2.377197546311838217e+00
2.377197546311838217e+00
2.377197546311838217e+00
2.377197546311838217e+00
2.434199285866878171e+00
2.434199285866878171e+00
2.434199285866878171e+00
2.387510361033966966e+00
2.387510361033966966e+00
2.387510361033966966e+00
2.387510361033966966e+00
2.448074709311197417e+00
2.448074709311197417e+00
2.448074709311197417e+00
2.526264595477157204e+00
2.526264595477157204e+00
2.526264595477157204e+00
2.600891872920926495e+00
2.600891872920926495e+00
2.600891872920926495e+00
2.600891872920926495e+00
2.647580797753837700e+00
2.647580797753837700e+00
2.647580797753837700e+00
2.695019745475630835e+00
2.695019745475630835e+00
2.695019745475630835e+00
2.695019745475630835e+00
2.650018372142704415e+00
2.650018372142704415e+00
2.650018372142704415e+00
2.594329172643208281e+00
2.594329172643208281e+00
2.594329172643208281e+00
2.573141026032288892e+00
2.573141026032288892e+00
2.573141026032288892e+00
2.573141026032288892e+00
2.500576311532944906e+00
2.500576311532944906e+00
2.500576311532944906e+00
2.468325327311013950e+00
2.468325327311013950e+00
2.468325327311013950e+00
2.468325327311013950e+00
2.407760979033784388e+00
2.407760979033784388e+00
2.407760979033784388e+00
2.379447614978484449e+00
2.379447614978484449e+00
2.379447614978484449e+00
2.379447614978484449e+00
2.415448713644825496e+00
2.415448713644825496e+00
2.415448713644825496e+00
2.357696951200903612e+00
2.357696951200903612e+00
2.357696951200903612e+00
2.491576036866359534e+00
2.491576036866359534e+00
2.491576036866359534e+00
2.491576036866359534e+00
2.490638508255257122e+00
2.490638508255257122e+00
2.490638508255257122e+00
2.447324686422315043e+00
2.447324686422315043e+00
2.447324686422315043e+00
2.543702627643666059e+00
2.543702627643666059e+00
2.543702627643666059e+00
2.543702627643666059e+00
2.562640705587938772e+00
2.562640705587938772e+00
2.562640705587938772e+00
2.597141758476516404e+00
2.597141758476516404e+00
2.597141758476516404e+00
2.597141758476516404e+00
2.631267799920652184e+00
2.631267799920652184e+00
2.631267799920652184e+00
2.550265327921384717e+00
2.550265327921384717e+00
2.550265327921384717e+00
2.476200567644276429e+00
2.476200567644276429e+00
2.476200567644276429e+00
2.476200567644276429e+00
2.421261391033662225e+00
2.421261391033662225e+00
2.421261391033662225e+00
2.370072328867458111e+00
2.370072328867458111e+00
2.370072328867458111e+00
2.370072328867458111e+00
2.469637867366557771e+00
2.469637867366557771e+00
2.469637867366557771e+00
2.549327799310281861e+00
2.549327799310281861e+00
2.549327799310281861e+00
2.549327799310281861e+00
2.532639790032654936e+00
2.532639790032654936e+00
2.532639790032654936e+00
2.498701254310739639e+00
2.498701254310739639e+00
2.498701254310739639e+00
2.511826654866176511e+00
2.511826654866176511e+00
2.511826654866176511e+00
2.511826654866176511e+00
2.449199743644520311e+00
2.449199743644520311e+00
2.449199743644520311e+00
2.513701712088381779e+00
2.513701712088381779e+00
2.513701712088381779e+00
2.513701712088381779e+00
2.545577684865871326e+00
2.545577684865871326e+00
2.545577684865871326e+00
2.546702719199194664e+00
2.546702719199194664e+00
2.546702719199194664e+00
2.546702719199194664e+00
2.567515854365672645e+00
2.567515854365672645e+00
2.567515854365672645e+00
2.657706106753745967e+00
2.657706106753745967e+00
2.657706106753745967e+00
2.610079653309732350e+00
2.610079653309732350e+00
2.610079653309732350e+00
2.610079653309732350e+00
2.527014618366038690e+00
2.527014618366038690e+00
2.527014618366038690e+00
2.539202490310373150e+00
2.539202490310373150e+00
2.539202490310373150e+00
2.539202490310373150e+00
2.485575853755302767e+00
2.485575853755302767e+00
2.485575853755302767e+00
2.433449262977995797e+00
2.433449262977995797e+00
2.433449262977995797e+00
2.356384411145359792e+00
2.356384411145359792e+00
2.356384411145359792e+00
2.356384411145359792e+00
2.326383495590075512e+00
2.326383495590075512e+00
2.326383495590075512e+00
2.449574755088961275e+00
2.449574755088961275e+00
2.449574755088961275e+00
2.449574755088961275e+00
2.578016174810022321e+00
2.578016174810022321e+00
2.578016174810022321e+00
2.592266609698782531e+00
2.592266609698782531e+00
2.592266609698782531e+00
2.592266609698782531e+00
2.630892788476211219e+00
2.630892788476211219e+00
2.630892788476211219e+00
2.596391735587634031e+00
2.596391735587634031e+00
2.596391735587634031e+00
2.518576860866115208e+00
2.518576860866115208e+00
2.518576860866115208e+00
2.518576860866115208e+00
2.432136722922452865e+00
2.432136722922452865e+00
2.432136722922452865e+00
2.425574022644734207e+00
2.425574022644734207e+00
2.425574022644734207e+00
2.425574022644734207e+00
2.410011047700430176e+00
2.410011047700430176e+00
2.410011047700430176e+00
2.410011047700430176e+00
2.410011047700430176e+00
2.410011047700430176e+00
2.432699240089114312e+00
2.432699240089114312e+00
2.432699240089114312e+00
2.432699240089114312e+00
2.512951689199499850e+00
2.512951689199499850e+00
2.512951689199499850e+00
2.603704458754234619e+00
2.603704458754234619e+00
2.603704458754234619e+00
2.603704458754234619e+00
2.550265327921384717e+00
2.550265327921384717e+00
2.550265327921384717e+00
2.611579699087496653e+00
2.611579699087496653e+00
2.611579699087496653e+00
2.578953703421124732e+00
2.578953703421124732e+00
2.578953703421124732e+00
2.578953703421124732e+00
2.527389629810480098e+00
2.527389629810480098e+00
2.527389629810480098e+00
2.509389080477309353e+00
2.509389080477309353e+00
2.509389080477309353e+00
2.509389080477309353e+00
2.380760155034028269e+00
2.380760155034028269e+00
2.380760155034028269e+00
2.392948026978362286e+00
2.392948026978362286e+00
2.392948026978362286e+00
2.392948026978362286e+00
2.439074434644612044e+00
2.439074434644612044e+00
2.439074434644612044e+00
2.544265144810327506e+00
2.544265144810327506e+00
2.544265144810327506e+00
2.597516769920956925e+00
2.597516769920956925e+00
2.597516769920956925e+00
2.597516769920956925e+00
2.560015625476852019e+00
2.560015625476852019e+00
2.560015625476852019e+00
2.538264961699270739e+00
2.538264961699270739e+00
2.538264961699270739e+00
2.538264961699270739e+00
2.473387981810968306e+00
2.473387981810968306e+00
2.473387981810968306e+00
2.489513473921933784e+00
2.489513473921933784e+00
2.489513473921933784e+00
2.589454023865474408e+00
2.589454023865474408e+00
2.589454023865474408e+00
2.589454023865474408e+00
2.518201849421674243e+00
2.518201849421674243e+00
2.518201849421674243e+00
2.464950224311044824e+00
2.464950224311044824e+00
2.464950224311044824e+00
2.464950224311044824e+00
2.520826929532761884e+00
2.520826929532761884e+00
2.520826929532761884e+00
2.497388714255195818e+00
2.497388714255195818e+00
2.497388714255195818e+00
2.480325693533127485e+00
2.480325693533127485e+00
2.480325693533127485e+00
2.480325693533127485e+00
2.556453016754661967e+00
2.556453016754661967e+00
2.556453016754661967e+00
2.557390545365764378e+00
2.557390545365764378e+00
2.557390545365764378e+00
2.557390545365764378e+00
2.570515945921201251e+00
2.570515945921201251e+00
2.570515945921201251e+00
2.532264778588213971e+00
2.532264778588213971e+00
2.532264778588213971e+00
2.532264778588213971e+00
2.470387890255439700e+00
2.470387890255439700e+00
2.470387890255439700e+00
2.398010681478316641e+00
2.398010681478316641e+00
2.398010681478316641e+00
2.418636310922574584e+00
2.418636310922574584e+00
2.418636310922574584e+00
2.418636310922574584e+00
2.413386150700399746e+00
2.413386150700399746e+00
2.413386150700399746e+00
2.492701071199682428e+00
2.492701071199682428e+00
2.492701071199682428e+00
2.492701071199682428e+00
2.434761803033539618e+00
2.434761803033539618e+00
2.434761803033539618e+00
2.535077364421521651e+00
2.535077364421521651e+00
2.535077364421521651e+00
2.535077364421521651e+00
2.607079561754204189e+00
2.607079561754204189e+00
2.607079561754204189e+00
2.664268807031464625e+00
2.664268807031464625e+00
2.664268807031464625e+00
2.596204229865413549e+00
2.596204229865413549e+00
2.596204229865413549e+00
2.596204229865413549e+00
2.551765373699148576e+00
2.551765373699148576e+00
2.551765373699148576e+00
2.506013977477339782e+00
2.506013977477339782e+00
2.506013977477339782e+00
2.506013977477339782e+00
2.467200292977691056e+00
2.467200292977691056e+00
2.467200292977691056e+00
2.404948393200476264e+00
2.404948393200476264e+00
2.404948393200476264e+00
2.384322763756218322e+00
2.384322763756218322e+00
2.384322763756218322e+00
2.384322763756218322e+00
2.444887112033448329e+00
2.503388897366253030e+00
2.503388897366253030e+00
2.503388897366253030e+00
2.503388897366253030e+00
2.545390179143650844e+00
2.545390179143650844e+00
2.545390179143650844e+00
2.574828577532273233e+00
2.574828577532273233e+00
2.574828577532273233e+00
2.556453016754661967e+00
2.556453016754661967e+00
2.556453016754661967e+00
2.556453016754661967e+00
2.559265602587969646e+00
2.559265602587969646e+00
2.559265602587969646e+00
2.493638599810785283e+00
2.493638599810785283e+00
2.493638599810785283e+00
2.493638599810785283e+00
2.549890316476943308e+00
2.549890316476943308e+00
2.549890316476943308e+00
2.504326425977354997e+00
2.504326425977354997e+00
2.504326425977354997e+00
2.522701986754967152e+00
2.522701986754967152e+00
2.522701986754967152e+00
2.522701986754967152e+00
2.560390636921292984e+00
2.560390636921292984e+00
2.560390636921292984e+00
2.522889492477187634e+00
2.522889492477187634e+00
2.522889492477187634e+00
2.522889492477187634e+00
2.472825464644306859e+00
2.472825464644306859e+00
2.472825464644306859e+00
2.431761711478011456e+00
2.431761711478011456e+00
2.431761711478011456e+00
2.431761711478011456e+00
2.348134159367656792e+00
2.348134159367656792e+00
2.348134159367656792e+00
2.487825922421948999e+00
2.487825922421948999e+00
2.487825922421948999e+00
2.650393383587145824e+00
2.650393383587145824e+00
2.650393383587145824e+00
2.650393383587145824e+00
2.552890408032471470e+00
2.552890408032471470e+00
2.552890408032471470e+00
2.470762901699881109e+00
2.470762901699881109e+00
2.470762901699881109e+00
2.470762901699881109e+00
2.457449995422223310e+00
2.457449995422223310e+00
2.457449995422223310e+00
2.505638966032898818e+00
2.505638966032898818e+00
2.505638966032898818e+00
2.474138004699850679e+00
2.474138004699850679e+00
2.474138004699850679e+00
2.474138004699850679e+00
2.499638782921842051e+00
2.499638782921842051e+00
2.499638782921842051e+00
2.416761253700369316e+00
2.416761253700369316e+00
2.416761253700369316e+00
2.416761253700369316e+00
2.458762535477767130e+00
2.458762535477767130e+00
2.458762535477767130e+00
2.543327616199224650e+00
2.543327616199224650e+00
2.543327616199224650e+00
2.543327616199224650e+00
2.590391552476577264e+00
2.590391552476577264e+00
2.590391552476577264e+00
2.521389446699423331e+00
2.521389446699423331e+00
2.521389446699423331e+00
2.571453474532304107e+00
2.571453474532304107e+00
2.571453474532304107e+00
2.571453474532304107e+00
2.578578691976683768e+00
2.578578691976683768e+00
2.578578691976683768e+00
2.576516129032258018e+00
2.576516129032258018e+00
2.576516129032258018e+00
2.576516129032258018e+00
2.506951506088442638e+00
2.506951506088442638e+00
2.506951506088442638e+00
2.450137272255623166e+00
2.450137272255623166e+00
2.450137272255623166e+00
2.450137272255623166e+00
2.486888393810846587e+00
2.486888393810846587e+00
2.486888393810846587e+00
2.470762901699881109e+00
2.470762901699881109e+00
2.436261848811303921e+00
2.436261848811303921e+00
2.436261848811303921e+00
2.545202673421430362e+00
2.545202673421430362e+00
2.545202673421430362e+00
2.545202673421430362e+00
2.570890957365642215e+00
2.570890957365642215e+00
2.570890957365642215e+00
2.543515121921445576e+00
2.543515121921445576e+00
2.543515121921445576e+00
2.543515121921445576e+00
2.548952787865840897e+00
2.548952787865840897e+00
2.548952787865840897e+00
2.529827204199346813e+00
2.529827204199346813e+00
2.529827204199346813e+00
2.558140568254646752e+00
2.558140568254646752e+00
2.558140568254646752e+00
2.558140568254646752e+00
2.536577410199285953e+00
2.536577410199285953e+00
2.536577410199285953e+00
2.497576219977416301e+00
2.497576219977416301e+00
2.497576219977416301e+00
2.503388897366253030e+00
2.503388897366253030e+00
2.503388897366253030e+00
2.503388897366253030e+00
2.450137272255623166e+00
2.450137272255623166e+00
2.450137272255623166e+00
2.386010315256203107e+00
2.386010315256203107e+00
2.386010315256203107e+00
2.434199285866878171e+00
2.434199285866878171e+00
2.434199285866878171e+00
2.434199285866878171e+00
2.470200384533219218e+00
2.470200384533219218e+00
2.470200384533219218e+00
2.491951048310800498e+00
2.491951048310800498e+00
2.491951048310800498e+00
2.491951048310800498e+00
2.545202673421430362e+00
2.545202673421430362e+00
2.545202673421430362e+00
2.570515945921201251e+00
2.570515945921201251e+00
2.570515945921201251e+00
2.488200933866389963e+00
2.488200933866389963e+00
2.488200933866389963e+00
2.488200933866389963e+00
2.484825830866420393e+00
2.484825830866420393e+00
2.484825830866420393e+00
2.567890865810114054e+00
2.567890865810114054e+00
2.567890865810114054e+00
2.545015167699209435e+00
2.545015167699209435e+00
2.545015167699209435e+00
2.545015167699209435e+00
2.504138920255134515e+00
2.504138920255134515e+00
2.504138920255134515e+00
2.516326792199468976e+00
2.516326792199468976e+00
2.516326792199468976e+00
2.516326792199468976e+00
2.413198644978179264e+00
2.413198644978179264e+00
2.413198644978179264e+00
2.548015259254738041e+00
2.548015259254738041e+00
2.548015259254738041e+00
2.548015259254738041e+00
2.647018280587176253e+00
2.647018280587176253e+00
2.647018280587176253e+00
2.494763634144108178e+00
2.494763634144108178e+00
2.494763634144108178e+00
2.378885097811823002e+00
2.378885097811823002e+00
2.378885097811823002e+00
2.378885097811823002e+00
2.481450727866450823e+00
2.481450727866450823e+00
2.481450727866450823e+00
2.561140659810174913e+00
2.561140659810174913e+00
2.561140659810174913e+00
2.561140659810174913e+00
2.519514389477218064e+00
2.519514389477218064e+00
2.519514389477218064e+00
2.444887112033448329e+00
2.444887112033448329e+00
2.444887112033448329e+00
2.504888943144016888e+00
2.504888943144016888e+00
2.504888943144016888e+00
2.504888943144016888e+00
2.564140751365703075e+00
2.564140751365703075e+00
2.564140751365703075e+00
2.509389080477309353e+00
2.509389080477309353e+00
2.509389080477309353e+00
2.509389080477309353e+00
2.558890591143528681e+00
2.558890591143528681e+00
2.558890591143528681e+00
2.560765648365733949e+00
2.560765648365733949e+00
2.560765648365733949e+00
2.560765648365733949e+00
2.488950956755272337e+00
2.488950956755272337e+00
2.488950956755272337e+00
2.458387524033326166e+00
2.458387524033326166e+00
2.458387524033326166e+00
2.463075167088839557e+00
2.463075167088839557e+00
2.463075167088839557e+00
2.463075167088839557e+00
2.521576952421643814e+00
2.521576952421643814e+00
2.521576952421643814e+00
2.542015076143681274e+00
2.542015076143681274e+00
2.542015076143681274e+00
2.542015076143681274e+00
2.589266518143253926e+00
2.589266518143253926e+00
2.589266518143253926e+00
2.488950956755272337e+00
2.488950956755272337e+00
2.488950956755272337e+00
2.482388256477553679e+00
2.482388256477553679e+00
2.482388256477553679e+00
2.482388256477553679e+00
2.507701528977324568e+00
2.507701528977324568e+00
2.507701528977324568e+00
2.390322946867275089e+00
2.390322946867275089e+00
2.390322946867275089e+00
2.390322946867275089e+00
2.344571550645466296e+00
2.344571550645466296e+00
2.344571550645466296e+00
2.445262123477889293e+00
2.445262123477889293e+00
2.445262123477889293e+00
2.529077181310464884e+00
2.529077181310464884e+00
2.529077181310464884e+00
2.529077181310464884e+00
2.624517593920713043e+00
2.624517593920713043e+00
2.624517593920713043e+00
2.689207068086794994e+00
2.689207068086794994e+00
2.689207068086794994e+00
2.689207068086794994e+00
2.690332102420117888e+00
2.690332102420117888e+00
2.690332102420117888e+00
2.628642719809564543e+00
2.628642719809564543e+00
2.628642719809564543e+00
2.524389538254951937e+00
2.524389538254951937e+00
2.524389538254951937e+00
2.524389538254951937e+00
2.358446974089785542e+00
2.358446974089785542e+00
2.358446974089785542e+00
2.329946104312265120e+00
2.329946104312265120e+00
2.329946104312265120e+00
2.329946104312265120e+00
2.415823725089266905e+00
2.415823725089266905e+00
2.415823725089266905e+00
2.531514755699331598e+00
2.531514755699331598e+00
2.531514755699331598e+00
2.595641712698752102e+00
2.595641712698752102e+00
2.595641712698752102e+00
2.595641712698752102e+00
2.533014801477095901e+00
2.533014801477095901e+00
2.533014801477095901e+00
2.466637775811029609e+00
2.466637775811029609e+00
2.466637775811029609e+00
2.466637775811029609e+00
2.572578508865627445e+00
2.572578508865627445e+00
2.572578508865627445e+00
2.592829126865443978e+00
2.592829126865443978e+00
2.592829126865443978e+00
2.592829126865443978e+00
2.523827021088290046e+00
2.523827021088290046e+00
2.523827021088290046e+00
2.489888485366374749e+00
2.489888485366374749e+00
2.489888485366374749e+00
2.487638416699728516e+00
2.487638416699728516e+00
2.487638416699728516e+00
2.487638416699728516e+00
2.534889858699301168e+00
2.534889858699301168e+00
2.534889858699301168e+00
2.482388256477553679e+00
2.482388256477553679e+00
2.482388256477553679e+00
2.482388256477553679e+00
2.441136997589037794e+00
2.441136997589037794e+00
2.441136997589037794e+00
2.450137272255623166e+00
2.450137272255623166e+00
2.450137272255623166e+00
2.451262306588946061e+00
2.451262306588946061e+00
2.451262306588946061e+00
2.451262306588946061e+00
2.500576311532944906e+00
2.500576311532944906e+00
2.500576311532944906e+00
2.483138279366435608e+00
2.483138279366435608e+00
2.483138279366435608e+00
2.483138279366435608e+00
2.598454298532059781e+00
2.598454298532059781e+00
2.598454298532059781e+00
2.594141666920987799e+00
2.594141666920987799e+00
2.594141666920987799e+00
2.594141666920987799e+00
2.552515396588030505e+00
2.552515396588030505e+00
2.552515396588030505e+00
2.557015533921323414e+00
2.557015533921323414e+00
2.557015533921323414e+00
2.417511276589251690e+00
2.417511276589251690e+00
2.417511276589251690e+00
2.417511276589251690e+00
2.502263863032929692e+00
2.502263863032929692e+00
2.502263863032929692e+00
2.378885097811823002e+00
2.378885097811823002e+00
2.378885097811823002e+00
2.378885097811823002e+00
2.612329721976378583e+00
2.612329721976378583e+00
2.612329721976378583e+00
2.681706839197973480e+00
2.681706839197973480e+00
2.681706839197973480e+00
2.681706839197973480e+00
2.561140659810174913e+00
2.561140659810174913e+00
2.561140659810174913e+00
2.502076357310709209e+00
2.502076357310709209e+00
2.502076357310709209e+00
2.523639515366069563e+00
2.523639515366069563e+00
2.523639515366069563e+00
2.523639515366069563e+00
2.533014801477095901e+00
2.533014801477095901e+00
2.533014801477095901e+00
2.454449903866695148e+00
2.454449903866695148e+00
2.454449903866695148e+00
2.454449903866695148e+00
2.345884090701010116e+00
2.345884090701010116e+00
2.345884090701010116e+00
2.457449995422223310e+00
2.457449995422223310e+00
2.457449995422223310e+00
2.597329264198736443e+00
2.597329264198736443e+00
2.597329264198736443e+00
2.597329264198736443e+00
2.549515305032502344e+00
2.549515305032502344e+00
2.549515305032502344e+00
2.584391369365520497e+00
2.584391369365520497e+00
2.584391369365520497e+00
2.584391369365520497e+00
2.498513748588519157e+00
2.498513748588519157e+00
2.498513748588519157e+00
2.477325601977599767e+00
2.477325601977599767e+00
2.477325601977599767e+00
2.495701162755211033e+00
2.495701162755211033e+00
2.495701162755211033e+00
2.495701162755211033e+00
2.519701895199438546e+00
2.519701895199438546e+00
2.519701895199438546e+00
2.394260567033906106e+00
2.394260567033906106e+00
2.394260567033906106e+00
2.394260567033906106e+00
2.509951597643971244e+00
2.509951597643971244e+00
2.509951597643971244e+00
2.552140385143589540e+00
2.552140385143589540e+00
2.552140385143589540e+00
2.529827204199346813e+00
2.529827204199346813e+00
2.529827204199346813e+00
2.529827204199346813e+00
2.420698873867000778e+00
2.420698873867000778e+00
2.420698873867000778e+00
2.544077639088107023e+00
2.544077639088107023e+00
2.544077639088107023e+00
2.544077639088107023e+00
2.505076448866237371e+00
2.505076448866237371e+00
2.505076448866237371e+00
2.558703085421308199e+00
2.558703085421308199e+00
2.558703085421308199e+00
2.558703085421308199e+00
2.576328623310037536e+00
2.576328623310037536e+00
2.576328623310037536e+00
2.488388439588610446e+00
2.488388439588610446e+00
2.488388439588610446e+00
2.518389355143894726e+00
2.518389355143894726e+00
2.518389355143894726e+00
2.524202032532731454e+00
2.524202032532731454e+00
2.459137546922208095e+00
2.628080202642903096e+00
2.628080202642903096e+00
2.464950224311044824e+00
2.464950224311044824e+00
2.381697683645130681e+00
2.362197088534196077e+00
2.362197088534196077e+00
2.536202398754844989e+00
2.536202398754844989e+00
2.465887752922147680e+00
2.518764366588335690e+00
2.518764366588335690e+00
2.645705740531632433e+00
2.640830591753899004e+00
2.640830591753899004e+00
2.561890682699057287e+00
2.561890682699057287e+00
2.542765099032563203e+00
2.616829859309671491e+00
2.616829859309671491e+00
2.529452192754905848e+00
2.529452192754905848e+00
2.478825647755364070e+00
2.500576311532944906e+00
2.500576311532944906e+00
2.414511185033723084e+00
2.414511185033723084e+00
2.490451002533036640e+00
2.578391186254463285e+00
2.578391186254463285e+00
2.419198828089236475e+00
2.419198828089236475e+00
2.419761345255897922e+00
2.467200292977691056e+00
2.467200292977691056e+00
2.409636036255989211e+00
2.222130314035462462e+00
2.222130314035462462e+00
2.522326975310525743e+00
2.522326975310525743e+00
2.605204504531998921e+00
2.717145420697653080e+00
2.717145420697653080e+00
2.593016632587664461e+00
2.593016632587664461e+00
2.483888302255317981e+00
2.464200201422162451e+00
2.464200201422162451e+00
2.578391186254463285e+00
2.578391186254463285e+00
2.497763725699636783e+00
2.451449812311166987e+00
2.451449812311166987e+00
2.416011230811487387e+00
2.485200842310861358e+00
2.485200842310861358e+00
2.578016174810022321e+00
2.578016174810022321e+00
2.598641804254280263e+00
2.603891964476455101e+00
2.603891964476455101e+00
2.526077089754936722e+00
2.526077089754936722e+00
2.495888668477431516e+00
2.521576952421643814e+00
2.521576952421643814e+00
2.606329538865321815e+00
2.606329538865321815e+00
2.675144138920255266e+00
2.585328897976622908e+00
2.585328897976622908e+00
2.461575121311075254e+00
2.461575121311075254e+00
2.435136814477980582e+00
2.197004547257912055e+00
2.197004547257912055e+00
2.197004547257912055e+00
2.197004547257912055e+00
2.320945829645680192e+00
2.499076265755180604e+00
2.499076265755180604e+00
2.801335489974669635e+00
2.757084139530625588e+00
2.757084139530625588e+00
2.572766014587847927e+00
2.572766014587847927e+00
2.619454939420759132e+00
2.464950224311044824e+00
2.464950224311044824e+00
2.251193700979644330e+00
2.251193700979644330e+00
2.340821436201055761e+00
2.637642994476149916e+00
2.637642994476149916e+00
2.644393200476088612e+00
2.451262306588946061e+00
2.451262306588946061e+00
2.501138828699606353e+00
2.501138828699606353e+00
2.503951414532914033e+00
2.359572008423108880e+00
2.359572008423108880e+00
2.535077364421521651e+00
2.535077364421521651e+00
2.480513199255348411e+00
2.645143223364970542e+00
2.645143223364970542e+00
2.693332193975646049e+00
2.693332193975646049e+00
2.551015350810266202e+00
2.546327707754753256e+00
2.546327707754753256e+00
2.470012878810998735e+00
2.470012878810998735e+00
2.506201483199560265e+00
2.677019196142460533e+00
2.677019196142460533e+00
2.688082033753471656e+00
2.578203680532242803e+00
2.578203680532242803e+00
2.344009033478804849e+00
2.344009033478804849e+00
2.233005645924253102e+00
2.245943540757469048e+00
2.245943540757469048e+00
2.424073976866969904e+00
2.424073976866969904e+00
2.503388897366253030e+00
2.526077089754936722e+00
2.526077089754936722e+00
2.556078005310220558e+00
2.556078005310220558e+00
2.684706930753502085e+00
2.681331827753532515e+00
2.681331827753532515e+00
2.420886379589221260e+00
2.420886379589221260e+00
2.244068483535264225e+00
2.395760612811670409e+00
2.395760612811670409e+00
2.625267616809594973e+00
2.756146610919522733e+00
2.756146610919522733e+00
2.659581163975951235e+00
2.659581163975951235e+00
2.466450270088809127e+00
2.375509994811853431e+00
2.375509994811853431e+00
2.362384594256416559e+00
2.362384594256416559e+00
2.461012604144413807e+00
2.591704092532120640e+00
2.591704092532120640e+00
2.450324777977843649e+00
2.450324777977843649e+00
2.539202490310373150e+00
2.669706472975859946e+00
2.669706472975859946e+00
2.604641987365337030e+00
2.604641987365337030e+00
2.497013702810754854e+00
2.316633198034607766e+00
2.316633198034607766e+00
2.636517960142826578e+00
2.636517960142826578e+00
2.700269905697806117e+00
2.525702078310495757e+00
2.525702078310495757e+00
2.488388439588610446e+00
2.508264046143986459e+00
2.508264046143986459e+00
2.486325876644184696e+00
2.288694845423749680e+00
2.288694845423749680e+00
2.396323129978331856e+00
2.602016907254249833e+00
2.602016907254249833e+00
2.430636677144688562e+00
2.438136906033509188e+00
2.438136906033509188e+00
2.560203131199072502e+00
2.560203131199072502e+00
2.519326883754997581e+00
2.590016541032135855e+00
2.590016541032135855e+00
2.697832331308938958e+00
2.697832331308938958e+00
2.494951139866329104e+00
2.226442945646534444e+00
2.226442945646534444e+00
2.309882992034669069e+00
2.309882992034669069e+00
2.677581713309121980e+00
2.706457594531082922e+00
2.706457594531082922e+00
2.380572649311807787e+00
2.380572649311807787e+00
2.287569811090426342e+00
2.647205786309396736e+00
2.647205786309396736e+00
2.759334208197271820e+00
2.580828760643330444e+00
2.580828760643330444e+00
2.691832148197881747e+00
2.691832148197881747e+00
2.543327616199224650e+00
2.485200842310861358e+00
2.485200842310861358e+00
2.325820978423414065e+00
2.325820978423414065e+00
2.184629169591357556e+00
2.274256904812768987e+00
2.274256904812768987e+00
2.513514206366161297e+00
2.513514206366161297e+00
2.846711874752037019e+00
2.771709585863826764e+00
2.771709585863826764e+00
2.514826746421705117e+00
2.514826746421705117e+00
2.538077455977050256e+00
2.498138737144077748e+00
2.498138737144077748e+00
2.438136906033509188e+00
2.438136906033509188e+00
2.302382763145847999e+00
2.470575395977660182e+00
2.536952421643726918e+00
2.536952421643726918e+00
2.604641987365337030e+00
2.604641987365337030e+00
2.607079561754204189e+00
2.378322580645161111e+00
2.378322580645161111e+00
2.356759422589800756e+00
2.388635395367290304e+00
2.388635395367290304e+00
2.297507614368114126e+00
2.297507614368114126e+00
2.299945188756981285e+00
2.611204687643055244e+00
2.611204687643055244e+00
2.817273476363414630e+00
2.817273476363414630e+00
2.829648854029969574e+00
2.704770043031098137e+00
2.704770043031098137e+00
2.576891140476698983e+00
2.576891140476698983e+00
2.491388531144139051e+00
2.540890041810357936e+00
2.540890041810357936e+00
2.503576403088473068e+00
2.503576403088473068e+00
2.424261482589190386e+00
2.339508896145511940e+00
2.339508896145511940e+00
2.599391827143162192e+00
2.372322397534104788e+00
2.372322397534104788e+00
2.234130680257575996e+00
2.234130680257575996e+00
2.363509628589739453e+00
2.338008850367748082e+00
2.338008850367748082e+00
2.640830591753899004e+00
2.640830591753899004e+00
2.393135532700583212e+00
2.457637501144443792e+00
2.457637501144443792e+00
2.803398052919095385e+00
2.711332743308816795e+00
2.711332743308816795e+00
2.557953062532425825e+00
2.557953062532425825e+00
2.533952330088198757e+00
2.542765099032563203e+00
2.542765099032563203e+00
2.515389263588366120e+00
2.515389263588366120e+00
2.432699240089114312e+00
2.383760246589556875e+00
2.383760246589556875e+00
2.198129581591235393e+00
2.198129581591235393e+00
2.389572923978392716e+00
2.711707754753258204e+00
2.711707754753258204e+00
2.931089449751274056e+00
2.692394665364543638e+00
2.692394665364543638e+00
2.613642262031922403e+00
2.613642262031922403e+00
2.683019379253517300e+00
2.599016815698721228e+00
2.599016815698721228e+00
2.488388439588610446e+00
2.488388439588610446e+00
2.427261574144718992e+00
2.347384136478774419e+00
2.347384136478774419e+00
2.241068391979735619e+00
2.241068391979735619e+00
2.261319009979552597e+00
2.253068758201849597e+00
2.253068758201849597e+00
2.624142582476271635e+00
2.516326792199468976e+00
2.516326792199468976e+00
2.550265327921384717e+00
2.550265327921384717e+00
2.614767296365245741e+00
2.741896176030762522e+00
2.741896176030762522e+00
2.422573931089205601e+00
2.422573931089205601e+00
2.378135074922940628e+00
2.445637134922330258e+00
2.445637134922330258e+00
2.564328257087923557e+00
2.739833613086336772e+00
2.739833613086336772e+00
2.531139744254890633e+00
2.531139744254890633e+00
2.222317819757682944e+00
2.315133152256843907e+00
2.315133152256843907e+00
2.479763176366466482e+00
2.479763176366466482e+00
2.456512466811120898e+00
2.595454206976531619e+00
2.595454206976531619e+00
2.699894894253364708e+00
2.699894894253364708e+00
2.550077822199164235e+00
2.405698416089358194e+00
2.405698416089358194e+00
2.496076174199651998e+00
2.496076174199651998e+00
2.642143131809442824e+00
2.851399517807550410e+00
2.851399517807550410e+00
2.780334849085970728e+00
2.384510269478438804e+00
2.384510269478438804e+00
2.419011322367015993e+00
2.419011322367015993e+00
2.270131778923917043e+00
2.140002807702871657e+00
2.140002807702871657e+00
2.565265785699026413e+00
2.565265785699026413e+00
2.701769951475569975e+00
2.699144871364482778e+00
2.699144871364482778e+00
2.598266792809838854e+00
2.598266792809838854e+00
2.704582537308877654e+00
2.526639606921598169e+00
2.526639606921598169e+00
2.490451002533036640e+00
2.109626880703146412e+00
2.109626880703146412e+00
2.171878780480361648e+00
2.171878780480361648e+00
2.212380016479995160e+00
2.516514297921689458e+00
2.516514297921689458e+00
2.898463454084902580e+00
2.898463454084902580e+00
2.672331553086947142e+00
2.614204779198583850e+00
2.614204779198583850e+00
2.514451734977264152e+00
2.521764458143864296e+00
2.521764458143864296e+00
2.337446333201086635e+00
2.337446333201086635e+00
2.327883541367839371e+00
2.536014893032624506e+00
2.536014893032624506e+00
2.458200018311105683e+00
2.458200018311105683e+00
2.239755851924192243e+00
2.569015900143436948e+00
2.569015900143436948e+00
2.675144138920255266e+00
2.675144138920255266e+00
2.565828302865687860e+00
2.666518875698111302e+00
2.666518875698111302e+00
2.686394482253486871e+00
2.686394482253486871e+00
2.456512466811120898e+00
2.368197271645252844e+00
2.368197271645252844e+00
2.461387615588854771e+00
2.651330912198248235e+00
2.651330912198248235e+00
2.812960844752342204e+00
2.812960844752342204e+00
2.872212652974028835e+00
2.448262215033417899e+00
2.448262215033417899e+00
2.180316537980285130e+00
2.180316537980285130e+00
2.158003357036042402e+00
2.292819971312600735e+00
2.292819971312600735e+00
2.546515213476973738e+00
2.546515213476973738e+00
2.646080751976073397e+00
2.605204504531998921e+00
2.605204504531998921e+00
2.495888668477431516e+00
2.248568620868556689e+00
2.248568620868556689e+00
2.242568437757499922e+00
2.242568437757499922e+00
2.502263863032929692e+00
2.863962401196325835e+00
2.863962401196325835e+00
2.982466017639698652e+00
2.982466017639698652e+00
2.568453382976775501e+00
2.379822626422925413e+00
2.379822626422925413e+00
2.386197820978423145e+00
2.386197820978423145e+00
2.226255439924313961e+00
2.353571825312051669e+00
2.353571825312051669e+00
2.589829035309915373e+00
2.589829035309915373e+00
2.559078096865749163e+00
2.447887203588976490e+00
2.447887203588976490e+00
2.601829401532029351e+00
2.507326517532883603e+00
2.507326517532883603e+00
2.572391003143406518e+00
2.572391003143406518e+00
2.522889492477187634e+00
2.547640247810297076e+00
2.547640247810297076e+00
2.664643818475905590e+00
2.553077913754691952e+00
2.553077913754691952e+00
2.539389996032593633e+00
2.539389996032593633e+00
2.465325235755485789e+00
2.590016541032135855e+00
2.590016541032135855e+00
2.279507065034943825e+00
2.279507065034943825e+00
2.316070680867946319e+00
2.520639423810540958e+00
2.520639423810540958e+00
2.661081209753715537e+00
2.661081209753715537e+00
2.551202856532486685e+00
2.468512833033234433e+00
2.468512833033234433e+00
2.525702078310495757e+00
2.525702078310495757e+00
2.639705557420575666e+00
2.518576860866115208e+00
2.518576860866115208e+00
2.486513382366405178e+00
2.486513382366405178e+00
2.503201391644032547e+00
2.487450910977508034e+00
2.487450910977508034e+00
2.444887112033448329e+00
2.243130954924161813e+00
2.243130954924161813e+00
2.461575121311075254e+00
2.461575121311075254e+00
2.536764915921506436e+00
2.485013336588640875e+00
2.485013336588640875e+00
2.473012970366527341e+00
2.473012970366527341e+00
2.514639240699484635e+00
2.552327890865810023e+00
2.552327890865810023e+00
2.472075441755424485e+00
2.472075441755424485e+00
2.429886654255806189e+00
2.704957548753318619e+00
2.704957548753318619e+00
2.613267250587481438e+00
2.613267250587481438e+00
2.452387340922269399e+00
2.485388348033082284e+00
2.485388348033082284e+00
2.586266426587725320e+00
2.680019287697988695e+00
2.680019287697988695e+00
2.654143498031556359e+00
2.654143498031556359e+00
2.425199011200292798e+00
2.367259743034150432e+00
2.367259743034150432e+00
2.342696493423261028e+00
2.342696493423261028e+00
2.356759422589800756e+00
2.405510910367137711e+00
2.405510910367137711e+00
2.515389263588366120e+00
2.515389263588366120e+00
2.624330088198492561e+00
2.765334391308328588e+00
2.765334391308328588e+00
2.875025238807336958e+00
2.875025238807336958e+00
2.531702261421552080e+00
2.433261757255775315e+00
2.433261757255775315e+00
2.452574846644489881e+00
2.488388439588610446e+00
2.488388439588610446e+00
2.489325968199713301e+00
2.489325968199713301e+00
2.250443678090761956e+00
2.360697042756431774e+00
2.360697042756431774e+00
2.470387890255439700e+00
2.470387890255439700e+00
2.471700430310983521e+00
2.359196996978667915e+00
2.359196996978667915e+00
2.403448347422711961e+00
2.403448347422711961e+00
2.572766014587847927e+00
2.631267799920652184e+00
2.631267799920652184e+00
2.564515762810144484e+00
2.506013977477339782e+00
2.506013977477339782e+00
2.661643726920377429e+00
2.661643726920377429e+00
2.692207159642323155e+00
2.755021576586199394e+00
2.755021576586199394e+00
2.585703909421063873e+00
2.585703909421063873e+00
2.325445966978973100e+00
2.280069582201605716e+00
2.280069582201605716e+00
2.138690267647328280e+00
2.138690267647328280e+00
2.507514023255104085e+00
2.784459974974822671e+00
2.784459974974822671e+00
2.642330637531663307e+00
2.642330637531663307e+00
2.306320383312479017e+00
2.550640339365825238e+00
2.550640339365825238e+00
2.643455671864986201e+00
2.473950498977630197e+00
2.473950498977630197e+00
2.480700704977568893e+00
2.480700704977568893e+00
2.442824549089022579e+00
2.394073061311685624e+00
2.394073061311685624e+00
2.591704092532120640e+00
2.591704092532120640e+00
2.528514664143802992e+00
2.683394390697958265e+00
2.683394390697958265e+00
2.485763359477523249e+00
2.485763359477523249e+00
2.335383770256660885e+00
2.520639423810540958e+00
2.520639423810540958e+00
2.672519058809167625e+00
2.582516312143315229e+00
2.582516312143315229e+00
2.768334482863857193e+00
2.768334482863857193e+00
2.472450453199865894e+00
2.453137363811151772e+00
2.453137363811151772e+00
2.355259376812036454e+00
2.355259376812036454e+00
2.393698049867244659e+00
2.436824365977965812e+00
2.436824365977965812e+00
2.421636402478102745e+00
2.421636402478102745e+00
2.408323496200445835e+00
2.348321665089877275e+00
2.348321665089877275e+00
2.454637409588916075e+00
2.483138279366435608e+00
2.483138279366435608e+00
2.445262123477889293e+00
2.445262123477889293e+00
2.449762260811182202e+00
2.821773613696707095e+00
2.821773613696707095e+00
2.892838282418286777e+00
2.892838282418286777e+00
2.488013428144169481e+00
2.421073885311441742e+00
2.421073885311441742e+00
2.692394665364543638e+00
2.692394665364543638e+00
2.527952146977141545e+00
2.446574663533433114e+00
2.446574663533433114e+00
2.412261116367076408e+00
2.412261116367076408e+00
2.420323862422559369e+00
2.314570635090182460e+00
2.314570635090182460e+00
2.273131870479445649e+00
2.442262031922361132e+00
2.442262031922361132e+00
2.770397045808282943e+00
2.770397045808282943e+00
2.806585650196844473e+00
2.770022034363841978e+00
2.770022034363841978e+00
2.727458235419781829e+00
2.727458235419781829e+00
2.570515945921201251e+00
2.362947111423078006e+00
2.362947111423078006e+00
2.211629993591112786e+00
2.211629993591112786e+00
2.242193426313058957e+00
2.359947019867549844e+00
2.359947019867549844e+00
2.410011047700430176e+00
2.410011047700430176e+00
2.456887478255561863e+00
2.687894528031251173e+00
2.687894528031251173e+00
2.628267708365123578e+00
2.538264961699270739e+00
2.538264961699270739e+00
2.451824823755607952e+00
2.451824823755607952e+00
2.311008026367992407e+00
2.496826197088534371e+00
2.496826197088534371e+00
2.832273934141056326e+00
2.832273934141056326e+00
2.701582445753349493e+00
2.419573839533677440e+00
2.419573839533677440e+00
2.432886745811334794e+00
2.560203131199072502e+00
2.560203131199072502e+00
2.587391460921048658e+00
2.587391460921048658e+00
2.561703176976836804e+00
2.425574022644734207e+00
2.425574022644734207e+00
2.124439832758568070e+00
2.124439832758568070e+00
2.217255165257729033e+00
2.625455122531815455e+00
2.625455122531815455e+00
2.668018921475875160e+00
2.668018921475875160e+00
2.763271828363902394e+00
2.628080202642903096e+00
2.628080202642903096e+00
2.436449354533524403e+00
2.436449354533524403e+00
2.446762169255653596e+00
2.608392101809748009e+00
2.608392101809748009e+00
2.664643818475905590e+00
2.570515945921201251e+00
2.570515945921201251e+00
2.507889034699545494e+00
2.507889034699545494e+00
2.288507339701529197e+00
2.313633106479079604e+00
2.313633106479079604e+00
2.197192052980132537e+00
2.197192052980132537e+00
2.405323404644917229e+00
2.692769676808984602e+00
2.692769676808984602e+00
2.674769127475814301e+00
2.674769127475814301e+00
2.719958006530961203e+00
2.749771416364024557e+00
2.749771416364024557e+00
2.605579515976439886e+00
2.605579515976439886e+00
2.534702352977080686e+00
2.417698782311472172e+00
2.417698782311472172e+00
2.446762169255653596e+00
2.527952146977141545e+00
2.527952146977141545e+00
2.270881801812799416e+00
2.270881801812799416e+00
2.161940977202673420e+00
2.299945188756981285e+00
2.299945188756981285e+00
2.440761986144596829e+00
2.440761986144596829e+00
2.647393292031617218e+00
2.624517593920713043e+00
2.624517593920713043e+00
2.667643910031433752e+00
2.774334665974913516e+00
2.774334665974913516e+00
2.619642445142979614e+00
2.619642445142979614e+00
2.559453108310190128e+00
2.473387981810968306e+00
2.473387981810968306e+00
2.478263130588702179e+00
2.478263130588702179e+00
2.499076265755180604e+00
2.387885372478407930e+00
2.387885372478407930e+00
2.474888027588732609e+00
2.474888027588732609e+00
2.536952421643726918e+00
2.443574571977904952e+00
2.443574571977904952e+00
2.338196356089969008e+00
2.396510635700552783e+00
2.396510635700552783e+00
2.547827753532517558e+00
2.547827753532517558e+00
2.700269905697806117e+00
2.523076998199408116e+00
2.523076998199408116e+00
2.440011963255714900e+00
2.440011963255714900e+00
2.504513931699575480e+00
2.576703634754478500e+00
2.576703634754478500e+00
2.641580614642780933e+00
2.641580614642780933e+00
2.557578051087984861e+00
2.416761253700369316e+00
2.416761253700369316e+00
2.341196447645496725e+00
2.341196447645496725e+00
2.289257362590411127e+00
2.423886471144749422e+00
2.423886471144749422e+00
2.659581163975951235e+00
2.649643360698263450e+00
2.649643360698263450e+00
2.686394482253486871e+00
2.686394482253486871e+00
2.636330454420606095e+00
2.483138279366435608e+00
2.483138279366435608e+00
2.419198828089236475e+00
2.419198828089236475e+00
2.534327341532639721e+00
2.422573931089205601e+00
2.422573931089205601e+00
2.395385601367229444e+00
2.395385601367229444e+00
2.432324228644673347e+00
2.582328806421094747e+00
2.582328806421094747e+00
2.598079287087618372e+00
2.598079287087618372e+00
2.563765739921262110e+00
2.425949034089175171e+00
2.425949034089175171e+00
2.554765465254677181e+00
2.465512741477706271e+00
2.465512741477706271e+00
2.471700430310983521e+00
2.471700430310983521e+00
2.513701712088381779e+00
2.517639332255012796e+00
2.517639332255012796e+00
2.565640797143467378e+00
2.565640797143467378e+00
2.635580431531724166e+00
2.532452284310434454e+00
2.532452284310434454e+00
2.420511368144779851e+00
2.420511368144779851e+00
2.539765007477034597e+00
2.513514206366161297e+00
2.513514206366161297e+00
2.579328714865566141e+00
2.579328714865566141e+00
2.483513290810876573e+00
2.296570085757011714e+00
2.296570085757011714e+00
2.303882808923612302e+00
2.303882808923612302e+00
2.341571459089938134e+00
2.635017914365062275e+00
2.635017914365062275e+00
2.609892147587511868e+00
2.708332651753288634e+00
2.708332651753288634e+00
2.660893704031495055e+00
2.660893704031495055e+00
2.594141666920987799e+00
2.509389080477309353e+00
2.509389080477309353e+00
2.355634388256477418e+00
2.355634388256477418e+00
2.343446516312143402e+00
2.299945188756981285e+00
2.299945188756981285e+00
2.500576311532944906e+00
2.500576311532944906e+00
2.641768120365001415e+00
2.670831507309182840e+00
2.670831507309182840e+00
2.604454481643116548e+00
2.604454481643116548e+00
2.626205145420697828e+00
2.617954893642994829e+00
2.617954893642994829e+00
2.490826013977477604e+00
2.492513565477461945e+00
2.492513565477461945e+00
2.494576128421887695e+00
2.494576128421887695e+00
2.447324686422315043e+00
2.434949308755760100e+00
2.434949308755760100e+00
2.372697408978545752e+00
2.372697408978545752e+00
2.234880703146458369e+00
2.417323770867030763e+00
2.417323770867030763e+00
2.585328897976622908e+00
2.585328897976622908e+00
2.590579058198797746e+00
2.722583086642048400e+00
2.722583086642048400e+00
2.614017273476363368e+00
2.447699697866756008e+00
2.447699697866756008e+00
2.535639881588183542e+00
2.535639881588183542e+00
2.654143498031556359e+00
2.611954710531937618e+00
2.611954710531937618e+00
2.515764275032807085e+00
2.515764275032807085e+00
2.421261391033662225e+00
2.342508987701040546e+00
2.342508987701040546e+00
2.298632648701437464e+00
2.298632648701437464e+00
2.388635395367290304e+00
2.526639606921598169e+00
2.526639606921598169e+00
2.491013519699698087e+00
2.528514664143802992e+00
2.528514664143802992e+00
2.580641254921109962e+00
2.580641254921109962e+00
2.572766014587847927e+00
2.682081850642414445e+00
2.682081850642414445e+00
2.524014526810510528e+00
2.524014526810510528e+00
2.576703634754478500e+00
2.575953611865596571e+00
2.575953611865596571e+00
2.534327341532639721e+00
2.534327341532639721e+00
2.509014069032868388e+00
2.433636768700216724e+00
2.433636768700216724e+00
2.434011780144657688e+00
2.434011780144657688e+00
2.481450727866450823e+00
2.479200659199805035e+00
2.479200659199805035e+00
2.463450178533280521e+00
2.416573747978148834e+00
2.416573747978148834e+00
2.380572649311807787e+00
2.380572649311807787e+00
2.483888302255317981e+00
2.603141941587572727e+00
2.603141941587572727e+00
2.696144779808954173e+00
2.696144779808954173e+00
2.679081759086886283e+00
2.619079927976317723e+00
2.619079927976317723e+00
2.518951872310556173e+00
2.518951872310556173e+00
2.472450453199865894e+00
2.451262306588946061e+00
2.451262306588946061e+00
2.443199560533463544e+00
2.443199560533463544e+00
2.454824915311136557e+00
2.399135715811639535e+00
2.399135715811639535e+00
2.396510635700552783e+00
2.539202490310373150e+00
2.539202490310373150e+00
2.557578051087984861e+00
2.557578051087984861e+00
2.582141300698873820e+00
2.505451460310678335e+00
2.505451460310678335e+00
2.548015259254738041e+00
2.548015259254738041e+00
2.539014984588152668e+00
2.612892239143040030e+00
2.612892239143040030e+00
2.445262123477889293e+00
2.290382396923734465e+00
2.290382396923734465e+00
2.417136265144810281e+00
2.417136265144810281e+00
2.521764458143864296e+00
2.578016174810022321e+00
2.578016174810022321e+00
2.487075899533067069e+00
2.487075899533067069e+00
2.475450544755394056e+00
2.470200384533219218e+00
2.470200384533219218e+00
2.596579241309854513e+00
2.596579241309854513e+00
2.561140659810174913e+00
2.536952421643726918e+00
2.536952421643726918e+00
2.557578051087984861e+00
2.557578051087984861e+00
2.585141392254402426e+00
2.580453749198889035e+00
2.580453749198889035e+00
2.494763634144108178e+00
2.501138828699606353e+00
2.501138828699606353e+00
2.431949217200232383e+00
2.431949217200232383e+00
2.296945097201452679e+00
2.481825739310891787e+00
2.481825739310891787e+00
2.545015167699209435e+00
2.545015167699209435e+00
2.688644550920133103e+00
2.614204779198583850e+00
2.614204779198583850e+00
2.548952787865840897e+00
2.548952787865840897e+00
2.542015076143681274e+00
2.449199743644520311e+00
2.449199743644520311e+00
2.424823999755851833e+00
2.421823908200323228e+00
2.421823908200323228e+00
2.327883541367839371e+00
2.327883541367839371e+00
2.508076540421765976e+00
2.682081850642414445e+00
2.682081850642414445e+00
2.592454115421003014e+00
2.592454115421003014e+00
2.536389904477065471e+00
2.398573198644978088e+00
2.398573198644978088e+00
2.452387340922269399e+00
2.452387340922269399e+00
2.553827936643574326e+00
2.530952238532670151e+00
2.530952238532670151e+00
2.609892147587511868e+00
2.606517044587542742e+00
2.606517044587542742e+00
2.644955717642750059e+00
2.502076357310709209e+00
2.502076357310709209e+00
2.417323770867030763e+00
2.340446424756614796e+00
2.340446424756614796e+00
2.353009308145390222e+00
2.353009308145390222e+00
2.434011780144657688e+00
2.582703817865535711e+00
2.582703817865535711e+00
2.611954710531937618e+00
2.611954710531937618e+00
2.506764000366222156e+00
2.476013061922055947e+00
2.476013061922055947e+00
2.503201391644032547e+00
2.503201391644032547e+00
2.505826471755119300e+00
2.502826380199591139e+00
2.502826380199591139e+00
2.550640339365825238e+00
2.550640339365825238e+00
2.588141483809930588e+00
2.560953154087954431e+00
2.560953154087954431e+00
2.504513931699575480e+00
2.457637501144443792e+00
2.457637501144443792e+00
2.479575670644245999e+00
2.479575670644245999e+00
2.530389721366008260e+00
2.472262947477644968e+00
2.472262947477644968e+00
2.480138187810907002e+00
2.480138187810907002e+00
2.470575395977660182e+00
2.484263313699758946e+00
2.484263313699758946e+00
2.558890591143528681e+00
2.558890591143528681e+00
2.481075716422009858e+00
2.548015259254738041e+00
2.548015259254738041e+00
2.657518601031525485e+00
2.657518601031525485e+00
2.630330271309549328e+00
2.557765556810205343e+00
2.557765556810205343e+00
2.449949766533402684e+00
2.449949766533402684e+00
2.390135441145054607e+00
2.403448347422711961e+00
2.403448347422711961e+00
2.420886379589221260e+00
2.418261299478133619e+00
2.418261299478133619e+00
2.451449812311166987e+00
2.501138828699606353e+00
2.501138828699606353e+00
2.628080202642903096e+00
2.534139835810419239e+00
2.534139835810419239e+00
2.549140293588061379e+00
2.549140293588061379e+00
2.578016174810022321e+00
2.569578417310098839e+00
2.569578417310098839e+00
2.537514938810388809e+00
2.537514938810388809e+00
2.506951506088442638e+00
2.540890041810357936e+00
2.540890041810357936e+00
2.535639881588183542e+00
2.535639881588183542e+00
2.437199377422406776e+00
2.421261391033662225e+00
2.421261391033662225e+00
2.420136356700338887e+00
2.476950590533158358e+00
2.476950590533158358e+00
2.546140202032532773e+00
2.546140202032532773e+00
2.588516495254371552e+00
2.522701986754967152e+00
2.522701986754967152e+00
2.491763542588580016e+00
2.491763542588580016e+00
2.491763542588580016e+00
2.443012054811243061e+00
2.443012054811243061e+00
2.455199926755577522e+00
2.455199926755577522e+00
2.576328623310037536e+00
2.584766380809961461e+00
2.584766380809961461e+00
2.560390636921292984e+00
2.470200384533219218e+00
2.470200384533219218e+00
2.440199468977935382e+00
2.440199468977935382e+00
2.457637501144443792e+00
2.392573015533921321e+00
2.392573015533921321e+00
2.456699972533341381e+00
2.456699972533341381e+00
2.590954069643238711e+00
2.613079744865260956e+00
2.613079744865260956e+00
2.667081392864772749e+00
2.667081392864772749e+00
2.656768578142643555e+00
2.584766380809961461e+00
2.584766380809961461e+00
2.489138462477492819e+00
2.489138462477492819e+00
2.344384044923245813e+00
2.409636036255989211e+00
2.409636036255989211e+00
2.513701712088381779e+00
2.444699606311227846e+00
2.444699606311227846e+00
2.478450636310922661e+00
2.478450636310922661e+00
2.481450727866450823e+00
2.427074068422498510e+00
2.427074068422498510e+00
2.544827661976988953e+00
2.544827661976988953e+00
2.405885921811578676e+00
2.464012695699941968e+00
2.464012695699941968e+00
2.753709036530656018e+00
2.673644093142490963e+00
2.673644093142490963e+00
2.582891323587756194e+00
2.582891323587756194e+00
2.556265511032441040e+00
2.493451094088564801e+00
2.493451094088564801e+00
2.478263130588702179e+00
2.478263130588702179e+00
2.320758323923459709e+00
2.367259743034150432e+00
2.367259743034150432e+00
2.486325876644184696e+00
2.486325876644184696e+00
2.498326242866298674e+00
2.483700796533097499e+00
2.483700796533097499e+00
2.515951780755027567e+00
2.515951780755027567e+00
2.490263496810816157e+00
2.661643726920377429e+00
2.661643726920377429e+00
2.671956541642506178e+00
2.672331553086947142e+00
2.672331553086947142e+00
2.523827021088290046e+00
2.523827021088290046e+00
2.396510635700552783e+00
2.438136906033509188e+00
2.438136906033509188e+00
2.457262489700002828e+00
2.457262489700002828e+00
2.534702352977080686e+00
2.447512192144535526e+00
2.447512192144535526e+00
2.457262489700002828e+00
2.457262489700002828e+00
2.502826380199591139e+00
2.550452833643604755e+00
2.550452833643604755e+00
2.573141026032288892e+00
2.573141026032288892e+00
2.545765190588091809e+00
2.515576769310586602e+00
2.515576769310586602e+00
2.547452742088076594e+00
2.513889217810602261e+00
2.513889217810602261e+00
2.449949766533402684e+00
2.449949766533402684e+00
2.469637867366557771e+00
2.527014618366038690e+00
2.527014618366038690e+00
2.530577227088229186e+00
2.530577227088229186e+00
2.501513840144047762e+00
2.483888302255317981e+00
2.483888302255317981e+00
2.359947019867549844e+00
2.359947019867549844e+00
2.343634022034363884e+00
2.494201116977446731e+00
2.494201116977446731e+00
2.559265602587969646e+00
2.613267250587481438e+00
2.613267250587481438e+00
2.588704000976592479e+00
2.588704000976592479e+00
2.535639881588183542e+00
2.548390270699179450e+00
2.548390270699179450e+00
2.558328073976867234e+00
2.558328073976867234e+00
2.562828211310159254e+00
2.477138096255378841e+00
2.477138096255378841e+00
2.428199102755821404e+00
2.428199102755821404e+00
2.424073976866969904e+00
2.484263313699758946e+00
2.484263313699758946e+00
2.523452009643849081e+00
2.524014526810510528e+00
2.524014526810510528e+00
2.581203772087771409e+00
2.581203772087771409e+00
2.574453566087832268e+00
2.465700247199926753e+00
2.465700247199926753e+00
2.436449354533524403e+00
2.436449354533524403e+00
2.480138187810907002e+00
2.574828577532273233e+00
2.574828577532273233e+00
2.574641071810052750e+00
2.574641071810052750e+00
2.538452467421491221e+00
2.497013702810754854e+00
2.497013702810754854e+00
2.484263313699758946e+00
2.484263313699758946e+00
2.471887936033204003e+00
2.470950407422101591e+00
2.470950407422101591e+00
2.499451277199621568e+00
2.406073427533799602e+00
2.406073427533799602e+00
2.351321756645405436e+00
2.351321756645405436e+00
2.472075441755424485e+00
2.662768761253700323e+00
2.662768761253700323e+00
2.698582354197820887e+00
2.698582354197820887e+00
2.651143406476027753e+00
2.558328073976867234e+00
2.558328073976867234e+00
2.512014160588396994e+00
2.512014160588396994e+00
2.476388073366496911e+00
2.452762352366710363e+00
2.452762352366710363e+00
2.419948850978118404e+00
2.419948850978118404e+00
2.462325144199957183e+00
2.486138370921964214e+00
2.486138370921964214e+00
2.449949766533402684e+00
2.449949766533402684e+00
2.450512283700064131e+00
2.497576219977416301e+00
2.497576219977416301e+00
2.531514755699331598e+00
2.676644184698019568e+00
2.676644184698019568e+00
2.647580797753837700e+00
2.647580797753837700e+00
2.543140110477004168e+00
2.503576403088473068e+00
2.503576403088473068e+00
2.428011597033600921e+00
2.428011597033600921e+00
2.368197271645252844e+00
2.410948576311533031e+00
2.410948576311533031e+00
2.482763267921994643e+00
2.482763267921994643e+00
2.587953978087710105e+00
2.565453291421246895e+00
2.565453291421246895e+00
2.549327799310281861e+00
2.465887752922147680e+00
2.465887752922147680e+00
2.473762993255409270e+00
2.473762993255409270e+00
2.482013245033112270e+00
2.529827204199346813e+00
2.529827204199346813e+00
2.508076540421765976e+00
2.508076540421765976e+00
2.522514481032746669e+00
2.613267250587481438e+00
2.613267250587481438e+00
2.574828577532273233e+00
2.574828577532273233e+00
2.507889034699545494e+00
2.494201116977446731e+00
2.494201116977446731e+00
2.464575212866603859e+00
2.464575212866603859e+00
2.426136539811395654e+00
2.398010681478316641e+00
2.398010681478316641e+00
2.397823175756096159e+00
2.397823175756096159e+00
2.524577043977172419e+00
2.507326517532883603e+00
2.507326517532883603e+00
2.527952146977141545e+00
2.622455030976286849e+00
2.622455030976286849e+00
2.524202032532731454e+00
2.524202032532731454e+00
2.479950682088686964e+00
2.531702261421552080e+00
2.531702261421552080e+00
2.586078920865504838e+00
2.586078920865504838e+00
2.571453474532304107e+00
2.580828760643330444e+00
2.580828760643330444e+00
2.527952146977141545e+00
2.527952146977141545e+00
2.506951506088442638e+00
2.416761253700369316e+00
2.416761253700369316e+00
2.414511185033723084e+00
2.524952055421613384e+00
2.524952055421613384e+00
2.541640064699239865e+00
2.541640064699239865e+00
2.563953245643482592e+00
2.583078829309976676e+00
2.583078829309976676e+00
2.513514206366161297e+00
2.513514206366161297e+00
2.481825739310891787e+00
2.512201666310617476e+00
2.512201666310617476e+00
2.532452284310434454e+00
2.532452284310434454e+00
2.497013702810754854e+00
2.422761436811426083e+00
2.422761436811426083e+00
2.393885555589465142e+00
2.393885555589465142e+00
2.427261574144718992e+00
2.458387524033326166e+00
2.458387524033326166e+00
2.538452467421491221e+00
2.510326609088412209e+00
2.510326609088412209e+00
2.552140385143589540e+00
2.552140385143589540e+00
2.619642445142979614e+00
2.609517136143070459e+00
2.609517136143070459e+00
2.534889858699301168e+00
2.534889858699301168e+00
2.473012970366527341e+00
2.436074343089083438e+00
2.436074343089083438e+00
2.487825922421948999e+00
2.487825922421948999e+00
2.506576494644001674e+00
2.516139286477248493e+00
2.516139286477248493e+00
2.512389172032837958e+00
2.512389172032837958e+00
2.492701071199682428e+00
2.479388164922025517e+00
2.479388164922025517e+00
2.492138554033020981e+00
2.462512649922177665e+00
2.462512649922177665e+00
2.515389263588366120e+00
2.515389263588366120e+00
2.560953154087954431e+00
2.572766014587847927e+00
2.572766014587847927e+00
2.623955076754051152e+00
2.623955076754051152e+00
2.560390636921292984e+00
2.457074983977782345e+00
2.457074983977782345e+00
2.463262672811060039e+00
2.463262672811060039e+00
2.457637501144443792e+00
2.372134891811884305e+00
2.372134891811884305e+00
2.383385235145115466e+00
2.419011322367015993e+00
2.419011322367015993e+00
2.524389538254951937e+00
2.524389538254951937e+00
2.583453840754417641e+00
2.591329081087679675e+00
2.591329081087679675e+00
2.584578875087740979e+00
2.584578875087740979e+00
2.616267342143010044e+00
2.615704824976348153e+00
2.528327158421582510e+00
2.528327158421582510e+00
2.497763725699636783e+00
2.497763725699636783e+00
2.463825189977721486e+00
2.507326517532883603e+00
2.507326517532883603e+00
2.575016083254493715e+00
2.438136906033509188e+00
2.438136906033509188e+00
2.319258278145695407e+00
2.319258278145695407e+00
2.378510086367381593e+00
2.461200109866634289e+00
2.461200109866634289e+00
2.530577227088229186e+00
2.530577227088229186e+00
2.543702627643666059e+00
2.608767113254188974e+00
2.608767113254188974e+00
2.593016632587664461e+00
2.593016632587664461e+00
2.593391644032105425e+00
2.552890408032471470e+00
2.552890408032471470e+00
2.551952879421369058e+00
2.551952879421369058e+00
2.567703360087893572e+00
2.497763725699636783e+00
2.497763725699636783e+00
2.437199377422406776e+00
2.419198828089236475e+00
2.419198828089236475e+00
2.382822717978454019e+00
2.382822717978454019e+00
2.415636219367045978e+00
2.487450910977508034e+00
2.487450910977508034e+00
2.539202490310373150e+00
2.539202490310373150e+00
2.550640339365825238e+00
2.561328165532395840e+00
2.561328165532395840e+00
2.511264137699515064e+00
2.511264137699515064e+00
2.520639423810540958e+00
2.514076723532822744e+00
2.514076723532822744e+00
2.481263222144230340e+00
2.481263222144230340e+00
2.487638416699728516e+00
2.534139835810419239e+00
2.534139835810419239e+00
2.526077089754936722e+00
2.526077089754936722e+00
2.504888943144016888e+00
2.471700430310983521e+00
2.549515305032502344e+00
2.549515305032502344e+00
2.520451918088320475e+00
2.482950773644215126e+00
2.482950773644215126e+00
2.531889767143772563e+00
2.531889767143772563e+00
2.544452650532547988e+00
2.587766472365489623e+00
2.587766472365489623e+00
2.573328531754509374e+00
2.573328531754509374e+00
2.463450178533280521e+00
2.441887020477920167e+00
2.441887020477920167e+00
2.473200476088747823e+00
2.486138370921964214e+00
2.486138370921964214e+00
2.494388622699667213e+00
2.494388622699667213e+00
2.436636860255744885e+00
2.409636036255989211e+00
2.409636036255989211e+00
2.475638050477614982e+00
2.475638050477614982e+00
2.541827570421460791e+00
2.557015533921323414e+00
2.557015533921323414e+00
2.538827478865932186e+00
2.538827478865932186e+00
2.586641438032166285e+00
2.569578417310098839e+00
2.569578417310098839e+00
2.526077089754936722e+00
2.497951231421857266e+00
2.497951231421857266e+00
2.521014435254982367e+00
2.521014435254982367e+00
2.531514755699331598e+00
2.503951414532914033e+00
2.503951414532914033e+00
2.476200567644276429e+00
2.476200567644276429e+00
2.464387707144383377e+00
2.392573015533921321e+00
2.392573015533921321e+00
2.414136173589282119e+00
2.512576677755058441e+00
2.512576677755058441e+00
2.631830317087313631e+00
2.631830317087313631e+00
2.614017273476363368e+00
2.590579058198797746e+00
2.590579058198797746e+00
2.533014801477095901e+00
2.533014801477095901e+00
2.531889767143772563e+00
2.437199377422406776e+00
2.437199377422406776e+00
2.442637043366802097e+00
2.442637043366802097e+00
2.469637867366557771e+00
2.451074800866725578e+00
2.451074800866725578e+00
2.460075075533310951e+00
2.460075075533310951e+00
2.451262306588946061e+00
2.514451734977264152e+00
2.514451734977264152e+00
2.569765923032319321e+00
2.545765190588091809e+00
2.545765190588091809e+00
2.574828577532273233e+00
2.574828577532273233e+00
2.548765282143620414e+00
2.529264687032685366e+00
2.529264687032685366e+00
2.486138370921964214e+00
2.451262306588946061e+00
2.451262306588946061e+00
2.460075075533310951e+00
2.460075075533310951e+00
2.514264229255043226e+00
2.527389629810480098e+00
2.527389629810480098e+00
2.504326425977354997e+00
2.504326425977354997e+00
2.513139194921720332e+00
2.497013702810754854e+00
2.497013702810754854e+00
2.490263496810816157e+00
2.490263496810816157e+00
2.472262947477644968e+00
2.470950407422101591e+00
2.470950407422101591e+00
2.494951139866329104e+00
2.534139835810419239e+00
2.534139835810419239e+00
2.575203588976714197e+00
2.575203588976714197e+00
2.560390636921292984e+00
2.545765190588091809e+00
2.545765190588091809e+00
2.545577684865871326e+00
2.545577684865871326e+00
2.505826471755119300e+00
2.449762260811182202e+00
2.449762260811182202e+00
2.442637043366802097e+00
2.442637043366802097e+00
2.426699056978057101e+00
2.418823816644795066e+00
2.418823816644795066e+00
2.471887936033204003e+00
2.471887936033204003e+00
2.517639332255012796e+00
2.545577684865871326e+00
2.545577684865871326e+00
2.556828028199102931e+00
2.556828028199102931e+00
2.571265968810083624e+00
2.584016357921079532e+00
2.584016357921079532e+00
2.498513748588519157e+00
2.494388622699667213e+00
2.494388622699667213e+00
2.545577684865871326e+00
2.545577684865871326e+00
2.496076174199651998e+00
2.467200292977691056e+00
2.467200292977691056e+00
2.486700888088625661e+00
2.486700888088625661e+00
2.431574205755790974e+00
2.439824457533493973e+00
2.439824457533493973e+00
2.523827021088290046e+00
2.523827021088290046e+00
2.565078279976805931e+00
2.559265602587969646e+00
2.559265602587969646e+00
2.590954069643238711e+00
2.590954069643238711e+00
2.620954985198522547e+00
2.523264503921628599e+00
2.523264503921628599e+00
2.467200292977691056e+00
2.423886471144749422e+00
2.423886471144749422e+00
2.443762077700125435e+00
2.443762077700125435e+00
2.502263863032929692e+00
2.479200659199805035e+00
2.479200659199805035e+00
2.509014069032868388e+00
2.509014069032868388e+00
2.460450086977751916e+00
2.454824915311136557e+00
2.454824915311136557e+00
2.498888760032960121e+00
2.498888760032960121e+00
2.505263954588457853e+00
2.539765007477034597e+00
2.539765007477034597e+00
2.576891140476698983e+00
2.599954344309823639e+00
2.599954344309823639e+00
2.497951231421857266e+00
2.497951231421857266e+00
2.516701803643909940e+00
2.482388256477553679e+00
2.482388256477553679e+00
2.472450453199865894e+00
2.472450453199865894e+00
2.512014160588396994e+00
2.536389904477065471e+00
2.536389904477065471e+00
2.512951689199499850e+00
2.512951689199499850e+00
2.465700247199926753e+00
2.462325144199957183e+00
2.462325144199957183e+00
2.444699606311227846e+00
2.444699606311227846e+00
2.442824549089022579e+00
2.571453474532304107e+00
2.571453474532304107e+00
2.584578875087740979e+00
2.586828943754386767e+00
2.586828943754386767e+00
2.538264961699270739e+00
2.538264961699270739e+00
2.494388622699667213e+00
2.455012421033357040e+00
2.455012421033357040e+00
2.422573931089205601e+00
2.422573931089205601e+00
2.481075716422009858e+00
2.524577043977172419e+00
2.524577043977172419e+00
2.510326609088412209e+00
2.510326609088412209e+00
2.464012695699941968e+00
2.480325693533127485e+00
2.480325693533127485e+00
2.497388714255195818e+00
2.537327433088168327e+00
2.537327433088168327e+00
2.581766289254432856e+00
2.581766289254432856e+00
2.611392193365276171e+00
2.563203222754600663e+00
2.563203222754600663e+00
2.510514114810632691e+00
2.510514114810632691e+00
2.489700979644154266e+00
2.474888027588732609e+00
2.474888027588732609e+00
2.479575670644245999e+00
2.465700247199926753e+00
2.465700247199926753e+00
2.465325235755485789e+00
2.465325235755485789e+00
2.446762169255653596e+00
2.479950682088686964e+00
2.479950682088686964e+00
2.542202581865901756e+00
2.542202581865901756e+00
2.534514847254860204e+00
2.524764549699392902e+00
2.524764549699392902e+00
2.557203039643543896e+00
2.557203039643543896e+00
2.567515854365672645e+00
2.527202124088259172e+00
2.527202124088259172e+00
2.510889126255073656e+00
2.510889126255073656e+00
2.485200842310861358e+00
2.490263496810816157e+00
2.490263496810816157e+00
2.488388439588610446e+00
2.488388439588610446e+00
2.465512741477706271e+00
2.447512192144535526e+00
2.447512192144535526e+00
2.429136631366924259e+00
2.451637318033387469e+00
2.451637318033387469e+00
2.485200842310861358e+00
2.485200842310861358e+00
2.528514664143802992e+00
2.583078829309976676e+00
2.583078829309976676e+00
2.620204962309641061e+00
2.620204962309641061e+00
2.571078463087863142e+00
2.536577410199285953e+00
2.536577410199285953e+00
2.513326700643940814e+00
2.513326700643940814e+00
2.480888210699789376e+00
2.514639240699484635e+00
2.514639240699484635e+00
2.521951963866084778e+00
2.501326334421826836e+00
2.501326334421826836e+00
2.455949949644459451e+00
2.455949949644459451e+00
2.469825373088778253e+00
2.480700704977568893e+00
2.480700704977568893e+00
2.504326425977354997e+00
2.504326425977354997e+00
2.565828302865687860e+00
2.536202398754844989e+00
2.536202398754844989e+00
2.528889675588243957e+00
2.528889675588243957e+00
2.537139927365947845e+00
2.532452284310434454e+00
2.532452284310434454e+00
2.498326242866298674e+00
2.498326242866298674e+00
2.471325418866542556e+00
2.496451185644092963e+00
2.496451185644092963e+00
2.446387157811212187e+00
2.419386333811456957e+00
2.419386333811456957e+00
2.424261482589190386e+00
2.424261482589190386e+00
2.473200476088747823e+00
2.542202581865901756e+00
2.542202581865901756e+00
2.561140659810174913e+00
2.561140659810174913e+00
2.568078371532334536e+00
2.596391735587634031e+00
2.596391735587634031e+00
2.547452742088076594e+00
2.547452742088076594e+00
2.513701712088381779e+00
2.513514206366161297e+00
2.513514206366161297e+00
2.464762718588824342e+00
2.464762718588824342e+00
2.480513199255348411e+00
2.523076998199408116e+00
2.523076998199408116e+00
2.526827112643818651e+00
2.509014069032868388e+00
2.509014069032868388e+00
2.480138187810907002e+00
2.480138187810907002e+00
2.498888760032960121e+00
2.536202398754844989e+00
2.536202398754844989e+00
2.485388348033082284e+00
2.485388348033082284e+00
2.477325601977599767e+00
2.520451918088320475e+00
2.520451918088320475e+00
2.531514755699331598e+00
2.531514755699331598e+00
2.532827295754875419e+00
2.518951872310556173e+00
2.518951872310556173e+00
2.474513016144291644e+00
2.474138004699850679e+00
2.474138004699850679e+00
2.467575304422132465e+00
2.467575304422132465e+00
2.485763359477523249e+00
2.485950865199743731e+00
2.485950865199743731e+00
2.415261207922605013e+00
2.415261207922605013e+00
2.511826654866176511e+00
2.574453566087832268e+00
2.574453566087832268e+00
2.573891048921170377e+00
2.573891048921170377e+00
2.582891323587756194e+00
2.569015900143436948e+00
2.569015900143436948e+00
2.548765282143620414e+00
2.530389721366008260e+00
2.530389721366008260e+00
2.518014343699453761e+00
2.518014343699453761e+00
2.523264503921628599e+00
2.467575304422132465e+00
2.467575304422132465e+00
2.443012054811243061e+00
2.443012054811243061e+00
2.446012146366771223e+00
2.409448530533769173e+00
2.409448530533769173e+00
2.397823175756096159e+00
2.397823175756096159e+00
2.449574755088961275e+00
2.537327433088168327e+00
2.537327433088168327e+00
2.585703909421063873e+00
2.638955534531693736e+00
2.638955534531693736e+00
2.606517044587542742e+00
2.606517044587542742e+00
2.553640430921353843e+00
2.530202215643787778e+00
2.530202215643787778e+00
2.532639790032654936e+00
2.532639790032654936e+00
2.507326517532883603e+00
2.463075167088839557e+00
2.463075167088839557e+00
2.384135258033997840e+00
2.384135258033997840e+00
2.383947752311777357e+00
2.401760795922727176e+00
2.401760795922727176e+00
2.422573931089205601e+00
2.422573931089205601e+00
2.577266151921139947e+00
2.572391003143406518e+00
2.572391003143406518e+00
2.637267983031708951e+00
2.637267983031708951e+00
2.629767754142887881e+00
2.528139652699362028e+00
2.528139652699362028e+00
2.485388348033082284e+00
2.509014069032868388e+00
2.509014069032868388e+00
2.501701345866268245e+00
2.501701345866268245e+00
2.504701437421796406e+00
2.486138370921964214e+00
2.486138370921964214e+00
2.477888119144261214e+00
2.477888119144261214e+00
2.464575212866603859e+00
2.428761619922483295e+00
2.428761619922483295e+00
2.483325785088656090e+00
2.483325785088656090e+00
2.541452558977019383e+00
2.520639423810540958e+00
2.520639423810540958e+00
2.548390270699179450e+00
2.578203680532242803e+00
2.578203680532242803e+00
2.558140568254646752e+00
2.558140568254646752e+00
2.534327341532639721e+00
2.530952238532670151e+00
2.530952238532670151e+00
2.515201757866145638e+00
2.515201757866145638e+00
2.512764183477279367e+00
2.491013519699698087e+00
2.491013519699698087e+00
2.488950956755272337e+00
2.488950956755272337e+00
2.473575487533188788e+00
2.422761436811426083e+00
2.422761436811426083e+00
2.435699331644642474e+00
2.435699331644642474e+00
2.471700430310983521e+00
2.478450636310922661e+00
2.478450636310922661e+00
2.517451826532791870e+00
2.550452833643604755e+00
2.550452833643604755e+00
2.563765739921262110e+00
2.563765739921262110e+00
2.568078371532334536e+00
2.530389721366008260e+00
2.530389721366008260e+00
2.487825922421948999e+00
2.487825922421948999e+00
2.494763634144108178e+00
2.487075899533067069e+00
2.487075899533067069e+00
2.487825922421948999e+00
2.487825922421948999e+00
2.470762901699881109e+00
2.485575853755302767e+00
2.485575853755302767e+00
2.534139835810419239e+00
2.542202581865901756e+00
2.542202581865901756e+00
2.525139561143833866e+00
2.525139561143833866e+00
2.550077822199164235e+00
2.566390820032349751e+00
2.566390820032349751e+00
2.531702261421552080e+00
2.531702261421552080e+00
2.531514755699331598e+00
2.521764458143864296e+00
2.521764458143864296e+00
2.491013519699698087e+00
2.491013519699698087e+00
2.483700796533097499e+00
2.481450727866450823e+00
2.481450727866450823e+00
2.468137821588793912e+00
2.468137821588793912e+00
2.413011139255958781e+00
2.391635486922818910e+00
2.391635486922818910e+00
2.461950132755516218e+00
2.506201483199560265e+00
2.506201483199560265e+00
2.553827936643574326e+00
2.553827936643574326e+00
2.636517960142826578e+00
2.597516769920956925e+00
2.597516769920956925e+00
2.526452101199377687e+00
2.526452101199377687e+00
2.478263130588702179e+00
2.480513199255348411e+00
2.480513199255348411e+00
2.493076082644123392e+00
2.503951414532914033e+00
2.503951414532914033e+00
2.472825464644306859e+00
2.472825464644306859e+00
2.457074983977782345e+00
2.462700155644398592e+00
2.462700155644398592e+00
2.480513199255348411e+00
2.480513199255348411e+00
2.524764549699392902e+00
2.549890316476943308e+00
2.549890316476943308e+00
2.539202490310373150e+00
2.539202490310373150e+00
2.498888760032960121e+00
2.535827387310404024e+00
2.535827387310404024e+00
2.574453566087832268e+00
2.574453566087832268e+00
2.543327616199224650e+00
2.494013611255226248e+00
2.494013611255226248e+00
2.494013611255226248e+00
2.482950773644215126e+00
2.482950773644215126e+00
2.454824915311136557e+00
2.454824915311136557e+00
2.464387707144383377e+00
2.473950498977630197e+00
2.473950498977630197e+00
2.514451734977264152e+00
2.514451734977264152e+00
2.525702078310495757e+00
2.518014343699453761e+00
2.518014343699453761e+00
2.523264503921628599e+00
2.516326792199468976e+00
2.516326792199468976e+00
2.515014252143925599e+00
2.515014252143925599e+00
2.514076723532822744e+00
2.481825739310891787e+00
2.481825739310891787e+00
2.503013885921811621e+00
2.503013885921811621e+00
2.494951139866329104e+00
2.490638508255257122e+00
2.490638508255257122e+00
2.494201116977446731e+00
2.494201116977446731e+00
2.460450086977751916e+00
2.457825006866664719e+00
2.457825006866664719e+00
2.534327341532639721e+00
2.546327707754753256e+00
2.546327707754753256e+00
2.557390545365764378e+00
2.557390545365764378e+00
2.576328623310037536e+00
2.523264503921628599e+00
2.523264503921628599e+00
2.491951048310800498e+00
2.491951048310800498e+00
2.481638233588671305e+00
2.508826563310647906e+00
2.508826563310647906e+00
2.513889217810602261e+00
2.513889217810602261e+00
2.495138645588549586e+00
2.471512924588763038e+00
2.471512924588763038e+00
2.472450453199865894e+00
2.472450453199865894e+00
2.447699697866756008e+00
2.479388164922025517e+00
2.479388164922025517e+00
2.521201940977202849e+00
2.521201940977202849e+00
2.560203131199072502e+00
2.582891323587756194e+00
2.582891323587756194e+00
2.579891232032227588e+00
2.545577684865871326e+00
2.545577684865871326e+00
2.510514114810632691e+00
2.510514114810632691e+00
2.462887661366619074e+00
2.445824640644550740e+00
2.445824640644550740e+00
2.436636860255744885e+00
2.436636860255744885e+00
2.455012421033357040e+00
2.481450727866450823e+00
2.481450727866450823e+00
2.485200842310861358e+00
2.485200842310861358e+00
2.485013336588640875e+00
2.533389812921536866e+00
2.533389812921536866e+00
2.548015259254738041e+00
2.548015259254738041e+00
2.575203588976714197e+00
2.583641346476638123e+00
2.583641346476638123e+00
2.566765831476790716e+00
2.509951597643971244e+00
2.509951597643971244e+00
2.495326151310770069e+00
2.495326151310770069e+00
2.482200750755333196e+00
2.449387249366740793e+00
2.449387249366740793e+00
2.441887020477920167e+00
2.441887020477920167e+00
2.461575121311075254e+00
2.485200842310861358e+00
2.485200842310861358e+00
2.464200201422162451e+00
2.464200201422162451e+00
2.468137821588793912e+00
2.531889767143772563e+00
2.531889767143772563e+00
2.566390820032349751e+00
2.566390820032349751e+00
2.576328623310037536e+00
2.596391735587634031e+00
2.596391735587634031e+00
2.563203222754600663e+00
2.504513931699575480e+00
2.504513931699575480e+00
2.467950315866573430e+00
2.467950315866573430e+00
2.472262947477644968e+00
2.471887936033204003e+00
2.471887936033204003e+00
2.493263588366343875e+00
2.493076082644123392e+00
2.493076082644123392e+00
2.478263130588702179e+00
2.478263130588702179e+00
2.448637226477858864e+00
2.485013336588640875e+00
2.485013336588640875e+00
2.538077455977050256e+00
2.538077455977050256e+00
2.551202856532486685e+00
2.548577776421399932e+00
2.548577776421399932e+00
2.589829035309915373e+00
2.589829035309915373e+00
2.538827478865932186e+00
2.504326425977354997e+00
2.504326425977354997e+00
2.459512558366649504e+00
2.459512558366649504e+00
2.445449629200109776e+00
2.490263496810816157e+00
2.490263496810816157e+00
2.464575212866603859e+00
2.464575212866603859e+00
2.457262489700002828e+00
2.477513107699820250e+00
2.477513107699820250e+00
2.467200292977691056e+00
2.501513840144047762e+00
2.501513840144047762e+00
2.546515213476973738e+00
2.546515213476973738e+00
2.564328257087923557e+00
2.609517136143070459e+00
2.609517136143070459e+00
2.586266426587725320e+00
2.586266426587725320e+00
2.556265511032441040e+00
2.519326883754997581e+00
2.519326883754997581e+00
2.491576036866359534e+00
2.491576036866359534e+00
2.483325785088656090e+00
2.463825189977721486e+00
2.463825189977721486e+00
2.419573839533677440e+00
2.419573839533677440e+00
2.428761619922483295e+00
2.424073976866969904e+00
2.424073976866969904e+00
2.453137363811151772e+00
2.513514206366161297e+00
2.513514206366161297e+00
2.551390362254707167e+00
2.551390362254707167e+00
2.601829401532029351e+00
2.620204962309641061e+00
2.620204962309641061e+00
2.614954802087466224e+00
2.614954802087466224e+00
2.540890041810357936e+00
2.500388805810724424e+00
2.500388805810724424e+00
2.450512283700064131e+00
2.450512283700064131e+00
2.449387249366740793e+00
2.419198828089236475e+00
2.419198828089236475e+00
2.459137546922208095e+00
2.459137546922208095e+00
2.471325418866542556e+00
2.462512649922177665e+00
2.462512649922177665e+00
2.468325327311013950e+00
2.530764732810449669e+00
2.530764732810449669e+00
2.554390453810235773e+00
2.554390453810235773e+00
2.572766014587847927e+00
2.597704275643177407e+00
2.597704275643177407e+00
2.569765923032319321e+00
2.569765923032319321e+00
2.523827021088290046e+00
2.509389080477309353e+00
2.509389080477309353e+00
2.491013519699698087e+00
2.491013519699698087e+00
2.483888302255317981e+00
2.482388256477553679e+00
2.482388256477553679e+00
2.491201025421918569e+00
2.473950498977630197e+00
2.473950498977630197e+00
2.453699880977813219e+00
2.453699880977813219e+00
2.481450727866450823e+00
2.520076906643879511e+00
2.520076906643879511e+00
2.530202215643787778e+00
2.530202215643787778e+00
2.550640339365825238e+00
2.529077181310464884e+00
2.529077181310464884e+00
2.498701254310739639e+00
2.498701254310739639e+00
2.484825830866420393e+00
2.468700338755454915e+00
2.468700338755454915e+00
2.465137730033265306e+00
2.465137730033265306e+00
2.509951597643971244e+00
2.531514755699331598e+00
2.531514755699331598e+00
2.498701254310739639e+00
2.498701254310739639e+00
2.475263039033173573e+00
2.473200476088747823e+00
2.473200476088747823e+00
2.515951780755027567e+00
2.546140202032532773e+00
2.546140202032532773e+00
2.558140568254646752e+00
2.558140568254646752e+00
2.547452742088076594e+00
2.544640156254768470e+00
2.544640156254768470e+00
2.545390179143650844e+00
2.521201940977202849e+00
2.521201940977202849e+00
2.492701071199682428e+00
2.464200201422162451e+00
2.451449812311166987e+00
2.451449812311166987e+00
2.457449995422223310e+00
2.457449995422223310e+00
2.465325235755485789e+00
2.467950315866573430e+00
2.467950315866573430e+00
2.485575853755302767e+00
2.485575853755302767e+00
2.524764549699392902e+00
2.541265053254798900e+00
2.541265053254798900e+00
2.552702902310250987e+00
2.573328531754509374e+00
2.573328531754509374e+00
2.566953337199011198e+00
2.566953337199011198e+00
2.549140293588061379e+00
2.538827478865932186e+00
2.538827478865932186e+00
2.514451734977264152e+00
2.514451734977264152e+00
2.494951139866329104e+00
2.494201116977446731e+00
2.494201116977446731e+00
2.461762627033295736e+00
2.461762627033295736e+00
2.416573747978148834e+00
2.391072969756157018e+00
2.391072969756157018e+00
2.438324411755729670e+00
2.438324411755729670e+00
2.517076815088350905e+00
2.550452833643604755e+00
2.550452833643604755e+00
2.566015808587908342e+00
2.571265968810083624e+00
2.571265968810083624e+00
2.549515305032502344e+00
2.549515305032502344e+00
2.518014343699453761e+00
2.507514023255104085e+00
2.507514023255104085e+00
2.498701254310739639e+00
2.498701254310739639e+00
2.513139194921720332e+00
2.519889400921659028e+00
2.519889400921659028e+00
2.505638966032898818e+00
2.505638966032898818e+00
2.479388164922025517e+00
2.454824915311136557e+00
2.454824915311136557e+00
2.501138828699606353e+00
2.501138828699606353e+00
2.508451551866206941e+00
2.481075716422009858e+00
2.510326609088412209e+00
2.510326609088412209e+00
2.533577318643757348e+00
2.533577318643757348e+00
2.520076906643879511e+00
2.496638691366313889e+00
2.496638691366313889e+00
2.502451368755150174e+00
2.506951506088442638e+00
2.506951506088442638e+00
2.506951506088442638e+00
2.506951506088442638e+00
2.506576494644001674e+00
2.500388805810724424e+00
2.500388805810724424e+00
2.473575487533188788e+00
2.473575487533188788e+00
2.473387981810968306e+00
2.515764275032807085e+00
2.515764275032807085e+00
2.553077913754691952e+00
2.553077913754691952e+00
2.546327707754753256e+00
2.533389812921536866e+00
2.533389812921536866e+00
2.529639698477126331e+00
2.500388805810724424e+00
2.500388805810724424e+00
2.504513931699575480e+00
2.504513931699575480e+00
2.494388622699667213e+00
2.489888485366374749e+00
2.489888485366374749e+00
2.495888668477431516e+00
2.495888668477431516e+00
2.496451185644092963e+00
2.484450819421979428e+00
2.484450819421979428e+00
2.466075258644368162e+00
2.466075258644368162e+00
2.478075624866481697e+00
2.528327158421582510e+00
2.528327158421582510e+00
2.538827478865932186e+00
2.546890224921415147e+00
2.546890224921415147e+00
2.584578875087740979e+00
2.584578875087740979e+00
2.555140476699118146e+00
2.505263954588457853e+00
2.505263954588457853e+00
2.511076631977294138e+00
2.511076631977294138e+00
2.506388988921781191e+00
2.504138920255134515e+00
2.504138920255134515e+00
2.475263039033173573e+00
2.475263039033173573e+00
2.459887569811090469e+00
2.456137455366679934e+00
2.456137455366679934e+00
2.457637501144443792e+00
2.457637501144443792e+00
2.495513657032990551e+00
2.535452375865963059e+00
2.535452375865963059e+00
2.537139927365947845e+00
2.556828028199102931e+00
2.556828028199102931e+00
2.555140476699118146e+00
2.555140476699118146e+00
2.512389172032837958e+00
2.493826105533005766e+00
2.493826105533005766e+00
2.505451460310678335e+00
2.505451460310678335e+00
2.486138370921964214e+00
2.503763908810693550e+00
2.503763908810693550e+00
2.490451002533036640e+00
2.476950590533158358e+00
2.476950590533158358e+00
2.462325144199957183e+00
2.462325144199957183e+00
2.426511551255836618e+00
2.480888210699789376e+00
2.480888210699789376e+00
2.527764641254921063e+00
2.527764641254921063e+00
2.563765739921262110e+00
2.593954161198767316e+00
2.593954161198767316e+00
2.559453108310190128e+00
2.559453108310190128e+00
2.521951963866084778e+00
2.521576952421643814e+00
2.521576952421643814e+00
2.501326334421826836e+00
2.501326334421826836e+00
2.486888393810846587e+00
2.476013061922055947e+00
2.476013061922055947e+00
2.468887844477675397e+00
2.475825556199835464e+00
2.475825556199835464e+00
2.459887569811090469e+00
2.459887569811090469e+00
2.472450453199865894e+00
2.548202764976958523e+00
2.548202764976958523e+00
2.557953062532425825e+00
2.557953062532425825e+00
2.566015808587908342e+00
2.577078646198919465e+00
2.577078646198919465e+00
2.557765556810205343e+00
2.557765556810205343e+00
2.511826654866176511e+00
2.497201208532975336e+00
2.497201208532975336e+00
2.470575395977660182e+00
2.470575395977660182e+00
2.444324594866786882e+00
2.455012421033357040e+00
2.455012421033357040e+00
2.472075441755424485e+00
2.462512649922177665e+00
2.462512649922177665e+00
2.461387615588854771e+00
2.461387615588854771e+00
2.493451094088564801e+00
2.553077913754691952e+00
2.553077913754691952e+00
2.563578234199041628e+00
2.563578234199041628e+00
2.570890957365642215e+00
2.573141026032288892e+00
2.573141026032288892e+00
2.545390179143650844e+00
2.545390179143650844e+00
2.515576769310586602e+00
2.477138096255378841e+00
2.477138096255378841e+00
2.462325144199957183e+00
2.462325144199957183e+00
2.457637501144443792e+00
2.472075441755424485e+00
2.472075441755424485e+00
2.468137821588793912e+00
2.453699880977813219e+00
2.453699880977813219e+00
2.445074617755668811e+00
2.445074617755668811e+00
2.509201574755088870e+00
2.560390636921292984e+00
2.560390636921292984e+00
2.563765739921262110e+00
2.563765739921262110e+00
2.591704092532120640e+00
2.578766197698904250e+00
2.578766197698904250e+00
2.516701803643909940e+00
2.516701803643909940e+00
2.493451094088564801e+00
2.478825647755364070e+00
2.478825647755364070e+00
2.486700888088625661e+00
2.486700888088625661e+00
2.491388531144139051e+00
2.479950682088686964e+00
2.479950682088686964e+00
2.494951139866329104e+00
2.477700613422040732e+00
2.477700613422040732e+00
2.478450636310922661e+00
2.478450636310922661e+00
2.523264503921628599e+00
2.534139835810419239e+00
2.534139835810419239e+00
2.552327890865810023e+00
2.552327890865810023e+00
2.580078737754448071e+00
2.550265327921384717e+00
2.550265327921384717e+00
2.507139011810663121e+00
2.507139011810663121e+00
2.498701254310739639e+00
2.504513931699575480e+00
2.504513931699575480e+00
2.503201391644032547e+00
2.503201391644032547e+00
2.464762718588824342e+00
2.456887478255561863e+00
2.456887478255561863e+00
2.472450453199865894e+00
2.472450453199865894e+00
2.431761711478011456e+00
2.437011871700186294e+00
2.437011871700186294e+00
2.485575853755302767e+00
2.530952238532670151e+00
2.530952238532670151e+00
2.601079378643146978e+00
2.601079378643146978e+00
2.602954435865352245e+00
2.555702993865779593e+00
2.555702993865779593e+00
2.524202032532731454e+00
2.524202032532731454e+00
2.510139103366191726e+00
2.488200933866389963e+00
2.488200933866389963e+00
2.489513473921933784e+00
2.488763451033051854e+00
2.488763451033051854e+00
2.485388348033082284e+00
2.485388348033082284e+00
2.472637958922086376e+00
2.457449995422223310e+00
2.457449995422223310e+00
2.494388622699667213e+00
2.494388622699667213e+00
2.531139744254890633e+00
2.543327616199224650e+00
2.543327616199224650e+00
2.557015533921323414e+00
2.557015533921323414e+00
2.553827936643574326e+00
2.532827295754875419e+00
2.532827295754875419e+00
2.516889309366130423e+00
2.506576494644001674e+00
2.506576494644001674e+00
2.478075624866481697e+00
2.478075624866481697e+00
2.468887844477675397e+00
2.471887936033204003e+00
2.471887936033204003e+00
2.485013336588640875e+00
2.485013336588640875e+00
2.475263039033173573e+00
2.462887661366619074e+00
2.462887661366619074e+00
2.513139194921720332e+00
2.513139194921720332e+00
2.539765007477034597e+00
2.538452467421491221e+00
2.538452467421491221e+00
2.560203131199072502e+00
2.560203131199072502e+00
2.536952421643726918e+00
2.510326609088412209e+00
2.510326609088412209e+00
2.505451460310678335e+00
2.505451460310678335e+00
2.492701071199682428e+00
2.486888393810846587e+00
2.486888393810846587e+00
2.464387707144383377e+00
2.460450086977751916e+00
2.460450086977751916e+00
2.449574755088961275e+00
2.449574755088961275e+00
2.438136906033509188e+00
2.464950224311044824e+00
2.464950224311044824e+00
2.536014893032624506e+00
2.536014893032624506e+00
2.571078463087863142e+00
2.584766380809961461e+00
2.584766380809961461e+00
2.606142033143101333e+00
2.606142033143101333e+00
2.568265877254555019e+00
2.524764549699392902e+00
2.524764549699392902e+00
2.497763725699636783e+00
2.497763725699636783e+00
2.488200933866389963e+00
2.471137913144322074e+00
2.471137913144322074e+00
2.460825098422192880e+00
2.449574755088961275e+00
2.449574755088961275e+00
2.461012604144413807e+00
2.461012604144413807e+00
2.463075167088839557e+00
2.479013153477584552e+00
2.479013153477584552e+00
2.527389629810480098e+00
2.527389629810480098e+00
2.545015167699209435e+00
2.578016174810022321e+00
2.578016174810022321e+00
2.578953703421124732e+00
2.578953703421124732e+00
2.535639881588183542e+00
2.501701345866268245e+00
2.501701345866268245e+00
2.494951139866329104e+00
2.484638325144199911e+00
2.484638325144199911e+00
2.480888210699789376e+00
2.480888210699789376e+00
2.480700704977568893e+00
2.462887661366619074e+00
2.462887661366619074e+00
2.453324869533372254e+00
2.453324869533372254e+00
2.455574938200018487e+00
2.498326242866298674e+00
2.498326242866298674e+00
2.542952604754783685e+00
2.542952604754783685e+00
2.562453199865718290e+00
2.583266335032197158e+00
2.583266335032197158e+00
2.572766014587847927e+00
2.572766014587847927e+00
2.550077822199164235e+00
2.529639698477126331e+00
2.529639698477126331e+00
2.500013794366283459e+00
2.486700888088625661e+00
2.486700888088625661e+00
2.480888210699789376e+00
2.480888210699789376e+00
2.479950682088686964e+00
2.481263222144230340e+00
2.481263222144230340e+00
2.453137363811151772e+00
2.453137363811151772e+00
2.458200018311105683e+00
2.485388348033082284e+00
2.485388348033082284e+00
2.494013611255226248e+00
2.494013611255226248e+00
2.530389721366008260e+00
2.563390728476821145e+00
2.563390728476821145e+00
2.564328257087923557e+00
2.564328257087923557e+00
2.540327524643696488e+00
2.525702078310495757e+00
2.525702078310495757e+00
2.488763451033051854e+00
2.478638142033143144e+00
2.478638142033143144e+00
2.474888027588732609e+00
2.472637958922086376e+00
2.464200201422162451e+00
2.464200201422162451e+00
2.442637043366802097e+00
2.442637043366802097e+00
2.450699789422284613e+00
2.502263863032929692e+00
2.502263863032929692e+00
2.532264778588213971e+00
2.532264778588213971e+00
2.566765831476790716e+00
2.602016907254249833e+00
2.602016907254249833e+00
2.577453657643360874e+00
2.577453657643360874e+00
2.529077181310464884e+00
2.501326334421826836e+00
2.501326334421826836e+00
2.481825739310891787e+00
2.491763542588580016e+00
2.491763542588580016e+00
2.486138370921964214e+00
2.486138370921964214e+00
2.468700338755454915e+00
2.466825281533250092e+00
2.466825281533250092e+00
2.462325144199957183e+00
2.462325144199957183e+00
2.485763359477523249e+00
2.521389446699423331e+00
2.521389446699423331e+00
2.526264595477157204e+00
2.526264595477157204e+00
2.555515488143559111e+00
2.562640705587938772e+00
2.562640705587938772e+00
2.540890041810357936e+00
2.512014160588396994e+00
2.512014160588396994e+00
2.501888851588488727e+00
2.501888851588488727e+00
2.467950315866573430e+00
2.463637684255501004e+00
2.463637684255501004e+00
2.463637684255501004e+00
2.463637684255501004e+00
2.473950498977630197e+00
2.468700338755454915e+00
2.468700338755454915e+00
2.474700521866512126e+00
2.474700521866512126e+00
2.526452101199377687e+00
2.555890499588000075e+00
2.555890499588000075e+00
2.562453199865718290e+00
2.589641529587694890e+00
2.589641529587694890e+00
2.563203222754600663e+00
2.520076906643879511e+00
2.520076906643879511e+00
2.495513657032990551e+00
2.495513657032990551e+00
2.468137821588793912e+00
2.489888485366374749e+00
2.489888485366374749e+00
2.485950865199743731e+00
2.463825189977721486e+00
2.463825189977721486e+00
2.472262947477644968e+00
2.472262947477644968e+00
2.459887569811090469e+00
2.474513016144291644e+00
2.474513016144291644e+00
2.514639240699484635e+00
2.514639240699484635e+00
2.521576952421643814e+00
2.544827661976988953e+00
2.544827661976988953e+00
2.557390545365764378e+00
2.557390545365764378e+00
2.544640156254768470e+00
2.511076631977294138e+00
2.511076631977294138e+00
2.501888851588488727e+00
2.488763451033051854e+00
2.488763451033051854e+00
2.481450727866450823e+00
2.481450727866450823e+00
2.484075807977538464e+00
2.478825647755364070e+00
2.478825647755364070e+00
2.469262855922116806e+00
2.469262855922116806e+00
2.456887478255561863e+00
2.475825556199835464e+00
2.475825556199835464e+00
2.513889217810602261e+00
2.548015259254738041e+00
2.548015259254738041e+00
2.573516037476729856e+00
2.573516037476729856e+00
2.569578417310098839e+00
2.536764915921506436e+00
2.536764915921506436e+00
2.521764458143864296e+00
2.521764458143864296e+00
2.500388805810724424e+00
2.480325693533127485e+00
2.480325693533127485e+00
2.467575304422132465e+00
2.467575304422132465e+00
2.483325785088656090e+00
2.482388256477553679e+00
2.482388256477553679e+00
2.465700247199926753e+00
2.449762260811182202e+00
2.449762260811182202e+00
2.492888576921902910e+00
2.492888576921902910e+00
2.542952604754783685e+00
2.539202490310373150e+00
2.539202490310373150e+00
2.559265602587969646e+00
2.559265602587969646e+00
2.563390728476821145e+00
2.523076998199408116e+00
2.523076998199408116e+00
2.506951506088442638e+00
2.483138279366435608e+00
2.483138279366435608e+00
2.489888485366374749e+00
2.489888485366374749e+00
2.485575853755302767e+00
2.463825189977721486e+00
2.463825189977721486e+00
2.470575395977660182e+00
2.470575395977660182e+00
2.455949949644459451e+00
2.468512833033234433e+00
2.468512833033234433e+00
2.514451734977264152e+00
2.539765007477034597e+00
2.539765007477034597e+00
2.563953245643482592e+00
2.563953245643482592e+00
2.595829218420972584e+00
2.565640797143467378e+00
2.565640797143467378e+00
2.519326883754997581e+00
2.519326883754997581e+00
2.507326517532883603e+00
2.477513107699820250e+00
2.477513107699820250e+00
2.473387981810968306e+00
2.473387981810968306e+00
