2.507326517532883603e+00
2.507326517532883603e+00
2.538639973143711703e+00
2.538639973143711703e+00
2.538639973143711703e+00
2.538639973143711703e+00
2.545202673421430362e+00
2.545202673421430362e+00
2.545202673421430362e+00
2.545015167699209435e+00
2.545015167699209435e+00
2.545015167699209435e+00
2.545015167699209435e+00
2.518389355143894726e+00
2.518389355143894726e+00
2.518389355143894726e+00
2.484638325144199911e+00
2.484638325144199911e+00
2.484638325144199911e+00
2.473200476088747823e+00
2.473200476088747823e+00
2.473200476088747823e+00
2.473200476088747823e+00
2.458575029755546648e+00
2.458575029755546648e+00
2.458575029755546648e+00
2.452387340922269399e+00
2.452387340922269399e+00
2.452387340922269399e+00
2.452387340922269399e+00
2.447887203588976490e+00
2.447887203588976490e+00
2.447887203588976490e+00
2.465137730033265306e+00
2.465137730033265306e+00
2.465137730033265306e+00
2.465137730033265306e+00
2.457637501144443792e+00
2.457637501144443792e+00
2.457637501144443792e+00
2.428386608478041886e+00
2.428386608478041886e+00
2.428386608478041886e+00
2.432699240089114312e+00
2.432699240089114312e+00
2.432699240089114312e+00
2.432699240089114312e+00
2.487638416699728516e+00
2.487638416699728516e+00
2.487638416699728516e+00
2.525327066866054349e+00
2.525327066866054349e+00
2.525327066866054349e+00
2.525327066866054349e+00
2.547640247810297076e+00
2.547640247810297076e+00
2.547640247810297076e+00
2.558140568254646752e+00
2.558140568254646752e+00
2.558140568254646752e+00
2.558140568254646752e+00
2.522889492477187634e+00
2.522889492477187634e+00
2.522889492477187634e+00
2.486138370921964214e+00
2.486138370921964214e+00
2.486138370921964214e+00
2.486138370921964214e+00
2.474325510422071162e+00
2.474325510422071162e+00
2.474325510422071162e+00
2.478638142033143144e+00
2.478638142033143144e+00
2.478638142033143144e+00
2.469075350199895880e+00
2.469075350199895880e+00
2.469075350199895880e+00
2.469075350199895880e+00
2.448637226477858864e+00
2.448637226477858864e+00
2.448637226477858864e+00
2.438699423200171079e+00
2.438699423200171079e+00
2.438699423200171079e+00
2.449574755088961275e+00
2.449574755088961275e+00
2.449574755088961275e+00
2.449574755088961275e+00
2.442074526200140649e+00
2.442074526200140649e+00
2.442074526200140649e+00
2.478263130588702179e+00
2.478263130588702179e+00
2.478263130588702179e+00
2.530389721366008260e+00
2.530389721366008260e+00
2.530389721366008260e+00
2.535827387310404024e+00
2.535827387310404024e+00
2.535827387310404024e+00
2.536389904477065471e+00
2.536389904477065471e+00
2.536389904477065471e+00
2.536389904477065471e+00
2.528327158421582510e+00
2.528327158421582510e+00
2.528327158421582510e+00
2.504138920255134515e+00
2.504138920255134515e+00
2.504138920255134515e+00
2.480700704977568893e+00
2.480700704977568893e+00
2.480700704977568893e+00
2.480700704977568893e+00
2.473575487533188788e+00
2.473575487533188788e+00
2.473575487533188788e+00
2.458950041199987613e+00
2.458950041199987613e+00
2.458950041199987613e+00
2.458950041199987613e+00
2.459700064088869986e+00
2.459700064088869986e+00
2.459700064088869986e+00
2.461387615588854771e+00
2.461387615588854771e+00
2.461387615588854771e+00
2.456137455366679934e+00
2.456137455366679934e+00
2.456137455366679934e+00
2.456137455366679934e+00
2.457637501144443792e+00
2.457637501144443792e+00
2.457637501144443792e+00
2.485013336588640875e+00
2.485013336588640875e+00
2.485013336588640875e+00
2.518764366588335690e+00
2.518764366588335690e+00
2.519139378032776655e+00
2.519139378032776655e+00
2.519139378032776655e+00
2.523452009643849081e+00
2.523452009643849081e+00
2.523452009643849081e+00
2.523452009643849081e+00
2.541452558977019383e+00
2.541452558977019383e+00
2.541452558977019383e+00
2.537514938810388809e+00
2.537514938810388809e+00
2.537514938810388809e+00
2.495888668477431516e+00
2.495888668477431516e+00
2.495888668477431516e+00
2.495888668477431516e+00
2.468512833033234433e+00
2.468512833033234433e+00
2.468512833033234433e+00
2.449199743644520311e+00
2.449199743644520311e+00
2.449199743644520311e+00
2.449199743644520311e+00
2.447137180700094561e+00
2.447137180700094561e+00
2.447137180700094561e+00
2.438511917477950597e+00
2.438511917477950597e+00
2.438511917477950597e+00
2.438511917477950597e+00
2.443199560533463544e+00
2.443199560533463544e+00
2.443199560533463544e+00
2.464200201422162451e+00
2.464200201422162451e+00
2.464200201422162451e+00
2.465137730033265306e+00
2.465137730033265306e+00
2.465137730033265306e+00
2.465137730033265306e+00
2.452949858088931290e+00
2.452949858088931290e+00
2.452949858088931290e+00
2.484638325144199911e+00
2.484638325144199911e+00
2.484638325144199911e+00
2.484638325144199911e+00
2.504888943144016888e+00
2.504888943144016888e+00
2.504888943144016888e+00
2.548390270699179450e+00
2.548390270699179450e+00
2.548390270699179450e+00
2.568265877254555019e+00
2.568265877254555019e+00
2.568265877254555019e+00
2.568265877254555019e+00
2.544265144810327506e+00
2.544265144810327506e+00
2.544265144810327506e+00
2.504138920255134515e+00
2.504138920255134515e+00
2.504138920255134515e+00
2.504138920255134515e+00
2.473200476088747823e+00
2.473200476088747823e+00
2.473200476088747823e+00
2.459137546922208095e+00
2.459137546922208095e+00
2.459137546922208095e+00
2.464387707144383377e+00
2.464387707144383377e+00
2.464387707144383377e+00
2.464387707144383377e+00
2.461387615588854771e+00
2.461387615588854771e+00
2.461387615588854771e+00
2.444137089144566399e+00
2.444137089144566399e+00
2.444137089144566399e+00
2.444137089144566399e+00
2.432886745811334794e+00
2.432886745811334794e+00
2.432886745811334794e+00
2.427074068422498510e+00
2.427074068422498510e+00
2.427074068422498510e+00
2.476200567644276429e+00
2.476200567644276429e+00
2.476200567644276429e+00
2.476200567644276429e+00
2.517264320810571387e+00
2.517264320810571387e+00
2.517264320810571387e+00
2.530952238532670151e+00
2.530952238532670151e+00
2.530952238532670151e+00
2.530952238532670151e+00
2.529827204199346813e+00
2.529827204199346813e+00
2.529827204199346813e+00
2.531139744254890633e+00
2.531139744254890633e+00
2.531139744254890633e+00
2.500763817255165389e+00
2.500763817255165389e+00
2.500763817255165389e+00
2.500763817255165389e+00
2.477700613422040732e+00
2.477700613422040732e+00
2.477700613422040732e+00
2.466262764366588645e+00
2.466262764366588645e+00
2.466262764366588645e+00
2.449012237922299828e+00
2.449012237922299828e+00
2.449012237922299828e+00
2.451262306588946061e+00
2.451262306588946061e+00
2.451262306588946061e+00
2.455574938200018487e+00
2.455574938200018487e+00
2.455574938200018487e+00
2.455574938200018487e+00
2.468887844477675397e+00
2.468887844477675397e+00
2.468887844477675397e+00
2.474888027588732609e+00
2.474888027588732609e+00
2.474888027588732609e+00
2.487075899533067069e+00
2.487075899533067069e+00
2.487075899533067069e+00
2.487075899533067069e+00
2.513701712088381779e+00
2.513701712088381779e+00
2.513701712088381779e+00
2.547640247810297076e+00
2.547640247810297076e+00
2.547640247810297076e+00
2.552890408032471470e+00
2.552890408032471470e+00
2.552890408032471470e+00
2.552890408032471470e+00
2.548577776421399932e+00
2.548577776421399932e+00
2.548577776421399932e+00
2.530952238532670151e+00
2.530952238532670151e+00
2.530952238532670151e+00
2.496638691366313889e+00
2.496638691366313889e+00
2.496638691366313889e+00
2.496638691366313889e+00
2.458200018311105683e+00
2.458200018311105683e+00
2.458200018311105683e+00
2.423136448255867048e+00
2.423136448255867048e+00
2.423136448255867048e+00
2.423136448255867048e+00
2.414886196478164049e+00
2.414886196478164049e+00
2.414886196478164049e+00
2.415261207922605013e+00
2.415261207922605013e+00
2.415261207922605013e+00
2.437574388866847741e+00
2.437574388866847741e+00
2.437574388866847741e+00
2.437574388866847741e+00
2.434761803033539618e+00
2.434761803033539618e+00
2.434761803033539618e+00
2.439074434644612044e+00
2.439074434644612044e+00
2.439074434644612044e+00
2.488763451033051854e+00
2.488763451033051854e+00
2.488763451033051854e+00
2.488763451033051854e+00
2.526827112643818651e+00
2.526827112643818651e+00
2.526827112643818651e+00
2.553640430921353843e+00
2.553640430921353843e+00
2.553640430921353843e+00
2.553640430921353843e+00
2.548577776421399932e+00
2.548577776421399932e+00
2.548577776421399932e+00
2.549327799310281861e+00
2.549327799310281861e+00
2.549327799310281861e+00
2.526264595477157204e+00
2.526264595477157204e+00
2.526264595477157204e+00
2.526264595477157204e+00
2.497201208532975336e+00
2.497201208532975336e+00
2.497201208532975336e+00
2.492138554033020981e+00
2.492138554033020981e+00
2.492138554033020981e+00
2.492138554033020981e+00
2.473950498977630197e+00
2.473950498977630197e+00
2.473950498977630197e+00
2.474325510422071162e+00
2.474325510422071162e+00
2.474325510422071162e+00
2.471700430310983521e+00
2.471700430310983521e+00
2.471700430310983521e+00
2.471700430310983521e+00
2.472075441755424485e+00
2.472075441755424485e+00
2.472075441755424485e+00
2.435511825922421991e+00
2.435511825922421991e+00
2.435511825922421991e+00
2.435511825922421991e+00
2.377197546311838217e+00
2.377197546311838217e+00
2.377197546311838217e+00
2.412823633533738299e+00
2.412823633533738299e+00
2.412823633533738299e+00
2.525889584032716240e+00
2.525889584032716240e+00
2.525889584032716240e+00
2.525889584032716240e+00
2.535264870143742133e+00
2.535264870143742133e+00
2.535264870143742133e+00
2.528514664143802992e+00
2.528514664143802992e+00
2.528514664143802992e+00
2.528514664143802992e+00
2.530952238532670151e+00
2.530952238532670151e+00
2.530952238532670151e+00
2.524577043977172419e+00
2.524577043977172419e+00
2.524577043977172419e+00
2.494576128421887695e+00
2.494576128421887695e+00
2.494576128421887695e+00
2.494576128421887695e+00
2.463262672811060039e+00
2.463262672811060039e+00
2.463262672811060039e+00
2.431386700033570492e+00
2.431386700033570492e+00
2.431386700033570492e+00
2.431386700033570492e+00
2.434761803033539618e+00
2.434761803033539618e+00
2.434761803033539618e+00
2.445637134922330258e+00
2.445637134922330258e+00
2.445637134922330258e+00
2.445637134922330258e+00
2.464762718588824342e+00
2.464762718588824342e+00
2.464762718588824342e+00
2.483513290810876573e+00
2.483513290810876573e+00
2.483513290810876573e+00
2.458575029755546648e+00
2.458575029755546648e+00
2.458575029755546648e+00
2.458575029755546648e+00
2.487075899533067069e+00
2.487075899533067069e+00
2.487075899533067069e+00
2.536202398754844989e+00
2.536202398754844989e+00
2.536202398754844989e+00
2.552702902310250987e+00
2.552702902310250987e+00
2.552702902310250987e+00
2.552702902310250987e+00
2.557765556810205343e+00
2.557765556810205343e+00
2.557765556810205343e+00
2.534139835810419239e+00
2.534139835810419239e+00
2.534139835810419239e+00
2.489700979644154266e+00
2.489700979644154266e+00
2.489700979644154266e+00
2.489700979644154266e+00
2.460637592699972398e+00
2.460637592699972398e+00
2.460637592699972398e+00
2.427261574144718992e+00
2.427261574144718992e+00
2.427261574144718992e+00
2.427261574144718992e+00
2.417323770867030763e+00
2.417323770867030763e+00
2.417323770867030763e+00
2.435886837366862956e+00
2.435886837366862956e+00
2.435886837366862956e+00
2.478638142033143144e+00
2.478638142033143144e+00
2.478638142033143144e+00
2.478638142033143144e+00
2.519139378032776655e+00
2.519139378032776655e+00
2.519139378032776655e+00
2.501138828699606353e+00
2.501138828699606353e+00
2.501138828699606353e+00
2.501138828699606353e+00
2.457825006866664719e+00
2.457825006866664719e+00
2.457825006866664719e+00
2.472637958922086376e+00
2.472637958922086376e+00
2.472637958922086376e+00
2.472637958922086376e+00
2.524389538254951937e+00
2.524389538254951937e+00
2.524389538254951937e+00
2.534139835810419239e+00
2.534139835810419239e+00
2.534139835810419239e+00
2.539577501754814115e+00
2.539577501754814115e+00
2.539577501754814115e+00
2.539577501754814115e+00
2.502638874477370656e+00
2.502638874477370656e+00
2.502638874477370656e+00
2.491576036866359534e+00
2.491576036866359534e+00
2.491576036866359534e+00
2.491576036866359534e+00
2.507139011810663121e+00
2.507139011810663121e+00
2.507139011810663121e+00
2.482763267921994643e+00
2.482763267921994643e+00
2.482763267921994643e+00
2.445449629200109776e+00
2.445449629200109776e+00
2.445449629200109776e+00
2.445449629200109776e+00
2.453699880977813219e+00
2.453699880977813219e+00
2.453699880977813219e+00
2.465512741477706271e+00
2.465512741477706271e+00
2.465512741477706271e+00
2.465512741477706271e+00
2.476950590533158358e+00
2.476950590533158358e+00
2.476950590533158358e+00
2.478450636310922661e+00
2.478450636310922661e+00
2.478450636310922661e+00
2.510326609088412209e+00
2.510326609088412209e+00
2.510326609088412209e+00
2.510326609088412209e+00
2.531702261421552080e+00
2.531702261421552080e+00
2.531702261421552080e+00
2.542765099032563203e+00
2.542765099032563203e+00
2.542765099032563203e+00
2.542765099032563203e+00
2.528889675588243957e+00
2.528889675588243957e+00
2.528889675588243957e+00
2.541452558977019383e+00
2.541452558977019383e+00
2.541452558977019383e+00
2.541452558977019383e+00
2.503763908810693550e+00
2.503763908810693550e+00
2.503763908810693550e+00
2.435886837366862956e+00
2.435886837366862956e+00
2.435886837366862956e+00
2.415636219367045978e+00
2.415636219367045978e+00
2.415636219367045978e+00
2.415636219367045978e+00
2.428761619922483295e+00
2.428761619922483295e+00
2.428761619922483295e+00
2.441324503311258276e+00
2.441324503311258276e+00
2.441324503311258276e+00
2.441324503311258276e+00
2.455762443922238969e+00
2.455762443922238969e+00
2.455762443922238969e+00
2.475450544755394056e+00
2.475450544755394056e+00
2.475450544755394056e+00
2.470012878810998735e+00
2.470012878810998735e+00
2.470012878810998735e+00
2.470012878810998735e+00
2.461762627033295736e+00
2.461762627033295736e+00
2.461762627033295736e+00
2.487075899533067069e+00
2.487075899533067069e+00
2.487075899533067069e+00
2.487075899533067069e+00
2.535264870143742133e+00
2.535264870143742133e+00
2.535264870143742133e+00
2.527202124088259172e+00
2.527202124088259172e+00
2.527202124088259172e+00
2.527202124088259172e+00
2.520076906643879511e+00
2.520076906643879511e+00
2.520076906643879511e+00
2.486325876644184696e+00
2.486325876644184696e+00
2.486325876644184696e+00
2.454074892422254184e+00
2.454074892422254184e+00
2.454074892422254184e+00
2.454074892422254184e+00
2.447887203588976490e+00
2.447887203588976490e+00
2.447887203588976490e+00
2.466450270088809127e+00
2.466450270088809127e+00
2.466450270088809127e+00
2.466450270088809127e+00
2.479388164922025517e+00
2.479388164922025517e+00
2.479388164922025517e+00
2.492326059755241463e+00
2.492326059755241463e+00
2.492326059755241463e+00
2.479950682088686964e+00
2.479950682088686964e+00
2.479950682088686964e+00
2.479950682088686964e+00
2.474138004699850679e+00
2.474138004699850679e+00
2.474138004699850679e+00
2.464200201422162451e+00
2.464200201422162451e+00
2.464200201422162451e+00
2.464200201422162451e+00
2.454637409588916075e+00
2.454637409588916075e+00
2.454637409588916075e+00
2.509576586199530279e+00
2.509576586199530279e+00
2.509576586199530279e+00
2.539202490310373150e+00
2.539202490310373150e+00
2.539202490310373150e+00
2.539202490310373150e+00
2.503576403088473068e+00
2.503576403088473068e+00
2.503576403088473068e+00
2.515951780755027567e+00
2.515951780755027567e+00
2.515951780755027567e+00
2.515951780755027567e+00
2.548390270699179450e+00
2.548390270699179450e+00
2.548390270699179450e+00
2.523452009643849081e+00
2.523452009643849081e+00
2.523452009643849081e+00
2.469450361644337288e+00
2.469450361644337288e+00
2.469450361644337288e+00
2.469450361644337288e+00
2.478450636310922661e+00
2.478450636310922661e+00
2.478450636310922661e+00
2.462700155644398592e+00
2.462700155644398592e+00
2.462700155644398592e+00
2.462700155644398592e+00
2.450324777977843649e+00
2.450324777977843649e+00
2.450324777977843649e+00
2.459325052644428578e+00
2.459325052644428578e+00
2.459325052644428578e+00
2.437011871700186294e+00
2.437011871700186294e+00
2.437011871700186294e+00
2.437011871700186294e+00
2.426511551255836618e+00
2.426511551255836618e+00
2.426511551255836618e+00
2.431011688589129527e+00
2.431011688589129527e+00
2.431011688589129527e+00
2.431011688589129527e+00
2.493451094088564801e+00
2.493451094088564801e+00
2.493451094088564801e+00
2.524952055421613384e+00
2.524952055421613384e+00
2.524952055421613384e+00
2.542015076143681274e+00
2.542015076143681274e+00
2.542015076143681274e+00
2.542015076143681274e+00
2.535639881588183542e+00
2.535639881588183542e+00
2.535639881588183542e+00
2.542765099032563203e+00
2.542765099032563203e+00
2.542765099032563203e+00
2.542765099032563203e+00
2.523827021088290046e+00
2.523827021088290046e+00
2.523827021088290046e+00
2.509764091921750762e+00
2.509764091921750762e+00
2.509764091921750762e+00
2.466637775811029609e+00
2.466637775811029609e+00
2.466637775811029609e+00
2.466637775811029609e+00
2.478825647755364070e+00
2.478825647755364070e+00
2.478825647755364070e+00
2.481825739310891787e+00
2.481825739310891787e+00
2.481825739310891787e+00
2.481825739310891787e+00
2.440574480422376347e+00
2.440574480422376347e+00
2.440574480422376347e+00
2.429324137089144742e+00
2.429324137089144742e+00
2.429324137089144742e+00
2.434761803033539618e+00
2.434761803033539618e+00
2.434761803033539618e+00
2.434761803033539618e+00
2.478825647755364070e+00
2.478825647755364070e+00
2.478825647755364070e+00
2.488388439588610446e+00
2.488388439588610446e+00
2.488388439588610446e+00
2.490263496810816157e+00
2.490263496810816157e+00
2.490263496810816157e+00
2.490263496810816157e+00
2.502076357310709209e+00
2.502076357310709209e+00
2.502076357310709209e+00
2.527577135532700581e+00
2.527577135532700581e+00
2.527577135532700581e+00
2.527577135532700581e+00
2.518764366588335690e+00
2.518764366588335690e+00
2.518764366588335690e+00
2.493638599810785283e+00
2.493638599810785283e+00
2.493638599810785283e+00
2.459700064088869986e+00
2.459700064088869986e+00
2.459700064088869986e+00
2.459700064088869986e+00
2.456887478255561863e+00
2.456887478255561863e+00
2.456887478255561863e+00
2.462512649922177665e+00
2.462512649922177665e+00
2.462512649922177665e+00
2.462512649922177665e+00
2.485575853755302767e+00
2.485575853755302767e+00
2.485575853755302767e+00
2.497576219977416301e+00
2.497576219977416301e+00
2.497576219977416301e+00
2.491201025421918569e+00
2.491201025421918569e+00
2.491201025421918569e+00
2.491201025421918569e+00
2.488388439588610446e+00
2.488388439588610446e+00
2.488388439588610446e+00
2.556078005310220558e+00
2.556078005310220558e+00
2.556078005310220558e+00
2.556078005310220558e+00
2.573516037476729856e+00
2.573516037476729856e+00
2.573516037476729856e+00
2.558140568254646752e+00
2.558140568254646752e+00
2.558140568254646752e+00
2.558140568254646752e+00
2.566015808587908342e+00
2.566015808587908342e+00
2.566015808587908342e+00
2.511639149143956029e+00
2.511639149143956029e+00
2.511639149143956029e+00
2.443012054811243061e+00
2.443012054811243061e+00
2.443012054811243061e+00
2.443012054811243061e+00
2.448824732200079346e+00
2.448824732200079346e+00
2.448824732200079346e+00
2.459512558366649504e+00
2.459512558366649504e+00
2.459512558366649504e+00
2.459512558366649504e+00
2.437386883144627259e+00
2.437386883144627259e+00
2.437386883144627259e+00
2.469075350199895880e+00
2.469075350199895880e+00
2.469075350199895880e+00
2.499263771477401086e+00
2.499263771477401086e+00
2.499263771477401086e+00
2.499263771477401086e+00
2.479763176366466482e+00
2.479763176366466482e+00
2.479763176366466482e+00
2.469262855922116806e+00
2.469262855922116806e+00
2.469262855922116806e+00
2.469262855922116806e+00
2.494576128421887695e+00
2.494576128421887695e+00
2.494576128421887695e+00
2.483325785088656090e+00
2.483325785088656090e+00
2.483325785088656090e+00
2.429136631366924259e+00
2.429136631366924259e+00
2.429136631366924259e+00
2.429136631366924259e+00
2.470762901699881109e+00
2.470762901699881109e+00
2.470762901699881109e+00
2.521014435254982367e+00
2.521014435254982367e+00
2.521014435254982367e+00
2.521014435254982367e+00
2.546702719199194664e+00
2.546702719199194664e+00
2.546702719199194664e+00
2.540327524643696488e+00
2.540327524643696488e+00
2.540327524643696488e+00
2.514076723532822744e+00
2.514076723532822744e+00
2.514076723532822744e+00
2.514076723532822744e+00
2.497201208532975336e+00
2.497201208532975336e+00
2.497201208532975336e+00
2.459325052644428578e+00
2.459325052644428578e+00
2.459325052644428578e+00
2.459325052644428578e+00
2.435324320200201509e+00
2.435324320200201509e+00
2.435324320200201509e+00
2.470762901699881109e+00
2.470762901699881109e+00
2.470762901699881109e+00
2.504888943144016888e+00
2.504888943144016888e+00
2.504888943144016888e+00
2.504888943144016888e+00
2.511264137699515064e+00
2.511264137699515064e+00
2.511264137699515064e+00
2.507326517532883603e+00
2.507326517532883603e+00
2.507326517532883603e+00
2.507326517532883603e+00
2.535264870143742133e+00
2.535264870143742133e+00
2.535264870143742133e+00
2.522326975310525743e+00
2.522326975310525743e+00
2.522326975310525743e+00
2.525514572588274831e+00
2.525514572588274831e+00
2.525514572588274831e+00
2.525514572588274831e+00
2.533577318643757348e+00
2.533577318643757348e+00
2.533577318643757348e+00
2.500576311532944906e+00
2.500576311532944906e+00
2.500576311532944906e+00
2.500576311532944906e+00
2.444887112033448329e+00
2.444887112033448329e+00
2.444887112033448329e+00
2.413198644978179264e+00
2.413198644978179264e+00
2.413198644978179264e+00
2.454824915311136557e+00
2.454824915311136557e+00
2.454824915311136557e+00
2.454824915311136557e+00
2.490075991088595231e+00
2.490075991088595231e+00
2.490075991088595231e+00
2.501326334421826836e+00
2.501326334421826836e+00
2.501326334421826836e+00
2.501326334421826836e+00
2.487638416699728516e+00
2.487638416699728516e+00
2.487638416699728516e+00
2.466075258644368162e+00
2.466075258644368162e+00
2.466075258644368162e+00
2.443199560533463544e+00
2.443199560533463544e+00
2.443199560533463544e+00
2.443199560533463544e+00
2.443574571977904952e+00
2.443574571977904952e+00
2.443574571977904952e+00
2.497388714255195818e+00
2.497388714255195818e+00
2.497388714255195818e+00
2.497388714255195818e+00
2.503201391644032547e+00
2.503201391644032547e+00
2.503201391644032547e+00
2.563203222754600663e+00
2.563203222754600663e+00
2.563203222754600663e+00
2.563203222754600663e+00
2.579328714865566141e+00
2.579328714865566141e+00
2.579328714865566141e+00
2.567515854365672645e+00
2.567515854365672645e+00
2.567515854365672645e+00
2.532827295754875419e+00
2.532827295754875419e+00
2.532827295754875419e+00
2.532827295754875419e+00
2.484075807977538464e+00
2.484075807977538464e+00
2.484075807977538464e+00
2.406823450422681532e+00
2.406823450422681532e+00
2.406823450422681532e+00
2.406823450422681532e+00
2.420698873867000778e+00
2.420698873867000778e+00
2.420698873867000778e+00
2.439261940366832526e+00
2.439261940366832526e+00
2.439261940366832526e+00
2.451262306588946061e+00
2.451262306588946061e+00
2.451262306588946061e+00
2.451262306588946061e+00
2.443199560533463544e+00
2.443199560533463544e+00
2.443199560533463544e+00
2.426511551255836618e+00
2.426511551255836618e+00
2.426511551255836618e+00
2.426511551255836618e+00
2.509201574755088870e+00
2.509201574755088870e+00
2.509201574755088870e+00
2.570328440198980768e+00
2.570328440198980768e+00
2.570328440198980768e+00
2.559265602587969646e+00
2.559265602587969646e+00
2.559265602587969646e+00
2.559265602587969646e+00
2.599016815698721228e+00
2.599016815698721228e+00
2.599016815698721228e+00
2.569578417310098839e+00
2.569578417310098839e+00
2.569578417310098839e+00
2.569578417310098839e+00
2.512389172032837958e+00
2.512389172032837958e+00
2.512389172032837958e+00
2.562453199865718290e+00
2.562453199865718290e+00
2.562453199865718290e+00
2.538452467421491221e+00
2.538452467421491221e+00
2.538452467421491221e+00
2.538452467421491221e+00
2.437199377422406776e+00
2.437199377422406776e+00
2.437199377422406776e+00
2.403073335978270997e+00
2.403073335978270997e+00
2.403073335978270997e+00
2.403073335978270997e+00
2.385072786645100695e+00
2.385072786645100695e+00
2.385072786645100695e+00
2.383572740867336393e+00
2.383572740867336393e+00
2.383572740867336393e+00
2.422011413922543710e+00
2.422011413922543710e+00
2.422011413922543710e+00
2.422011413922543710e+00
2.471700430310983521e+00
2.471700430310983521e+00
2.471700430310983521e+00
2.508264046143986459e+00
2.508264046143986459e+00
2.508264046143986459e+00
2.508264046143986459e+00
2.492513565477461945e+00
2.492513565477461945e+00
2.492513565477461945e+00
2.546327707754753256e+00
2.546327707754753256e+00
2.546327707754753256e+00
2.588516495254371552e+00
2.588516495254371552e+00
2.588516495254371552e+00
2.588516495254371552e+00
2.569578417310098839e+00
2.569578417310098839e+00
2.569578417310098839e+00
2.568453382976775501e+00
2.568453382976775501e+00
2.568453382976775501e+00
2.528702169866023475e+00
2.528702169866023475e+00
2.528702169866023475e+00
2.528702169866023475e+00
2.470387890255439700e+00
2.470387890255439700e+00
2.470387890255439700e+00
2.431761711478011456e+00
2.431761711478011456e+00
2.431761711478011456e+00
2.431761711478011456e+00
2.408135990478225352e+00
2.408135990478225352e+00
2.408135990478225352e+00
2.401948301644947659e+00
2.401948301644947659e+00
2.401948301644947659e+00
2.401948301644947659e+00
2.446012146366771223e+00
2.446012146366771223e+00
2.446012146366771223e+00
2.405323404644917229e+00
2.405323404644917229e+00
2.405323404644917229e+00
2.423698965422528495e+00
2.423698965422528495e+00
2.423698965422528495e+00
2.423698965422528495e+00
2.520076906643879511e+00
2.520076906643879511e+00
2.520076906643879511e+00
2.559265602587969646e+00
2.559265602587969646e+00
2.559265602587969646e+00
2.559265602587969646e+00
2.545577684865871326e+00
2.545577684865871326e+00
2.545577684865871326e+00
2.563015717032380181e+00
2.563015717032380181e+00
2.563015717032380181e+00
2.542015076143681274e+00
2.542015076143681274e+00
2.542015076143681274e+00
2.542015076143681274e+00
2.533202307199316383e+00
2.533202307199316383e+00
2.533202307199316383e+00
2.517826837977233279e+00
2.517826837977233279e+00
2.517826837977233279e+00
2.517826837977233279e+00
2.523827021088290046e+00
2.523827021088290046e+00
2.523827021088290046e+00
2.518576860866115208e+00
2.518576860866115208e+00
2.518576860866115208e+00
2.483513290810876573e+00
2.483513290810876573e+00
2.483513290810876573e+00
2.483513290810876573e+00
2.430449171422468080e+00
2.430449171422468080e+00
2.430449171422468080e+00
2.388072878200628413e+00
2.388072878200628413e+00
2.388072878200628413e+00
2.388072878200628413e+00
2.379447614978484449e+00
2.379447614978484449e+00
2.379447614978484449e+00
2.468512833033234433e+00
2.468512833033234433e+00
2.468512833033234433e+00
2.519701895199438546e+00
2.519701895199438546e+00
2.519701895199438546e+00
2.519701895199438546e+00
2.503576403088473068e+00
2.503576403088473068e+00
2.503576403088473068e+00
2.528702169866023475e+00
2.528702169866023475e+00
2.528702169866023475e+00
2.528702169866023475e+00
2.535827387310404024e+00
2.535827387310404024e+00
2.535827387310404024e+00
2.542015076143681274e+00
2.542015076143681274e+00
2.542015076143681274e+00
2.511264137699515064e+00
2.511264137699515064e+00
2.511264137699515064e+00
2.511264137699515064e+00
2.484450819421979428e+00
2.484450819421979428e+00
2.484450819421979428e+00
2.467012787255470574e+00
2.467012787255470574e+00
2.467012787255470574e+00
2.467012787255470574e+00
2.455199926755577522e+00
2.455199926755577522e+00
2.455199926755577522e+00
2.428574114200262368e+00
2.428574114200262368e+00
2.428574114200262368e+00
2.464200201422162451e+00
2.464200201422162451e+00
2.464200201422162451e+00
2.464200201422162451e+00
2.481263222144230340e+00
2.481263222144230340e+00
2.481263222144230340e+00
2.513514206366161297e+00
2.513514206366161297e+00
2.513514206366161297e+00
2.513514206366161297e+00
2.520264412366099993e+00
2.520264412366099993e+00
2.520264412366099993e+00
2.531514755699331598e+00
2.531514755699331598e+00
2.531514755699331598e+00
2.520826929532761884e+00
2.520826929532761884e+00
2.520826929532761884e+00
2.520826929532761884e+00
2.544452650532547988e+00
2.544452650532547988e+00
2.544452650532547988e+00
2.523827021088290046e+00
2.523827021088290046e+00
2.523827021088290046e+00
2.523827021088290046e+00
2.517076815088350905e+00
2.517076815088350905e+00
2.517076815088350905e+00
2.549702810754722826e+00
2.549702810754722826e+00
2.549702810754722826e+00
2.533389812921536866e+00
2.533389812921536866e+00
2.533389812921536866e+00
2.533389812921536866e+00
2.469075350199895880e+00
2.469075350199895880e+00
2.469075350199895880e+00
2.374947477645191540e+00
2.374947477645191540e+00
2.374947477645191540e+00
2.374947477645191540e+00
2.402885830256050514e+00
2.402885830256050514e+00
2.402885830256050514e+00
2.504888943144016888e+00
2.504888943144016888e+00
2.504888943144016888e+00
2.504888943144016888e+00
2.508264046143986459e+00
2.508264046143986459e+00
2.508264046143986459e+00
2.499263771477401086e+00
2.499263771477401086e+00
2.499263771477401086e+00
2.556078005310220558e+00
2.556078005310220558e+00
2.556078005310220558e+00
2.556078005310220558e+00
2.572953520310068409e+00
2.572953520310068409e+00
2.572953520310068409e+00
2.495701162755211033e+00
2.495701162755211033e+00
2.495701162755211033e+00
2.495701162755211033e+00
2.351509262367625919e+00
2.351509262367625919e+00
2.351509262367625919e+00
2.429886654255806189e+00
2.429886654255806189e+00
2.429886654255806189e+00
2.443012054811243061e+00
2.443012054811243061e+00
2.443012054811243061e+00
2.443012054811243061e+00
2.460075075533310951e+00
2.460075075533310951e+00
2.460075075533310951e+00
2.481825739310891787e+00
2.481825739310891787e+00
2.481825739310891787e+00
2.481825739310891787e+00
2.508264046143986459e+00
2.508264046143986459e+00
2.508264046143986459e+00
2.508264046143986459e+00
2.508264046143986459e+00
2.508264046143986459e+00
2.509951597643971244e+00
2.509951597643971244e+00
2.509951597643971244e+00
2.509951597643971244e+00
2.390322946867275089e+00
2.390322946867275089e+00
2.390322946867275089e+00
2.389197912533951751e+00
2.389197912533951751e+00
2.389197912533951751e+00
2.389197912533951751e+00
2.494388622699667213e+00
2.494388622699667213e+00
2.494388622699667213e+00
2.538827478865932186e+00
2.538827478865932186e+00
2.538827478865932186e+00
2.561703176976836804e+00
2.561703176976836804e+00
2.561703176976836804e+00
2.561703176976836804e+00
2.568828394421216466e+00
2.568828394421216466e+00
2.568828394421216466e+00
2.548765282143620414e+00
2.548765282143620414e+00
2.548765282143620414e+00
2.548765282143620414e+00
2.541077547532578418e+00
2.541077547532578418e+00
2.541077547532578418e+00
2.506576494644001674e+00
2.506576494644001674e+00
2.506576494644001674e+00
2.523264503921628599e+00
2.523264503921628599e+00
2.523264503921628599e+00
2.523264503921628599e+00
2.502826380199591139e+00
2.502826380199591139e+00
2.502826380199591139e+00
2.454449903866695148e+00
2.454449903866695148e+00
2.454449903866695148e+00
2.454449903866695148e+00
2.448637226477858864e+00
2.448637226477858864e+00
2.448637226477858864e+00
2.473762993255409270e+00
2.473762993255409270e+00
2.473762993255409270e+00
2.473762993255409270e+00
2.443762077700125435e+00
2.443762077700125435e+00
2.443762077700125435e+00
2.394448072756126589e+00
2.394448072756126589e+00
2.394448072756126589e+00
2.423136448255867048e+00
2.423136448255867048e+00
2.423136448255867048e+00
2.423136448255867048e+00
2.455387432477798004e+00
2.455387432477798004e+00
2.455387432477798004e+00
2.480325693533127485e+00
2.480325693533127485e+00
2.480325693533127485e+00
2.530014709921567295e+00
2.530014709921567295e+00
2.530014709921567295e+00
2.530014709921567295e+00
2.574078554643390859e+00
2.574078554643390859e+00
2.574078554643390859e+00
2.552140385143589540e+00
2.552140385143589540e+00
2.552140385143589540e+00
2.525327066866054349e+00
2.525327066866054349e+00
2.525327066866054349e+00
2.525327066866054349e+00
2.504888943144016888e+00
2.504888943144016888e+00
2.504888943144016888e+00
2.462700155644398592e+00
2.462700155644398592e+00
2.462700155644398592e+00
2.462700155644398592e+00
2.488013428144169481e+00
2.488013428144169481e+00
2.488013428144169481e+00
2.463262672811060039e+00
2.463262672811060039e+00
2.463262672811060039e+00
2.414136173589282119e+00
2.414136173589282119e+00
2.414136173589282119e+00
2.414136173589282119e+00
2.392010498367259874e+00
2.392010498367259874e+00
2.392010498367259874e+00
2.435699331644642474e+00
2.435699331644642474e+00
2.435699331644642474e+00
2.435699331644642474e+00
2.534514847254860204e+00
2.534514847254860204e+00
2.534514847254860204e+00
2.541452558977019383e+00
2.541452558977019383e+00
2.541452558977019383e+00
2.580266243476668553e+00
2.580266243476668553e+00
2.580266243476668553e+00
2.580266243476668553e+00
2.584953886532181944e+00
2.584953886532181944e+00
2.584953886532181944e+00
2.549515305032502344e+00
2.549515305032502344e+00
2.549515305032502344e+00
2.549515305032502344e+00
2.461012604144413807e+00
2.461012604144413807e+00
2.461012604144413807e+00
2.404948393200476264e+00
2.404948393200476264e+00
2.404948393200476264e+00
2.404948393200476264e+00
2.416198736533707869e+00
2.416198736533707869e+00
2.416198736533707869e+00
2.471512924588763038e+00
2.471512924588763038e+00
2.471512924588763038e+00
2.453137363811151772e+00
2.453137363811151772e+00
2.453137363811151772e+00
2.453137363811151772e+00
2.412636127811517817e+00
2.412636127811517817e+00
2.412636127811517817e+00
2.421448896755882263e+00
2.421448896755882263e+00
2.421448896755882263e+00
2.421448896755882263e+00
2.445824640644550740e+00
2.445824640644550740e+00
2.445824640644550740e+00
2.513326700643940814e+00
2.513326700643940814e+00
2.513326700643940814e+00
2.540890041810357936e+00
2.540890041810357936e+00
2.540890041810357936e+00
2.540890041810357936e+00
2.525889584032716240e+00
2.525889584032716240e+00
2.525889584032716240e+00
2.499826288644062977e+00
2.499826288644062977e+00
2.499826288644062977e+00
2.499826288644062977e+00
2.530202215643787778e+00
2.530202215643787778e+00
2.530202215643787778e+00
2.575766106143375644e+00
2.575766106143375644e+00
2.575766106143375644e+00
2.597891781365397890e+00
2.597891781365397890e+00
2.597891781365397890e+00
2.597891781365397890e+00
2.545202673421430362e+00
2.545202673421430362e+00
2.545202673421430362e+00
2.509764091921750762e+00
2.509764091921750762e+00
2.509764091921750762e+00
2.509764091921750762e+00
2.448074709311197417e+00
2.448074709311197417e+00
2.448074709311197417e+00
2.371009857478560967e+00
2.371009857478560967e+00
2.371009857478560967e+00
2.371009857478560967e+00
2.280069582201605716e+00
2.280069582201605716e+00
2.280069582201605716e+00
2.366509720145268059e+00
2.366509720145268059e+00
2.366509720145268059e+00
2.490075991088595231e+00
2.490075991088595231e+00
2.490075991088595231e+00
2.490075991088595231e+00
2.513326700643940814e+00
2.513326700643940814e+00
2.513326700643940814e+00
2.570703451643421733e+00
2.570703451643421733e+00
2.570703451643421733e+00
2.551015350810266202e+00
2.551015350810266202e+00
2.551015350810266202e+00
2.551015350810266202e+00
2.533764824365978274e+00
2.533764824365978274e+00
2.533764824365978274e+00
2.487638416699728516e+00
2.487638416699728516e+00
2.487638416699728516e+00
2.487638416699728516e+00
2.467200292977691056e+00
2.467200292977691056e+00
2.467200292977691056e+00
2.474513016144291644e+00
2.474513016144291644e+00
2.474513016144291644e+00
2.500763817255165389e+00
2.500763817255165389e+00
2.500763817255165389e+00
2.500763817255165389e+00
2.493638599810785283e+00
2.493638599810785283e+00
2.493638599810785283e+00
2.395010589922788480e+00
2.395010589922788480e+00
2.395010589922788480e+00
2.395010589922788480e+00
2.413761162144840711e+00
2.413761162144840711e+00
2.413761162144840711e+00
2.485763359477523249e+00
2.485763359477523249e+00
2.485763359477523249e+00
2.494201116977446731e+00
2.494201116977446731e+00
2.494201116977446731e+00
2.494201116977446731e+00
2.433824274422437206e+00
2.433824274422437206e+00
2.433824274422437206e+00
2.495326151310770069e+00
2.495326151310770069e+00
2.495326151310770069e+00
2.495326151310770069e+00
2.517639332255012796e+00
2.517639332255012796e+00
2.517639332255012796e+00
2.398385692922757606e+00
2.398385692922757606e+00
2.398385692922757606e+00
2.474700521866512126e+00
2.474700521866512126e+00
2.474700521866512126e+00
2.474700521866512126e+00
2.534514847254860204e+00
2.534514847254860204e+00
2.534514847254860204e+00
2.521389446699423331e+00
2.521389446699423331e+00
2.521389446699423331e+00
2.521389446699423331e+00
2.520639423810540958e+00
2.520639423810540958e+00
2.520639423810540958e+00
2.527389629810480098e+00
2.527389629810480098e+00
2.527389629810480098e+00
2.471137913144322074e+00
2.471137913144322074e+00
2.471137913144322074e+00
2.471137913144322074e+00
2.412073610644855925e+00
2.412073610644855925e+00
2.412073610644855925e+00
2.460075075533310951e+00
2.460075075533310951e+00
2.460075075533310951e+00
2.460075075533310951e+00
2.555702993865779593e+00
2.555702993865779593e+00
2.555702993865779593e+00
2.536202398754844989e+00
2.536202398754844989e+00
2.536202398754844989e+00
2.508639057588427423e+00
2.508639057588427423e+00
2.508639057588427423e+00
2.508639057588427423e+00
2.512389172032837958e+00
2.512389172032837958e+00
2.512389172032837958e+00
2.513514206366161297e+00
2.513514206366161297e+00
2.513514206366161297e+00
2.513514206366161297e+00
2.509576586199530279e+00
2.509576586199530279e+00
2.509576586199530279e+00
2.550452833643604755e+00
2.550452833643604755e+00
2.550452833643604755e+00
2.524764549699392902e+00
2.524764549699392902e+00
2.524764549699392902e+00
2.524764549699392902e+00
2.422573931089205601e+00
2.422573931089205601e+00
2.422573931089205601e+00
2.482763267921994643e+00
2.482763267921994643e+00
2.482763267921994643e+00
2.482763267921994643e+00
2.502451368755150174e+00
2.502451368755150174e+00
2.502451368755150174e+00
2.481450727866450823e+00
2.481450727866450823e+00
2.481450727866450823e+00
2.425386516922513280e+00
2.425386516922513280e+00
2.425386516922513280e+00
2.425386516922513280e+00
2.420136356700338887e+00
2.420136356700338887e+00
2.420136356700338887e+00
2.484825830866420393e+00
2.484825830866420393e+00
2.484825830866420393e+00
2.484825830866420393e+00
2.432136722922452865e+00
2.432136722922452865e+00
2.432136722922452865e+00
2.460450086977751916e+00
2.460450086977751916e+00
2.460450086977751916e+00
2.460450086977751916e+00
2.566203314310129269e+00
2.566203314310129269e+00
2.566203314310129269e+00
2.549890316476943308e+00
2.549890316476943308e+00
2.549890316476943308e+00
2.602391918698690798e+00
2.602391918698690798e+00
2.602391918698690798e+00
2.602391918698690798e+00
2.601079378643146978e+00
2.601079378643146978e+00
2.601079378643146978e+00
2.487825922421948999e+00
2.487825922421948999e+00
2.487825922421948999e+00
2.398385692922757606e+00
2.398385692922757606e+00
2.398385692922757606e+00
2.398385692922757606e+00
2.412636127811517817e+00
2.412636127811517817e+00
2.412636127811517817e+00
2.454074892422254184e+00
2.454074892422254184e+00
2.454074892422254184e+00
2.454074892422254184e+00
2.391635486922818910e+00
2.391635486922818910e+00
2.391635486922818910e+00
2.306507889034699499e+00
2.306507889034699499e+00
2.306507889034699499e+00
2.365759697256386129e+00
2.365759697256386129e+00
2.365759697256386129e+00
2.365759697256386129e+00
2.456512466811120898e+00
2.456512466811120898e+00
2.456512466811120898e+00
2.535452375865963059e+00
2.535452375865963059e+00
2.535452375865963059e+00
2.535452375865963059e+00
2.595829218420972584e+00
2.595829218420972584e+00
2.595829218420972584e+00
2.599954344309823639e+00
2.599954344309823639e+00
2.599954344309823639e+00
2.600516861476485531e+00
2.600516861476485531e+00
2.600516861476485531e+00
2.600516861476485531e+00
2.629580248420667399e+00
2.629580248420667399e+00
2.629580248420667399e+00
2.533952330088198757e+00
2.533952330088198757e+00
2.533952330088198757e+00
2.533952330088198757e+00
2.521389446699423331e+00
2.521389446699423331e+00
2.521389446699423331e+00
2.569765923032319321e+00
2.569765923032319321e+00
2.569765923032319321e+00
2.402885830256050514e+00
2.402885830256050514e+00
2.402885830256050514e+00
2.402885830256050514e+00
2.409636036255989211e+00
2.409636036255989211e+00
2.409636036255989211e+00
2.416573747978148834e+00
2.416573747978148834e+00
2.416573747978148834e+00
2.416573747978148834e+00
2.277256996368297592e+00
2.277256996368297592e+00
2.277256996368297592e+00
2.323945921201208797e+00
2.323945921201208797e+00
2.323945921201208797e+00
2.375509994811853431e+00
2.375509994811853431e+00
2.375509994811853431e+00
2.375509994811853431e+00
2.470200384533219218e+00
2.470200384533219218e+00
2.470200384533219218e+00
2.559078096865749163e+00
2.559078096865749163e+00
2.559078096865749163e+00
2.559078096865749163e+00
2.542202581865901756e+00
2.542202581865901756e+00
2.542202581865901756e+00
2.554202948088015290e+00
2.554202948088015290e+00
2.554202948088015290e+00
2.554202948088015290e+00
2.596391735587634031e+00
2.596391735587634031e+00
2.596391735587634031e+00
2.626205145420697828e+00
2.626205145420697828e+00
2.626205145420697828e+00
2.632392834253975078e+00
2.632392834253975078e+00
2.632392834253975078e+00
2.632392834253975078e+00
2.587953978087710105e+00
2.587953978087710105e+00
2.587953978087710105e+00
2.558890591143528681e+00
2.558890591143528681e+00
2.558890591143528681e+00
2.558890591143528681e+00
2.577828669087801838e+00
2.577828669087801838e+00
2.577828669087801838e+00
2.409823541978209693e+00
2.409823541978209693e+00
2.409823541978209693e+00
2.410011047700430176e+00
2.410011047700430176e+00
2.410011047700430176e+00
2.410011047700430176e+00
2.380572649311807787e+00
2.380572649311807787e+00
2.380572649311807787e+00
2.329758598590044638e+00
2.329758598590044638e+00
2.329758598590044638e+00
2.329758598590044638e+00
2.461387615588854771e+00
2.461387615588854771e+00
2.461387615588854771e+00
2.374197454756310055e+00
2.374197454756310055e+00
2.374197454756310055e+00
2.325070955534531691e+00
2.325070955534531691e+00
2.325070955534531691e+00
2.325070955534531691e+00
2.414323679311502602e+00
2.414323679311502602e+00
2.414323679311502602e+00
2.553077913754691952e+00
2.553077913754691952e+00
2.553077913754691952e+00
2.553077913754691952e+00
2.625830133976256420e+00
2.625830133976256420e+00
2.625830133976256420e+00
2.621892513809625402e+00
2.621892513809625402e+00
2.621892513809625402e+00
2.621892513809625402e+00
2.598079287087618372e+00
2.598079287087618372e+00
2.598079287087618372e+00
2.506764000366222156e+00
2.506764000366222156e+00
2.506764000366222156e+00
2.451824823755607952e+00
2.451824823755607952e+00
2.451824823755607952e+00
2.451824823755607952e+00
2.493263588366343875e+00
2.493263588366343875e+00
2.493263588366343875e+00
2.508639057588427423e+00
2.508639057588427423e+00
2.508639057588427423e+00
2.508639057588427423e+00
2.418448805200354101e+00
2.418448805200354101e+00
2.418448805200354101e+00
2.404198370311593891e+00
2.404198370311593891e+00
2.404198370311593891e+00
2.487825922421948999e+00
2.487825922421948999e+00
2.487825922421948999e+00
2.487825922421948999e+00
2.502076357310709209e+00
2.502076357310709209e+00
2.502076357310709209e+00
2.522889492477187634e+00
2.522889492477187634e+00
2.522889492477187634e+00
2.522889492477187634e+00
2.552140385143589540e+00
2.552140385143589540e+00
2.552140385143589540e+00
2.600516861476485531e+00
2.600516861476485531e+00
2.600516861476485531e+00
2.539202490310373150e+00
2.539202490310373150e+00
2.539202490310373150e+00
2.539202490310373150e+00
2.419573839533677440e+00
2.419573839533677440e+00
2.419573839533677440e+00
2.300882717368083696e+00
2.300882717368083696e+00
2.300882717368083696e+00
2.300882717368083696e+00
2.367447248756370914e+00
2.367447248756370914e+00
2.367447248756370914e+00
2.414698690755943566e+00
2.414698690755943566e+00
2.414698690755943566e+00
2.437011871700186294e+00
2.437011871700186294e+00
2.437011871700186294e+00
2.437011871700186294e+00
2.591891598254341122e+00
2.591891598254341122e+00
2.591891598254341122e+00
2.547640247810297076e+00
2.547640247810297076e+00
2.547640247810297076e+00
2.547640247810297076e+00
2.469637867366557771e+00
2.469637867366557771e+00
2.469637867366557771e+00
2.536202398754844989e+00
2.536202398754844989e+00
2.536202398754844989e+00
2.536202398754844989e+00
2.566578325754570233e+00
2.566578325754570233e+00
2.566578325754570233e+00
2.590391552476577264e+00
2.590391552476577264e+00
2.590391552476577264e+00
2.622080019531845885e+00
2.622080019531845885e+00
2.622080019531845885e+00
2.622080019531845885e+00
2.513139194921720332e+00
2.513139194921720332e+00
2.513139194921720332e+00
2.389010406811731269e+00
2.389010406811731269e+00
2.389010406811731269e+00
2.389010406811731269e+00
2.403635853144932444e+00
2.403635853144932444e+00
2.403635853144932444e+00
2.395198095645008962e+00
2.395198095645008962e+00
2.395198095645008962e+00
2.487075899533067069e+00
2.487075899533067069e+00
2.487075899533067069e+00
2.487075899533067069e+00
2.566578325754570233e+00
2.566578325754570233e+00
2.566578325754570233e+00
2.604641987365337030e+00
2.604641987365337030e+00
2.604641987365337030e+00
2.604641987365337030e+00
2.483325785088656090e+00
2.483325785088656090e+00
2.483325785088656090e+00
2.382447706534013054e+00
2.382447706534013054e+00
2.382447706534013054e+00
2.379447614978484449e+00
2.379447614978484449e+00
2.379447614978484449e+00
2.379447614978484449e+00
2.414136173589282119e+00
2.414136173589282119e+00
2.414136173589282119e+00
2.395760612811670409e+00
2.395760612811670409e+00
2.395760612811670409e+00
2.489700979644154266e+00
2.489700979644154266e+00
2.612517227698599065e+00
2.612517227698599065e+00
2.612517227698599065e+00
2.612517227698599065e+00
2.533952330088198757e+00
2.533952330088198757e+00
2.533952330088198757e+00
2.469262855922116806e+00
2.469262855922116806e+00
2.469262855922116806e+00
2.466450270088809127e+00
2.466450270088809127e+00
2.466450270088809127e+00
2.466450270088809127e+00
2.548015259254738041e+00
2.548015259254738041e+00
2.548015259254738041e+00
2.551952879421369058e+00
2.551952879421369058e+00
2.551952879421369058e+00
2.551952879421369058e+00
2.569953428754539804e+00
2.569953428754539804e+00
2.569953428754539804e+00
2.548202764976958523e+00
2.548202764976958523e+00
2.548202764976958523e+00
2.583828852198858606e+00
2.583828852198858606e+00
2.583828852198858606e+00
2.583828852198858606e+00
2.524202032532731454e+00
2.524202032532731454e+00
2.524202032532731454e+00
2.435699331644642474e+00
2.435699331644642474e+00
2.435699331644642474e+00
2.435699331644642474e+00
2.300882717368083696e+00
2.300882717368083696e+00
2.300882717368083696e+00
2.308570451979125249e+00
2.308570451979125249e+00
2.308570451979125249e+00
2.458387524033326166e+00
2.458387524033326166e+00
2.458387524033326166e+00
2.458387524033326166e+00
2.601454390087587942e+00
2.601454390087587942e+00
2.601454390087587942e+00
2.581016266365550926e+00
2.581016266365550926e+00
2.581016266365550926e+00
2.581016266365550926e+00
2.503201391644032547e+00
2.503201391644032547e+00
2.503201391644032547e+00
2.464387707144383377e+00
2.464387707144383377e+00
2.464387707144383377e+00
2.464387707144383377e+00
2.459325052644428578e+00
2.459325052644428578e+00
2.459325052644428578e+00
2.407010956144902014e+00
2.407010956144902014e+00
2.407010956144902014e+00
2.396885647144993747e+00
2.396885647144993747e+00
2.396885647144993747e+00
2.396885647144993747e+00
2.484075807977538464e+00
2.484075807977538464e+00
2.484075807977538464e+00
2.508451551866206941e+00
2.508451551866206941e+00
2.508451551866206941e+00
2.508451551866206941e+00
2.487263405255287552e+00
2.487263405255287552e+00
2.487263405255287552e+00
2.589641529587694890e+00
2.589641529587694890e+00
2.589641529587694890e+00
2.457637501144443792e+00
2.457637501144443792e+00
2.457637501144443792e+00
2.457637501144443792e+00
2.468137821588793912e+00
2.468137821588793912e+00
2.468137821588793912e+00
2.536014893032624506e+00
2.536014893032624506e+00
2.536014893032624506e+00
2.536014893032624506e+00
2.542390087588122238e+00
2.542390087588122238e+00
2.542390087588122238e+00
2.557203039643543896e+00
2.557203039643543896e+00
2.557203039643543896e+00
2.557203039643543896e+00
2.588328989532151070e+00
2.588328989532151070e+00
2.588328989532151070e+00
2.585703909421063873e+00
2.585703909421063873e+00
2.585703909421063873e+00
2.555140476699118146e+00
2.555140476699118146e+00
2.555140476699118146e+00
2.555140476699118146e+00
2.427636585589159957e+00
2.427636585589159957e+00
2.281194616534928166e+00
2.281194616534928166e+00
2.281194616534928166e+00
2.284382213812677254e+00
2.284382213812677254e+00
2.284382213812677254e+00
2.284382213812677254e+00
2.266194158757286470e+00
2.266194158757286470e+00
2.266194158757286470e+00
2.222505325479903426e+00
2.222505325479903426e+00
2.222505325479903426e+00
2.440199468977935382e+00
2.440199468977935382e+00
2.440199468977935382e+00
2.440199468977935382e+00
2.601641895809808869e+00
2.601641895809808869e+00
2.601641895809808869e+00
2.838649128696554502e+00
2.838649128696554502e+00
2.838649128696554502e+00
2.884588030640583778e+00
2.884588030640583778e+00
2.884588030640583778e+00
2.884588030640583778e+00
2.685831965086825424e+00
2.685831965086825424e+00
2.685831965086825424e+00
2.576141117587817053e+00
2.576141117587817053e+00
2.576141117587817053e+00
2.576141117587817053e+00
2.532264778588213971e+00
2.532264778588213971e+00
2.532264778588213971e+00
2.355634388256477418e+00
2.355634388256477418e+00
2.355634388256477418e+00
2.404010864589373409e+00
2.404010864589373409e+00
2.404010864589373409e+00
2.404010864589373409e+00
2.352634296700948813e+00
2.352634296700948813e+00
2.352634296700948813e+00
2.493451094088564801e+00
2.493451094088564801e+00
2.493451094088564801e+00
2.493451094088564801e+00
2.489325968199713301e+00
2.489325968199713301e+00
2.489325968199713301e+00
2.435699331644642474e+00
2.435699331644642474e+00
2.435699331644642474e+00
2.533014801477095901e+00
2.533014801477095901e+00
2.533014801477095901e+00
2.533014801477095901e+00
2.484075807977538464e+00
2.484075807977538464e+00
2.484075807977538464e+00
2.337821344645527599e+00
2.337821344645527599e+00
2.337821344645527599e+00
2.337821344645527599e+00
2.476013061922055947e+00
2.476013061922055947e+00
2.476013061922055947e+00
2.582328806421094747e+00
2.582328806421094747e+00
2.582328806421094747e+00
2.492888576921902910e+00
2.492888576921902910e+00
2.492888576921902910e+00
2.492888576921902910e+00
2.471700430310983521e+00
2.471700430310983521e+00
2.471700430310983521e+00
2.484638325144199911e+00
2.484638325144199911e+00
2.484638325144199911e+00
2.484638325144199911e+00
2.466450270088809127e+00
2.466450270088809127e+00
2.466450270088809127e+00
2.464200201422162451e+00
2.464200201422162451e+00
2.464200201422162451e+00
2.499638782921842051e+00
2.499638782921842051e+00
2.499638782921842051e+00
2.499638782921842051e+00
2.536577410199285953e+00
2.536577410199285953e+00
2.536577410199285953e+00
2.438886928922391562e+00
2.438886928922391562e+00
2.438886928922391562e+00
2.438886928922391562e+00
2.475638050477614982e+00
2.475638050477614982e+00
2.475638050477614982e+00
2.577266151921139947e+00
2.577266151921139947e+00
2.577266151921139947e+00
2.577266151921139947e+00
2.583453840754417641e+00
2.583453840754417641e+00
2.583453840754417641e+00
2.525327066866054349e+00
2.525327066866054349e+00
2.525327066866054349e+00
2.510889126255073656e+00
2.510889126255073656e+00
2.510889126255073656e+00
2.510889126255073656e+00
2.591516586809900158e+00
2.591516586809900158e+00
2.591516586809900158e+00
2.503576403088473068e+00
2.503576403088473068e+00
2.503576403088473068e+00
2.503576403088473068e+00
2.486888393810846587e+00
2.486888393810846587e+00
2.486888393810846587e+00
2.362197088534196077e+00
2.362197088534196077e+00
2.362197088534196077e+00
2.284569719534897736e+00
2.284569719534897736e+00
2.284569719534897736e+00
2.284569719534897736e+00
2.376260017700735361e+00
2.376260017700735361e+00
2.376260017700735361e+00
2.444137089144566399e+00
2.444137089144566399e+00
2.444137089144566399e+00
2.444137089144566399e+00
2.452012329477828434e+00
2.452012329477828434e+00
2.452012329477828434e+00
2.519889400921659028e+00
2.519889400921659028e+00
2.519889400921659028e+00
2.575391094698934680e+00
2.575391094698934680e+00
2.575391094698934680e+00
2.575391094698934680e+00
2.635017914365062275e+00
2.635017914365062275e+00
2.635017914365062275e+00
2.591891598254341122e+00
2.591891598254341122e+00
2.591891598254341122e+00
2.591891598254341122e+00
2.558515579699087716e+00
2.558515579699087716e+00
2.558515579699087716e+00
2.611017181920834762e+00
2.611017181920834762e+00
2.611017181920834762e+00
2.551390362254707167e+00
2.551390362254707167e+00
2.551390362254707167e+00
2.551390362254707167e+00
2.370447340311899076e+00
2.370447340311899076e+00
2.370447340311899076e+00
2.382447706534013054e+00
2.382447706534013054e+00
2.382447706534013054e+00
2.382447706534013054e+00
2.449387249366740793e+00
2.449387249366740793e+00
2.449387249366740793e+00
2.394823084200567997e+00
2.394823084200567997e+00
2.394823084200567997e+00
2.439261940366832526e+00
2.439261940366832526e+00
2.439261940366832526e+00
2.439261940366832526e+00
2.458012512588885201e+00
2.458012512588885201e+00
2.458012512588885201e+00
2.546327707754753256e+00
2.546327707754753256e+00
2.546327707754753256e+00
2.546327707754753256e+00
2.558140568254646752e+00
2.558140568254646752e+00
2.558140568254646752e+00
2.405885921811578676e+00
2.405885921811578676e+00
2.405885921811578676e+00
2.413761162144840711e+00
2.413761162144840711e+00
2.413761162144840711e+00
2.413761162144840711e+00
2.456324961088900860e+00
2.456324961088900860e+00
2.456324961088900860e+00
2.549515305032502344e+00
2.549515305032502344e+00
2.549515305032502344e+00
2.549515305032502344e+00
2.592829126865443978e+00
2.592829126865443978e+00
2.592829126865443978e+00
2.514639240699484635e+00
2.514639240699484635e+00
2.514639240699484635e+00
2.521951963866084778e+00
2.521951963866084778e+00
2.521951963866084778e+00
2.521951963866084778e+00
2.464950224311044824e+00
2.464950224311044824e+00
2.464950224311044824e+00
2.497388714255195818e+00
2.497388714255195818e+00
2.497388714255195818e+00
2.497388714255195818e+00
2.432886745811334794e+00
2.432886745811334794e+00
2.432886745811334794e+00
2.435136814477980582e+00
2.435136814477980582e+00
2.435136814477980582e+00
2.382447706534013054e+00
2.382447706534013054e+00
2.382447706534013054e+00
2.382447706534013054e+00
2.456137455366679934e+00
2.456137455366679934e+00
2.456137455366679934e+00
2.429136631366924259e+00
2.429136631366924259e+00
2.429136631366924259e+00
2.429136631366924259e+00
2.570140934476760286e+00
2.570140934476760286e+00
2.570140934476760286e+00
2.600704367198706013e+00
2.600704367198706013e+00
2.600704367198706013e+00
2.600704367198706013e+00
2.402698324533829588e+00
2.402698324533829588e+00
2.402698324533829588e+00
2.337071321756645670e+00
2.337071321756645670e+00
2.337071321756645670e+00
2.475638050477614982e+00
2.475638050477614982e+00
2.475638050477614982e+00
2.475638050477614982e+00
2.603329447309793654e+00
2.603329447309793654e+00
2.603329447309793654e+00
2.753146519363994127e+00
2.753146519363994127e+00
2.753146519363994127e+00
2.753146519363994127e+00
2.639518051698355183e+00
2.639518051698355183e+00
2.639518051698355183e+00
2.532077272865993045e+00
2.532077272865993045e+00
2.532077272865993045e+00
2.481825739310891787e+00
2.481825739310891787e+00
2.481825739310891787e+00
2.481825739310891787e+00
2.445262123477889293e+00
2.445262123477889293e+00
2.445262123477889293e+00
2.378135074922940628e+00
2.378135074922940628e+00
2.378135074922940628e+00
2.378135074922940628e+00
2.279132053590502860e+00
2.279132053590502860e+00
2.279132053590502860e+00
2.413573656422620228e+00
2.413573656422620228e+00
2.413573656422620228e+00
2.503763908810693550e+00
2.503763908810693550e+00
2.503763908810693550e+00
2.503763908810693550e+00
2.506764000366222156e+00
2.506764000366222156e+00
2.506764000366222156e+00
2.603891964476455101e+00
2.603891964476455101e+00
2.603891964476455101e+00
2.603891964476455101e+00
2.620392468031861544e+00
2.620392468031861544e+00
2.620392468031861544e+00
2.438511917477950597e+00
2.438511917477950597e+00
2.438511917477950597e+00
2.350946745200964472e+00
2.350946745200964472e+00
2.350946745200964472e+00
2.350946745200964472e+00
2.386947843867305519e+00
2.386947843867305519e+00
2.386947843867305519e+00
2.501701345866268245e+00
2.501701345866268245e+00
2.501701345866268245e+00
2.501701345866268245e+00
2.569015900143436948e+00
2.569015900143436948e+00
2.569015900143436948e+00
2.548390270699179450e+00
2.548390270699179450e+00
2.548390270699179450e+00
2.575578600421155162e+00
2.575578600421155162e+00
2.575578600421155162e+00
2.575578600421155162e+00
2.486138370921964214e+00
2.486138370921964214e+00
2.486138370921964214e+00
2.378135074922940628e+00
2.378135074922940628e+00
2.378135074922940628e+00
2.378135074922940628e+00
2.448637226477858864e+00
2.448637226477858864e+00
2.448637226477858864e+00
2.451824823755607952e+00
2.451824823755607952e+00
2.451824823755607952e+00
2.486700888088625661e+00
2.486700888088625661e+00
2.486700888088625661e+00
2.486700888088625661e+00
2.549515305032502344e+00
2.549515305032502344e+00
2.549515305032502344e+00
2.498701254310739639e+00
2.498701254310739639e+00
2.498701254310739639e+00
2.498701254310739639e+00
2.554015442365794808e+00
2.554015442365794808e+00
2.554015442365794808e+00
2.300882717368083696e+00
2.300882717368083696e+00
2.300882717368083696e+00
2.385260292367321178e+00
2.385260292367321178e+00
2.385260292367321178e+00
2.385260292367321178e+00
2.523452009643849081e+00
2.523452009643849081e+00
2.523452009643849081e+00
2.560203131199072502e+00
2.560203131199072502e+00
2.560203131199072502e+00
2.560203131199072502e+00
2.743771233252967789e+00
2.743771233252967789e+00
2.743771233252967789e+00
2.692957182531205085e+00
2.692957182531205085e+00
2.692957182531205085e+00
2.692957182531205085e+00
2.485200842310861358e+00
2.485200842310861358e+00
2.485200842310861358e+00
2.382635212256233537e+00
2.382635212256233537e+00
2.382635212256233537e+00
2.367822260200811879e+00
2.367822260200811879e+00
2.367822260200811879e+00
2.367822260200811879e+00
2.469637867366557771e+00
2.469637867366557771e+00
2.469637867366557771e+00
2.497763725699636783e+00
2.497763725699636783e+00
2.497763725699636783e+00
2.497763725699636783e+00
2.500201300088503942e+00
2.500201300088503942e+00
2.500201300088503942e+00
2.556828028199102931e+00
2.556828028199102931e+00
2.556828028199102931e+00
2.545577684865871326e+00
2.545577684865871326e+00
2.545577684865871326e+00
2.545577684865871326e+00
2.433636768700216724e+00
2.433636768700216724e+00
2.433636768700216724e+00
2.533764824365978274e+00
2.533764824365978274e+00
2.533764824365978274e+00
2.533764824365978274e+00
2.555327982421338628e+00
2.555327982421338628e+00
2.555327982421338628e+00
2.603141941587572727e+00
2.603141941587572727e+00
2.603141941587572727e+00
2.603141941587572727e+00
2.518201849421674243e+00
2.518201849421674243e+00
2.518201849421674243e+00
2.262631550035096417e+00
2.262631550035096417e+00
2.262631550035096417e+00
2.214817590868861874e+00
2.214817590868861874e+00
2.214817590868861874e+00
2.214817590868861874e+00
2.252881252479629115e+00
2.252881252479629115e+00
2.252881252479629115e+00
2.585516403698843391e+00
2.585516403698843391e+00
2.585516403698843391e+00
2.585516403698843391e+00
2.583453840754417641e+00
2.583453840754417641e+00
2.583453840754417641e+00
2.479950682088686964e+00
2.479950682088686964e+00
2.479950682088686964e+00
2.548015259254738041e+00
2.548015259254738041e+00
2.548015259254738041e+00
2.548015259254738041e+00
2.406635944700461049e+00
2.406635944700461049e+00
2.406635944700461049e+00
2.467762810144352947e+00
2.467762810144352947e+00
2.467762810144352947e+00
2.515576769310586602e+00
2.515576769310586602e+00
2.515576769310586602e+00
2.515576769310586602e+00
2.581203772087771409e+00
2.581203772087771409e+00
2.581203772087771409e+00
2.599766838587603157e+00
2.599766838587603157e+00
2.599766838587603157e+00
2.599766838587603157e+00
2.549140293588061379e+00
2.549140293588061379e+00
2.549140293588061379e+00
2.422761436811426083e+00
2.422761436811426083e+00
2.422761436811426083e+00
2.525139561143833866e+00
2.525139561143833866e+00
2.525139561143833866e+00
2.525139561143833866e+00
2.676269173253578604e+00
2.676269173253578604e+00
2.676269173253578604e+00
2.479763176366466482e+00
2.479763176366466482e+00
2.479763176366466482e+00
2.479763176366466482e+00
2.451449812311166987e+00
2.451449812311166987e+00
2.451449812311166987e+00
2.479575670644245999e+00
2.479575670644245999e+00
2.479575670644245999e+00
2.448637226477858864e+00
2.448637226477858864e+00
2.448637226477858864e+00
2.448637226477858864e+00
2.552702902310250987e+00
2.552702902310250987e+00
2.552702902310250987e+00
2.469825373088778253e+00
2.469825373088778253e+00
2.469825373088778253e+00
2.469825373088778253e+00
2.262069032868434526e+00
2.262069032868434526e+00
2.262069032868434526e+00
2.216317636646626177e+00
2.216317636646626177e+00
2.216317636646626177e+00
2.416011230811487387e+00
2.416011230811487387e+00
2.416011230811487387e+00
2.416011230811487387e+00
2.542577593310342721e+00
2.542577593310342721e+00
2.542577593310342721e+00
2.587203955198828176e+00
2.587203955198828176e+00
2.587203955198828176e+00
2.587203955198828176e+00
2.594329172643208281e+00
2.594329172643208281e+00
2.594329172643208281e+00
2.652830957976012538e+00
2.652830957976012538e+00
2.652830957976012538e+00
2.652830957976012538e+00
2.549702810754722826e+00
2.549702810754722826e+00
2.549702810754722826e+00
2.585516403698843391e+00
2.585516403698843391e+00
2.585516403698843391e+00
2.535452375865963059e+00
2.535452375865963059e+00
2.535452375865963059e+00
2.535452375865963059e+00
2.542202581865901756e+00
2.542202581865901756e+00
2.542202581865901756e+00
2.625830133976256420e+00
2.625830133976256420e+00
2.625830133976256420e+00
2.625830133976256420e+00
2.571640980254524589e+00
2.571640980254524589e+00
2.571640980254524589e+00
2.553640430921353843e+00
2.553640430921353843e+00
2.553640430921353843e+00
2.444887112033448329e+00
2.444887112033448329e+00
2.444887112033448329e+00
2.444887112033448329e+00
2.332008667256691314e+00
2.332008667256691314e+00
2.332008667256691314e+00
2.498888760032960121e+00
2.498888760032960121e+00
2.498888760032960121e+00
2.498888760032960121e+00
2.390135441145054607e+00
2.390135441145054607e+00
2.390135441145054607e+00
2.342508987701040546e+00
2.342508987701040546e+00
2.342508987701040546e+00
2.339508896145511940e+00
2.339508896145511940e+00
2.339508896145511940e+00
2.339508896145511940e+00
2.315695669423505798e+00
2.315695669423505798e+00
2.315695669423505798e+00
2.369884823145237629e+00
2.369884823145237629e+00
2.369884823145237629e+00
2.369884823145237629e+00
2.578391186254463285e+00
2.578391186254463285e+00
2.578391186254463285e+00
2.665206335642567481e+00
2.665206335642567481e+00
2.665206335642567481e+00
2.538827478865932186e+00
2.538827478865932186e+00
2.538827478865932186e+00
2.538827478865932186e+00
2.343634022034363884e+00
2.343634022034363884e+00
2.343634022034363884e+00
2.281194616534928166e+00
2.281194616534928166e+00
2.281194616534928166e+00
2.281194616534928166e+00
2.478075624866481697e+00
2.478075624866481697e+00
2.478075624866481697e+00
2.661081209753715537e+00
2.661081209753715537e+00
2.661081209753715537e+00
2.668956450086977572e+00
2.668956450086977572e+00
2.668956450086977572e+00
2.668956450086977572e+00
2.617579882198553420e+00
2.617579882198553420e+00
2.617579882198553420e+00
2.500013794366283459e+00
2.500013794366283459e+00
2.500013794366283459e+00
2.500013794366283459e+00
2.417136265144810281e+00
2.417136265144810281e+00
2.417136265144810281e+00
2.422386425366985119e+00
2.422386425366985119e+00
2.422386425366985119e+00
2.447887203588976490e+00
2.447887203588976490e+00
2.447887203588976490e+00
2.447887203588976490e+00
2.482763267921994643e+00
2.482763267921994643e+00
2.482763267921994643e+00
2.570328440198980768e+00
2.570328440198980768e+00
2.570328440198980768e+00
2.570328440198980768e+00
2.600704367198706013e+00
2.600704367198706013e+00
2.600704367198706013e+00
2.586266426587725320e+00
2.586266426587725320e+00
2.586266426587725320e+00
2.586266426587725320e+00
2.663893795587023661e+00
2.663893795587023661e+00
2.663893795587023661e+00
2.601829401532029351e+00
2.601829401532029351e+00
2.601829401532029351e+00
2.258881435590685438e+00
2.258881435590685438e+00
2.258881435590685438e+00
2.258881435590685438e+00
2.334446241645558029e+00
2.334446241645558029e+00
2.334446241645558029e+00
2.306320383312479017e+00
2.306320383312479017e+00
2.306320383312479017e+00
2.306320383312479017e+00
2.322070863979003530e+00
2.322070863979003530e+00
2.322070863979003530e+00
2.548577776421399932e+00
2.548577776421399932e+00
2.548577776421399932e+00
2.516139286477248493e+00
2.516139286477248493e+00
2.516139286477248493e+00
2.516139286477248493e+00
2.480513199255348411e+00
2.480513199255348411e+00
2.480513199255348411e+00
2.435886837366862956e+00
2.435886837366862956e+00
2.435886837366862956e+00
2.435886837366862956e+00
2.515014252143925599e+00
2.515014252143925599e+00
2.515014252143925599e+00
2.625080111087374490e+00
2.625080111087374490e+00
2.625080111087374490e+00
2.601641895809808869e+00
2.601641895809808869e+00
2.601641895809808869e+00
2.601641895809808869e+00
2.642893154698324754e+00
2.642893154698324754e+00
2.642893154698324754e+00
2.613829767754142885e+00
2.613829767754142885e+00
2.455387432477798004e+00
2.455387432477798004e+00
2.279882076479384789e+00
2.217630176702169997e+00
2.217630176702169997e+00
2.452199835200048916e+00
2.632392834253975078e+00
2.632392834253975078e+00
2.625830133976256420e+00
2.625830133976256420e+00
2.453324869533372254e+00
2.460262581255531433e+00
2.460262581255531433e+00
2.508639057588427423e+00
2.508639057588427423e+00
2.427074068422498510e+00
2.359384502700888397e+00
2.359384502700888397e+00
2.529452192754905848e+00
2.529452192754905848e+00
2.613267250587481438e+00
2.567140842921231680e+00
2.472450453199865894e+00
2.472450453199865894e+00
2.505263954588457853e+00
2.517264320810571387e+00
2.517264320810571387e+00
2.395573107089449927e+00
2.395573107089449927e+00
2.499638782921842051e+00
2.495701162755211033e+00
2.495701162755211033e+00
2.487825922421948999e+00
2.554015442365794808e+00
2.554015442365794808e+00
2.620579973754082026e+00
2.620579973754082026e+00
2.604829493087557513e+00
2.298632648701437464e+00
2.298632648701437464e+00
2.352071779534287366e+00
2.352071779534287366e+00
2.498513748588519157e+00
2.532639790032654936e+00
2.532639790032654936e+00
2.456887478255561863e+00
2.456887478255561863e+00
2.327133518478957885e+00
2.616454847865230526e+00
2.616454847865230526e+00
2.652830957976012538e+00
2.652830957976012538e+00
2.400823267311624321e+00
2.268819238868374111e+00
2.268819238868374111e+00
2.272944364757225166e+00
2.434011780144657688e+00
2.434011780144657688e+00
2.655643543809320661e+00
2.655643543809320661e+00
2.708520157475509116e+00
2.779772331919309281e+00
2.779772331919309281e+00
2.711145237586596313e+00
2.711145237586596313e+00
2.485200842310861358e+00
2.166066103091524919e+00
2.166066103091524919e+00
2.293945005645924073e+00
2.293945005645924073e+00
2.510889126255073656e+00
2.548202764976958523e+00
2.548202764976958523e+00
2.410948576311533031e+00
2.389010406811731269e+00
2.389010406811731269e+00
2.490638508255257122e+00
2.490638508255257122e+00
2.578578691976683768e+00
2.599016815698721228e+00
2.599016815698721228e+00
2.623580065309610188e+00
2.578766197698904250e+00
2.578766197698904250e+00
2.602954435865352245e+00
2.693332193975646049e+00
2.693332193975646049e+00
2.536952421643726918e+00
2.536952421643726918e+00
2.406635944700461049e+00
2.448074709311197417e+00
2.448074709311197417e+00
2.456699972533341381e+00
2.456699972533341381e+00
2.254943815424054865e+00
2.251568712424085295e+00
2.251568712424085295e+00
2.532639790032654936e+00
2.532639790032654936e+00
2.431199194311350009e+00
2.450324777977843649e+00
2.450324777977843649e+00
2.469075350199895880e+00
2.675519150364696230e+00
2.675519150364696230e+00
2.476388073366496911e+00
2.476388073366496911e+00
2.443387066255684470e+00
2.685644459364604497e+00
2.685644459364604497e+00
2.609704641865290942e+00
2.609704641865290942e+00
2.433449262977995797e+00
2.474513016144291644e+00
2.474513016144291644e+00
2.476388073366496911e+00
2.517076815088350905e+00
2.517076815088350905e+00
2.541265053254798900e+00
2.541265053254798900e+00
2.519514389477218064e+00
2.386760338145085036e+00
2.386760338145085036e+00
2.308757957701345731e+00
2.308757957701345731e+00
2.316633198034607766e+00
2.528514664143802992e+00
2.528514664143802992e+00
2.638393017365031845e+00
2.638393017365031845e+00
2.624892605365154008e+00
2.574453566087832268e+00
2.574453566087832268e+00
2.463075167088839557e+00
2.478263130588702179e+00
2.478263130588702179e+00
2.424636494033631351e+00
2.424636494033631351e+00
2.349821710867641578e+00
2.499451277199621568e+00
2.499451277199621568e+00
2.780147343363750245e+00
2.780147343363750245e+00
2.581766289254432856e+00
2.616267342143010044e+00
2.616267342143010044e+00
2.453512375255592737e+00
2.453512375255592737e+00
2.296195074312570750e+00
2.348884182256538722e+00
2.348884182256538722e+00
2.573891048921170377e+00
2.573891048921170377e+00
2.462887661366619074e+00
2.426324045533616136e+00
2.426324045533616136e+00
2.274819421979430434e+00
2.366884731589709023e+00
2.366884731589709023e+00
2.303695303201391820e+00
2.303695303201391820e+00
2.402885830256050514e+00
2.710770226142155348e+00
2.710770226142155348e+00
2.762146794030579500e+00
2.749583910641804518e+00
2.749583910641804518e+00
2.676644184698019568e+00
2.676644184698019568e+00
2.494013611255226248e+00
2.495701162755211033e+00
2.495701162755211033e+00
2.226817957090975852e+00
2.226817957090975852e+00
2.480138187810907002e+00
2.710207708975493901e+00
2.710207708975493901e+00
2.530952238532670151e+00
2.530952238532670151e+00
2.380010132145145896e+00
2.319070772423474924e+00
2.319070772423474924e+00
2.482013245033112270e+00
2.482013245033112270e+00
2.662956266975920805e+00
2.425199011200292798e+00
2.425199011200292798e+00
2.222880336924344391e+00
2.574641071810052750e+00
2.574641071810052750e+00
2.574266060365611786e+00
2.574266060365611786e+00
2.500576311532944906e+00
2.342133976256599581e+00
2.342133976256599581e+00
2.577453657643360874e+00
2.577453657643360874e+00
2.609142124698629495e+00
2.516701803643909940e+00
2.516701803643909940e+00
2.341946470534379099e+00
2.341946470534379099e+00
2.561703176976836804e+00
2.696144779808954173e+00
2.696144779808954173e+00
2.610829676198614280e+00
2.610829676198614280e+00
2.595079195532090210e+00
2.408698507644886799e+00
2.408698507644886799e+00
2.528702169866023475e+00
2.354321848200934042e+00
2.354321848200934042e+00
2.293194982757042144e+00
2.293194982757042144e+00
2.391260475478377501e+00
2.639143040253914219e+00
2.639143040253914219e+00
2.515014252143925599e+00
2.515014252143925599e+00
2.410386059144871140e+00
2.353571825312051669e+00
2.353571825312051669e+00
2.455949949644459451e+00
2.399135715811639535e+00
2.399135715811639535e+00
2.383760246589556875e+00
2.383760246589556875e+00
2.660893704031495055e+00
2.633705374309518454e+00
2.633705374309518454e+00
2.629580248420667399e+00
2.629580248420667399e+00
2.558890591143528681e+00
2.559828119754631537e+00
2.559828119754631537e+00
2.400823267311624321e+00
2.400823267311624321e+00
2.348134159367656792e+00
2.374572466200750576e+00
2.374572466200750576e+00
2.523639515366069563e+00
2.572203497421186036e+00
2.572203497421186036e+00
2.639893063142796148e+00
2.639893063142796148e+00
2.530577227088229186e+00
2.415823725089266905e+00
2.415823725089266905e+00
2.308945463423566213e+00
2.308945463423566213e+00
2.527389629810480098e+00
2.548577776421399932e+00
2.548577776421399932e+00
2.538077455977050256e+00
2.538077455977050256e+00
2.578391186254463285e+00
2.496638691366313889e+00
2.496638691366313889e+00
2.424261482589190386e+00
2.361822077089755112e+00
2.361822077089755112e+00
2.285319742423780109e+00
2.285319742423780109e+00
2.431574205755790974e+00
2.613829767754142885e+00
2.613829767754142885e+00
2.455012421033357040e+00
2.455012421033357040e+00
2.485575853755302767e+00
2.555890499588000075e+00
2.555890499588000075e+00
2.593391644032105425e+00
2.593391644032105425e+00
2.493263588366343875e+00
2.499076265755180604e+00
2.499076265755180604e+00
2.496076174199651998e+00
2.528139652699362028e+00
2.528139652699362028e+00
2.444512100589007364e+00
2.444512100589007364e+00
2.405135898922696747e+00
2.478263130588702179e+00
2.478263130588702179e+00
2.577266151921139947e+00
2.577266151921139947e+00
2.484263313699758946e+00
2.628267708365123578e+00
2.628267708365123578e+00
2.452199835200048916e+00
2.668393932920316125e+00
2.668393932920316125e+00
2.591141575365459193e+00
2.591141575365459193e+00
2.299195165868098911e+00
2.380947660756248752e+00
2.380947660756248752e+00
2.456324961088900860e+00
2.456324961088900860e+00
2.440011963255714900e+00
2.309695486312448587e+00
2.309695486312448587e+00
2.241630909146397510e+00
2.428574114200262368e+00
2.428574114200262368e+00
2.651143406476027753e+00
2.651143406476027753e+00
2.794022766808069491e+00
2.654893520920438288e+00
2.654893520920438288e+00
2.365009674367503756e+00
2.365009674367503756e+00
2.540515030365916971e+00
2.610829676198614280e+00
2.610829676198614280e+00
2.547265236365856111e+00
2.547265236365856111e+00
2.453887386700033701e+00
2.465887752922147680e+00
2.465887752922147680e+00
2.393885555589465142e+00
2.393885555589465142e+00
2.398948210089419053e+00
2.327508529923398850e+00
2.327508529923398850e+00
2.464012695699941968e+00
2.464012695699941968e+00
2.646080751976073397e+00
2.757084139530625588e+00
2.757084139530625588e+00
2.630892788476211219e+00
2.606142033143101333e+00
2.606142033143101333e+00
2.441699514755699685e+00
2.441699514755699685e+00
2.319258278145695407e+00
2.145065462202826012e+00
2.145065462202826012e+00
2.355634388256477418e+00
2.355634388256477418e+00
2.535827387310404024e+00
2.534702352977080686e+00
2.534702352977080686e+00
2.442449537644581614e+00
2.442449537644581614e+00
2.753521530808435092e+00
2.636892971587267542e+00
2.636892971587267542e+00
2.285694753868221074e+00
2.285694753868221074e+00
2.516514297921689458e+00
2.533202307199316383e+00
2.533202307199316383e+00
2.457074983977782345e+00
2.438324411755729670e+00
2.438324411755729670e+00
2.503576403088473068e+00
2.503576403088473068e+00
2.637642994476149916e+00
2.660331186864833608e+00
2.660331186864833608e+00
2.444512100589007364e+00
2.189316812646870059e+00
2.189316812646870059e+00
2.389385418256172233e+00
2.389385418256172233e+00
2.452387340922269399e+00
2.182379100924710880e+00
2.182379100924710880e+00
2.444324594866786882e+00
2.444324594866786882e+00
2.649080843531602003e+00
2.876150273140659852e+00
2.876150273140659852e+00
2.775459700308236854e+00
2.775459700308236854e+00
2.677394207586901498e+00
2.462700155644398592e+00
2.462700155644398592e+00
2.172066286202582130e+00
2.172066286202582130e+00
2.199067110202337361e+00
2.372322397534104788e+00
2.372322397534104788e+00
2.468512833033234433e+00
2.545015167699209435e+00
2.545015167699209435e+00
2.594516678365428763e+00
2.594516678365428763e+00
2.590204046754356337e+00
2.466450270088809127e+00
2.466450270088809127e+00
2.341758964812158617e+00
2.341758964812158617e+00
2.508826563310647906e+00
2.459887569811090469e+00
2.459887569811090469e+00
2.486700888088625661e+00
2.486700888088625661e+00
2.563578234199041628e+00
2.660143681142613126e+00
2.660143681142613126e+00
2.603891964476455101e+00
2.477700613422040732e+00
2.477700613422040732e+00
2.378510086367381593e+00
2.378510086367381593e+00
2.227942991424298746e+00
2.464950224311044824e+00
2.464950224311044824e+00
2.645143223364970542e+00
2.645143223364970542e+00
2.611392193365276171e+00
2.407198461867122496e+00
2.407198461867122496e+00
2.290382396923734465e+00
2.290382396923734465e+00
2.518951872310556173e+00
2.667643910031433752e+00
2.667643910031433752e+00
2.428011597033600921e+00
2.428011597033600921e+00
2.438511917477950597e+00
2.566015808587908342e+00
2.566015808587908342e+00
2.695394756920072243e+00
2.479013153477584552e+00
2.479013153477584552e+00
2.375509994811853431e+00
2.375509994811853431e+00
2.421636402478102745e+00
2.430074159978026671e+00
2.430074159978026671e+00
2.535827387310404024e+00
2.535827387310404024e+00
2.488763451033051854e+00
2.493826105533005766e+00
2.493826105533005766e+00
2.366697225867488541e+00
2.546702719199194664e+00
2.546702719199194664e+00
2.586078920865504838e+00
2.586078920865504838e+00
2.615142307809686706e+00
2.618142399365215311e+00
2.618142399365215311e+00
2.612517227698599065e+00
2.612517227698599065e+00
2.512951689199499850e+00
2.285694753868221074e+00
2.285694753868221074e+00
2.333508713034455617e+00
2.333508713034455617e+00
2.468137821588793912e+00
2.450137272255623166e+00
2.450137272255623166e+00
2.456324961088900860e+00
2.456324961088900860e+00
2.468887844477675397e+00
2.526639606921598169e+00
2.526639606921598169e+00
2.462887661366619074e+00
2.224942899868770141e+00
2.224942899868770141e+00
2.395010589922788480e+00
2.395010589922788480e+00
2.680394299142429659e+00
2.709832697531052492e+00
2.709832697531052492e+00
2.582141300698873820e+00
2.582141300698873820e+00
2.480888210699789376e+00
2.415448713644825496e+00
2.415448713644825496e+00
2.481263222144230340e+00
2.481263222144230340e+00
2.473387981810968306e+00
2.484638325144199911e+00
2.484638325144199911e+00
2.454637409588916075e+00
2.454637409588916075e+00
2.453512375255592737e+00
2.462887661366619074e+00
2.462887661366619074e+00
2.467387798699911539e+00
2.563765739921262110e+00
2.563765739921262110e+00
2.581391277809991891e+00
2.581391277809991891e+00
2.600516861476485531e+00
2.613267250587481438e+00
2.613267250587481438e+00
2.669706472975859946e+00
2.669706472975859946e+00
2.401760795922727176e+00
2.279319559312723342e+00
2.279319559312723342e+00
2.202442213202307375e+00
2.202442213202307375e+00
2.321133335367900674e+00
2.490451002533036640e+00
2.490451002533036640e+00
2.526452101199377687e+00
2.526452101199377687e+00
2.506013977477339782e+00
2.498701254310739639e+00
2.498701254310739639e+00
2.566765831476790716e+00
2.517076815088350905e+00
2.517076815088350905e+00
2.522701986754967152e+00
2.522701986754967152e+00
2.611954710531937618e+00
2.556265511032441040e+00
2.556265511032441040e+00
2.510701620532853173e+00
2.510701620532853173e+00
2.686769493697927835e+00
2.586453932309945802e+00
2.586453932309945802e+00
2.312320566423536228e+00
2.312320566423536228e+00
2.331258644367808941e+00
2.425574022644734207e+00
2.425574022644734207e+00
2.414698690755943566e+00
2.414698690755943566e+00
2.383572740867336393e+00
2.471512924588763038e+00
2.471512924588763038e+00
2.552327890865810023e+00
2.506388988921781191e+00
2.506388988921781191e+00
2.450512283700064131e+00
2.450512283700064131e+00
2.400635761589403838e+00
2.377760063478499664e+00
2.377760063478499664e+00
2.485388348033082284e+00
2.485388348033082284e+00
2.572015991698965554e+00
2.555140476699118146e+00
2.555140476699118146e+00
2.583828852198858606e+00
2.583828852198858606e+00
2.570890957365642215e+00
2.586266426587725320e+00
2.586266426587725320e+00
2.455762443922238969e+00
2.455762443922238969e+00
2.402323313089388623e+00
2.425011505478072316e+00
2.425011505478072316e+00
2.451824823755607952e+00
2.557953062532425825e+00
2.557953062532425825e+00
2.616079836420789118e+00
2.616079836420789118e+00
2.571078463087863142e+00
2.508826563310647906e+00
2.508826563310647906e+00
2.340071413312173831e+00
2.340071413312173831e+00
2.400635761589403838e+00
2.540327524643696488e+00
2.540327524643696488e+00
2.448449720755638381e+00
2.503201391644032547e+00
2.503201391644032547e+00
2.542577593310342721e+00
2.542577593310342721e+00
2.499638782921842051e+00
2.476200567644276429e+00
2.476200567644276429e+00
2.483325785088656090e+00
2.483325785088656090e+00
2.510514114810632691e+00
2.524764549699392902e+00
2.524764549699392902e+00
2.486513382366405178e+00
2.486513382366405178e+00
2.484450819421979428e+00
2.452762352366710363e+00
2.452762352366710363e+00
2.436449354533524403e+00
2.436449354533524403e+00
2.503201391644032547e+00
2.619829950865200097e+00
2.619829950865200097e+00
2.581953794976653338e+00
2.446387157811212187e+00
2.446387157811212187e+00
2.239755851924192243e+00
2.239755851924192243e+00
2.301632740256966070e+00
2.557578051087984861e+00
2.557578051087984861e+00
2.611579699087496653e+00
2.611579699087496653e+00
2.505826471755119300e+00
2.427261574144718992e+00
2.427261574144718992e+00
2.455574938200018487e+00
2.455574938200018487e+00
2.613642262031922403e+00
2.651893429364910126e+00
2.651893429364910126e+00
2.418823816644795066e+00
2.418823816644795066e+00
2.496638691366313889e+00
2.507889034699545494e+00
2.507889034699545494e+00
2.437761894589068223e+00
2.539202490310373150e+00
2.539202490310373150e+00
2.721083040864284097e+00
2.721083040864284097e+00
2.502638874477370656e+00
2.369134800256355700e+00
2.369134800256355700e+00
2.301070223090304623e+00
2.301070223090304623e+00
2.237880794701986531e+00
2.406073427533799602e+00
2.406073427533799602e+00
2.606892056031983707e+00
2.606892056031983707e+00
2.494576128421887695e+00
2.485763359477523249e+00
2.485763359477523249e+00
2.573141026032288892e+00
2.582328806421094747e+00
2.582328806421094747e+00
2.572766014587847927e+00
2.572766014587847927e+00
2.469825373088778253e+00
2.432324228644673347e+00
2.432324228644673347e+00
2.387697866756187448e+00
2.387697866756187448e+00
2.424636494033631351e+00
2.536389904477065471e+00
2.536389904477065471e+00
2.436636860255744885e+00
2.436636860255744885e+00
2.424448988311410869e+00
2.503576403088473068e+00
2.503576403088473068e+00
2.597516769920956925e+00
2.597516769920956925e+00
2.636142948698385613e+00
2.494576128421887695e+00
2.494576128421887695e+00
2.491576036866359534e+00
2.512014160588396994e+00
2.512014160588396994e+00
2.487075899533067069e+00
2.487075899533067069e+00
2.511639149143956029e+00
2.401385784478286212e+00
2.401385784478286212e+00
2.307445417645802355e+00
2.307445417645802355e+00
2.386385326700643628e+00
2.586078920865504838e+00
2.586078920865504838e+00
2.625080111087374490e+00
2.625080111087374490e+00
2.554577959532456255e+00
2.548577776421399932e+00
2.548577776421399932e+00
2.603891964476455101e+00
2.603891964476455101e+00
2.483888302255317981e+00
2.345884090701010116e+00
2.345884090701010116e+00
2.362759605700857524e+00
2.434011780144657688e+00
2.434011780144657688e+00
2.507514023255104085e+00
2.507514023255104085e+00
2.595641712698752102e+00
2.551952879421369058e+00
2.551952879421369058e+00
2.572015991698965554e+00
2.572015991698965554e+00
2.631080294198431702e+00
2.466825281533250092e+00
2.466825281533250092e+00
2.352446790978728330e+00
2.352446790978728330e+00
2.218192693868831444e+00
2.300695211645863214e+00
2.300695211645863214e+00
2.493638599810785283e+00
2.493638599810785283e+00
2.655831049531541144e+00
2.650580889309366306e+00
2.650580889309366306e+00
2.510701620532853173e+00
2.494388622699667213e+00
2.494388622699667213e+00
2.507139011810663121e+00
2.507139011810663121e+00
2.441699514755699685e+00
2.436261848811303921e+00
2.436261848811303921e+00
2.494013611255226248e+00
2.494013611255226248e+00
2.456137455366679934e+00
2.299945188756981285e+00
2.299945188756981285e+00
2.359384502700888397e+00
2.578203680532242803e+00
2.578203680532242803e+00
2.658456129642628341e+00
2.658456129642628341e+00
2.702144962920011384e+00
2.584203863643300014e+00
2.584203863643300014e+00
2.438511917477950597e+00
2.438511917477950597e+00
2.379447614978484449e+00
2.412636127811517817e+00
2.412636127811517817e+00
2.530577227088229186e+00
2.530577227088229186e+00
2.519514389477218064e+00
2.491763542588580016e+00
2.491763542588580016e+00
2.400448255867183356e+00
2.400448255867183356e+00
2.380385143589587305e+00
2.593954161198767316e+00
2.593954161198767316e+00
2.671019013031403322e+00
2.564515762810144484e+00
2.564515762810144484e+00
2.466450270088809127e+00
2.466450270088809127e+00
2.430449171422468080e+00
2.432511734366893830e+00
2.432511734366893830e+00
2.474700521866512126e+00
2.474700521866512126e+00
2.484638325144199911e+00
2.358071962645344577e+00
2.358071962645344577e+00
2.362947111423078006e+00
2.362947111423078006e+00
2.410948576311533031e+00
2.506013977477339782e+00
2.506013977477339782e+00
2.526077089754936722e+00
2.526077089754936722e+00
2.452762352366710363e+00
2.601454390087587942e+00
2.601454390087587942e+00
2.580453749198889035e+00
2.441699514755699685e+00
2.441699514755699685e+00
2.491576036866359534e+00
2.491576036866359534e+00
2.556265511032441040e+00
2.519139378032776655e+00
2.519139378032776655e+00
2.479763176366466482e+00
2.479763176366466482e+00
2.520826929532761884e+00
2.467575304422132465e+00
2.467575304422132465e+00
2.477700613422040732e+00
2.477700613422040732e+00
2.423511459700308013e+00
2.390135441145054607e+00
2.390135441145054607e+00
2.471325418866542556e+00
2.471325418866542556e+00
2.586641438032166285e+00
2.555515488143559111e+00
2.555515488143559111e+00
2.550077822199164235e+00
2.507889034699545494e+00
2.507889034699545494e+00
2.489325968199713301e+00
2.489325968199713301e+00
2.474700521866512126e+00
2.391822992645039392e+00
2.391822992645039392e+00
2.437386883144627259e+00
2.437386883144627259e+00
2.476950590533158358e+00
2.470012878810998735e+00
2.470012878810998735e+00
2.456137455366679934e+00
2.456137455366679934e+00
2.444699606311227846e+00
2.530764732810449669e+00
2.530764732810449669e+00
2.587953978087710105e+00
2.587953978087710105e+00
2.528889675588243957e+00
2.461200109866634289e+00
2.461200109866634289e+00
2.434199285866878171e+00
2.627705191198462131e+00
2.627705191198462131e+00
2.625455122531815455e+00
2.625455122531815455e+00
2.524014526810510528e+00
2.434199285866878171e+00
2.434199285866878171e+00
2.437949400311288706e+00
2.437949400311288706e+00
2.336696310312204705e+00
2.355259376812036454e+00
2.355259376812036454e+00
2.506764000366222156e+00
2.506764000366222156e+00
2.589266518143253926e+00
2.532639790032654936e+00
2.532639790032654936e+00
2.541452558977019383e+00
2.561890682699057287e+00
2.561890682699057287e+00
2.561890682699057287e+00
2.561890682699057287e+00
2.549702810754722826e+00
2.516514297921689458e+00
2.516514297921689458e+00
2.350946745200964472e+00
2.350946745200964472e+00
2.318133243812372069e+00
2.404385876033814373e+00
2.530202215643787778e+00
2.530202215643787778e+00
2.525514572588274831e+00
2.525514572588274831e+00
2.423698965422528495e+00
2.407760979033784388e+00
2.407760979033784388e+00
2.344571550645466296e+00
2.503951414532914033e+00
2.503951414532914033e+00
2.646830774864955327e+00
2.646830774864955327e+00
2.625455122531815455e+00
2.541077547532578418e+00
2.541077547532578418e+00
2.516701803643909940e+00
2.516701803643909940e+00
2.519139378032776655e+00
2.491013519699698087e+00
2.491013519699698087e+00
2.470575395977660182e+00
2.470575395977660182e+00
2.412261116367076408e+00
2.434949308755760100e+00
2.434949308755760100e+00
2.545952696310312291e+00
2.545952696310312291e+00
2.448262215033417899e+00
2.490826013977477604e+00
2.490826013977477604e+00
2.461950132755516218e+00
2.459137546922208095e+00
2.459137546922208095e+00
2.497013702810754854e+00
2.497013702810754854e+00
2.495326151310770069e+00
2.554390453810235773e+00
2.554390453810235773e+00
2.514451734977264152e+00
2.514451734977264152e+00
2.481638233588671305e+00
2.436636860255744885e+00
2.436636860255744885e+00
2.459700064088869986e+00
2.459700064088869986e+00
2.471512924588763038e+00
2.458200018311105683e+00
2.458200018311105683e+00
2.508264046143986459e+00
2.566765831476790716e+00
2.566765831476790716e+00
2.525514572588274831e+00
2.525514572588274831e+00
2.455387432477798004e+00
2.465700247199926753e+00
2.465700247199926753e+00
2.545577684865871326e+00
2.658643635364848823e+00
2.658643635364848823e+00
2.532264778588213971e+00
2.451074800866725578e+00
2.451074800866725578e+00
2.376072511978514878e+00
2.376072511978514878e+00
2.498513748588519157e+00
2.431761711478011456e+00
2.431761711478011456e+00
2.467950315866573430e+00
2.467950315866573430e+00
2.482013245033112270e+00
2.439449446089053009e+00
2.439449446089053009e+00
2.479763176366466482e+00
2.500388805810724424e+00
2.500388805810724424e+00
2.497763725699636783e+00
2.497763725699636783e+00
2.479950682088686964e+00
2.474138004699850679e+00
2.474138004699850679e+00
2.536202398754844989e+00
2.536202398754844989e+00
2.536014893032624506e+00
2.522701986754967152e+00
2.522701986754967152e+00
2.561140659810174913e+00
2.561140659810174913e+00
2.549515305032502344e+00
2.505638966032898818e+00
2.505638966032898818e+00
2.493451094088564801e+00
2.446012146366771223e+00
2.446012146366771223e+00
2.371572374645222414e+00
2.371572374645222414e+00
2.362384594256416559e+00
2.316445692312387283e+00
2.316445692312387283e+00
2.454262398144474666e+00
2.454262398144474666e+00
2.527202124088259172e+00
2.544640156254768470e+00
2.544640156254768470e+00
2.612892239143040030e+00
2.624142582476271635e+00
2.624142582476271635e+00
2.551015350810266202e+00
2.551015350810266202e+00
2.485763359477523249e+00
2.394448072756126589e+00
2.394448072756126589e+00
2.376072511978514878e+00
2.376072511978514878e+00
2.500763817255165389e+00
2.532264778588213971e+00
2.532264778588213971e+00
2.503013885921811621e+00
2.503013885921811621e+00
2.468325327311013950e+00
2.382822717978454019e+00
2.382822717978454019e+00
2.361259559923093665e+00
2.470012878810998735e+00
2.470012878810998735e+00
2.636705465865047060e+00
2.636705465865047060e+00
2.591891598254341122e+00
2.509576586199530279e+00
2.509576586199530279e+00
2.494763634144108178e+00
2.533952330088198757e+00
2.533952330088198757e+00
2.434386791589098653e+00
2.434386791589098653e+00
2.460637592699972398e+00
2.623017548142948741e+00
2.623017548142948741e+00
2.587766472365489623e+00
2.587766472365489623e+00
2.451262306588946061e+00
2.414886196478164049e+00
2.414886196478164049e+00
2.378510086367381593e+00
2.433824274422437206e+00
2.433824274422437206e+00
2.469075350199895880e+00
2.469075350199895880e+00
2.489138462477492819e+00
2.570515945921201251e+00
2.570515945921201251e+00
2.546515213476973738e+00
2.546515213476973738e+00
2.485388348033082284e+00
2.500201300088503942e+00
2.500201300088503942e+00
2.505076448866237371e+00
2.505076448866237371e+00
2.499826288644062977e+00
2.502638874477370656e+00
2.502638874477370656e+00
2.489700979644154266e+00
2.467387798699911539e+00
2.467387798699911539e+00
2.393885555589465142e+00
2.393885555589465142e+00
2.390510452589495571e+00
2.485763359477523249e+00
2.485763359477523249e+00
2.564515762810144484e+00
2.564515762810144484e+00
2.509201574755088870e+00
2.506764000366222156e+00
2.506764000366222156e+00
2.597516769920956925e+00
2.550265327921384717e+00
2.550265327921384717e+00
2.506201483199560265e+00
2.506201483199560265e+00
2.503951414532914033e+00
2.444887112033448329e+00
2.444887112033448329e+00
2.459887569811090469e+00
2.459887569811090469e+00
2.424823999755851833e+00
2.375134983367412023e+00
2.375134983367412023e+00
2.409261024811548246e+00
2.409261024811548246e+00
2.421636402478102745e+00
2.565640797143467378e+00
2.565640797143467378e+00
2.596391735587634031e+00
2.592454115421003014e+00
2.592454115421003014e+00
2.594704184087649246e+00
2.594704184087649246e+00
2.518951872310556173e+00
2.473762993255409270e+00
2.473762993255409270e+00
2.466825281533250092e+00
2.466825281533250092e+00
2.434949308755760100e+00
2.434949308755760100e+00
2.434949308755760100e+00
2.420323862422559369e+00
2.420323862422559369e+00
2.436636860255744885e+00
2.456137455366679934e+00
2.456137455366679934e+00
2.507139011810663121e+00
2.554952970976897664e+00
2.554952970976897664e+00
2.572391003143406518e+00
2.572391003143406518e+00
2.569390911587878357e+00
2.527389629810480098e+00
2.527389629810480098e+00
2.407573473311563461e+00
2.407573473311563461e+00
2.478075624866481697e+00
2.561703176976836804e+00
2.561703176976836804e+00
2.463075167088839557e+00
2.463075167088839557e+00
2.442824549089022579e+00
2.472450453199865894e+00
2.472450453199865894e+00
2.445824640644550740e+00
2.445824640644550740e+00
2.433074251533554833e+00
2.488763451033051854e+00
2.488763451033051854e+00
2.436261848811303921e+00
2.479763176366466482e+00
2.479763176366466482e+00
2.518764366588335690e+00
2.518764366588335690e+00
2.562265694143497807e+00
2.527202124088259172e+00
2.527202124088259172e+00
2.495888668477431516e+00
2.495888668477431516e+00
2.459325052644428578e+00
2.515389263588366120e+00
2.515389263588366120e+00
2.535639881588183542e+00
2.535639881588183542e+00
2.538452467421491221e+00
2.501326334421826836e+00
2.501326334421826836e+00
2.459700064088869986e+00
2.471887936033204003e+00
2.471887936033204003e+00
2.524952055421613384e+00
2.524952055421613384e+00
2.549702810754722826e+00
2.551390362254707167e+00
2.551390362254707167e+00
2.521764458143864296e+00
2.521764458143864296e+00
2.415261207922605013e+00
2.380947660756248752e+00
2.380947660756248752e+00
2.337633838923307117e+00
2.337633838923307117e+00
2.362759605700857524e+00
2.473575487533188788e+00
2.473575487533188788e+00
2.557953062532425825e+00
2.582328806421094747e+00
2.582328806421094747e+00
2.534139835810419239e+00
2.534139835810419239e+00
2.486138370921964214e+00
2.454074892422254184e+00
2.454074892422254184e+00
2.486325876644184696e+00
2.486325876644184696e+00
2.532077272865993045e+00
2.489513473921933784e+00
2.489513473921933784e+00
2.499638782921842051e+00
2.499638782921842051e+00
2.548952787865840897e+00
2.573328531754509374e+00
2.573328531754509374e+00
2.565265785699026413e+00
2.469825373088778253e+00
2.469825373088778253e+00
2.461575121311075254e+00
2.461575121311075254e+00
2.466825281533250092e+00
2.441324503311258276e+00
2.441324503311258276e+00
2.416011230811487387e+00
2.416011230811487387e+00
2.445074617755668811e+00
2.428761619922483295e+00
2.428761619922483295e+00
2.491201025421918569e+00
2.491201025421918569e+00
2.529827204199346813e+00
2.532827295754875419e+00
2.532827295754875419e+00
2.609142124698629495e+00
2.543140110477004168e+00
2.543140110477004168e+00
2.449762260811182202e+00
2.449762260811182202e+00
2.433824274422437206e+00
2.482013245033112270e+00
2.482013245033112270e+00
2.542202581865901756e+00
2.542202581865901756e+00
2.495513657032990551e+00
2.441136997589037794e+00
2.441136997589037794e+00
2.430074159978026671e+00
2.430074159978026671e+00
2.446012146366771223e+00
2.443199560533463544e+00
2.443199560533463544e+00
2.474700521866512126e+00
2.474700521866512126e+00
2.469450361644337288e+00
2.472637958922086376e+00
2.472637958922086376e+00
2.563953245643482592e+00
2.603329447309793654e+00
2.603329447309793654e+00
2.578391186254463285e+00
2.578391186254463285e+00
2.550452833643604755e+00
2.507701528977324568e+00
2.507701528977324568e+00
2.483138279366435608e+00
2.483138279366435608e+00
2.480138187810907002e+00
2.449574755088961275e+00
2.449574755088961275e+00
2.444887112033448329e+00
2.436449354533524403e+00
2.436449354533524403e+00
2.418448805200354101e+00
2.418448805200354101e+00
2.472262947477644968e+00
2.488200933866389963e+00
2.488200933866389963e+00
2.458575029755546648e+00
2.458575029755546648e+00
2.577266151921139947e+00
2.649268349253822485e+00
2.649268349253822485e+00
2.582141300698873820e+00
2.523264503921628599e+00
2.523264503921628599e+00
2.445637134922330258e+00
2.445637134922330258e+00
2.415823725089266905e+00
2.377572557756279181e+00
2.377572557756279181e+00
2.406073427533799602e+00
2.406073427533799602e+00
2.482013245033112270e+00
2.471512924588763038e+00
2.471512924588763038e+00
2.439824457533493973e+00
2.439824457533493973e+00
2.447699697866756008e+00
2.522701986754967152e+00
2.522701986754967152e+00
2.575766106143375644e+00
2.632205328531754596e+00
2.632205328531754596e+00
2.608392101809748009e+00
2.608392101809748009e+00
2.474138004699850679e+00
2.430074159978026671e+00
2.430074159978026671e+00
2.451449812311166987e+00
2.451449812311166987e+00
2.413011139255958781e+00
2.413948667867061193e+00
2.413948667867061193e+00
2.465700247199926753e+00
2.465700247199926753e+00
2.426886562700277583e+00
2.457825006866664719e+00
2.457825006866664719e+00
2.489700979644154266e+00
2.489700979644154266e+00
2.495326151310770069e+00
2.567328348643452163e+00
2.567328348643452163e+00
2.533952330088198757e+00
2.602766930143131763e+00
2.602766930143131763e+00
2.565828302865687860e+00
2.565828302865687860e+00
2.501513840144047762e+00
2.486700888088625661e+00
2.486700888088625661e+00
2.468137821588793912e+00
2.468137821588793912e+00
2.434386791589098653e+00
2.417323770867030763e+00
2.417698782311472172e+00
2.417698782311472172e+00
2.476388073366496911e+00
2.469825373088778253e+00
2.469825373088778253e+00
2.481825739310891787e+00
2.481825739310891787e+00
2.543140110477004168e+00
2.550827845088045720e+00
2.550827845088045720e+00
2.586078920865504838e+00
2.586078920865504838e+00
2.528327158421582510e+00
2.497576219977416301e+00
2.497576219977416301e+00
2.420511368144779851e+00
2.420511368144779851e+00
2.415073702200384531e+00
2.433261757255775315e+00
2.433261757255775315e+00
2.495701162755211033e+00
2.509014069032868388e+00
2.509014069032868388e+00
2.500388805810724424e+00
2.500388805810724424e+00
2.477513107699820250e+00
2.474138004699850679e+00
2.474138004699850679e+00
2.458200018311105683e+00
2.458200018311105683e+00
2.463075167088839557e+00
2.462137638477736701e+00
2.462137638477736701e+00
2.458387524033326166e+00
2.458387524033326166e+00
2.545202673421430362e+00
2.530952238532670151e+00
2.530952238532670151e+00
2.521201940977202849e+00
2.521201940977202849e+00
2.499076265755180604e+00
2.550077822199164235e+00
2.550077822199164235e+00
2.560578142643513466e+00
2.493076082644123392e+00
2.493076082644123392e+00
2.440574480422376347e+00
2.440574480422376347e+00
2.427074068422498510e+00
2.385260292367321178e+00
2.385260292367321178e+00
2.455949949644459451e+00
2.455949949644459451e+00
2.551015350810266202e+00
2.538264961699270739e+00
2.536577410199285953e+00
2.536577410199285953e+00
2.501138828699606353e+00
2.501138828699606353e+00
2.506764000366222156e+00
2.496826197088534371e+00
2.496826197088534371e+00
2.471325418866542556e+00
2.461762627033295736e+00
2.461762627033295736e+00
2.434199285866878171e+00
2.434199285866878171e+00
2.485200842310861358e+00
2.500201300088503942e+00
2.500201300088503942e+00
2.447512192144535526e+00
2.447512192144535526e+00
2.470575395977660182e+00
2.521576952421643814e+00
2.521576952421643814e+00
2.529827204199346813e+00
2.529827204199346813e+00
2.514451734977264152e+00
2.508826563310647906e+00
2.508826563310647906e+00
2.472075441755424485e+00
2.497201208532975336e+00
2.497201208532975336e+00
2.509951597643971244e+00
2.509951597643971244e+00
2.492513565477461945e+00
2.486888393810846587e+00
2.486888393810846587e+00
2.424448988311410869e+00
2.424448988311410869e+00
2.418823816644795066e+00
2.427261574144718992e+00
2.427261574144718992e+00
2.397823175756096159e+00
2.469637867366557771e+00
2.469637867366557771e+00
2.531514755699331598e+00
2.531514755699331598e+00
2.547265236365856111e+00
2.565265785699026413e+00
2.565265785699026413e+00
2.585328897976622908e+00
2.585328897976622908e+00
2.538639973143711703e+00
2.547077730643635629e+00
2.547077730643635629e+00
2.512201666310617476e+00
2.512201666310617476e+00
2.445262123477889293e+00
2.454449903866695148e+00
2.454449903866695148e+00
2.457074983977782345e+00
2.467200292977691056e+00
2.467200292977691056e+00
2.452762352366710363e+00
2.452762352366710363e+00
2.432324228644673347e+00
2.439636951811273491e+00
2.439636951811273491e+00
2.499076265755180604e+00
2.499076265755180604e+00
2.564703268532364966e+00
2.545577684865871326e+00
2.545577684865871326e+00
2.518389355143894726e+00
2.518389355143894726e+00
2.495701162755211033e+00
2.498326242866298674e+00
2.498326242866298674e+00
2.467575304422132465e+00
2.444137089144566399e+00
2.444137089144566399e+00
2.433074251533554833e+00
2.433074251533554833e+00
2.476013061922055947e+00
2.517451826532791870e+00
2.517451826532791870e+00
2.514639240699484635e+00
2.524389538254951937e+00
2.524389538254951937e+00
2.538264961699270739e+00
2.538264961699270739e+00
2.499638782921842051e+00
2.479200659199805035e+00
2.479200659199805035e+00
2.533764824365978274e+00
2.533764824365978274e+00
2.460637592699972398e+00
2.444887112033448329e+00
2.444887112033448329e+00
2.448449720755638381e+00
2.448449720755638381e+00
2.416198736533707869e+00
2.440949491866817311e+00
2.440949491866817311e+00
2.433261757255775315e+00
2.461762627033295736e+00
2.461762627033295736e+00
2.492701071199682428e+00
2.492701071199682428e+00
2.484825830866420393e+00
2.486700888088625661e+00
2.486700888088625661e+00
2.539577501754814115e+00
2.539577501754814115e+00
2.547640247810297076e+00
2.537702444532609292e+00
2.537702444532609292e+00
2.553077913754691952e+00
2.553077913754691952e+00
2.538827478865932186e+00
2.496638691366313889e+00
2.496638691366313889e+00
2.484263313699758946e+00
2.443387066255684470e+00
2.443387066255684470e+00
2.431386700033570492e+00
2.431386700033570492e+00
2.436074343089083438e+00
2.450512283700064131e+00
2.450512283700064131e+00
2.466075258644368162e+00
2.466075258644368162e+00
2.464012695699941968e+00
2.497951231421857266e+00
2.497951231421857266e+00
2.543702627643666059e+00
2.535452375865963059e+00
2.535452375865963059e+00
2.529264687032685366e+00
2.529264687032685366e+00
2.528139652699362028e+00
2.497013702810754854e+00
2.497013702810754854e+00
2.520826929532761884e+00
2.520826929532761884e+00
2.506951506088442638e+00
2.535077364421521651e+00
2.535077364421521651e+00
2.482013245033112270e+00
2.482013245033112270e+00
2.431011688589129527e+00
2.390885464033936536e+00
2.390885464033936536e+00
2.325445966978973100e+00
2.325445966978973100e+00
2.317008209479048730e+00
2.490638508255257122e+00
2.490638508255257122e+00
2.608204596087527527e+00
2.611204687643055244e+00
2.611204687643055244e+00
2.584016357921079532e+00
2.584016357921079532e+00
2.551015350810266202e+00
2.468887844477675397e+00
2.468887844477675397e+00
2.453324869533372254e+00
2.453324869533372254e+00
2.469637867366557771e+00
2.483888302255317981e+00
2.483888302255317981e+00
2.478638142033143144e+00
2.478638142033143144e+00
2.476763084810937876e+00
2.468700338755454915e+00
2.468700338755454915e+00
2.454449903866695148e+00
2.454449903866695148e+00
2.480513199255348411e+00
2.529639698477126331e+00
2.529639698477126331e+00
2.552327890865810023e+00
2.557203039643543896e+00
2.557203039643543896e+00
2.553265419476912879e+00
2.553265419476912879e+00
2.494013611255226248e+00
2.498326242866298674e+00
2.498326242866298674e+00
2.461575121311075254e+00
2.461575121311075254e+00
2.374947477645191540e+00
2.392760521256141804e+00
2.392760521256141804e+00
2.395010589922788480e+00
2.427449079866939474e+00
2.427449079866939474e+00
2.449949766533402684e+00
2.449949766533402684e+00
2.479200659199805035e+00
2.569203405865657430e+00
2.569203405865657430e+00
2.590954069643238711e+00
2.590954069643238711e+00
2.560765648365733949e+00
2.547077730643635629e+00
2.547077730643635629e+00
2.518951872310556173e+00
2.518951872310556173e+00
2.515576769310586602e+00
2.528514664143802992e+00
2.528514664143802992e+00
2.449574755088961275e+00
2.449574755088961275e+00
2.434011780144657688e+00
2.453512375255592737e+00
2.453512375255592737e+00
2.446949674977874079e+00
2.475638050477614982e+00
2.475638050477614982e+00
2.437949400311288706e+00
2.437949400311288706e+00
2.454074892422254184e+00
2.518014343699453761e+00
2.518014343699453761e+00
2.529452192754905848e+00
2.529452192754905848e+00
2.541265053254798900e+00
2.556453016754661967e+00
2.556453016754661967e+00
2.520826929532761884e+00
2.470575395977660182e+00
2.470575395977660182e+00
2.464200201422162451e+00
2.464200201422162451e+00
2.438699423200171079e+00
2.440949491866817311e+00
2.440949491866817311e+00
2.467387798699911539e+00
2.467387798699911539e+00
2.494201116977446731e+00
2.504888943144016888e+00
2.504888943144016888e+00
2.497388714255195818e+00
2.497388714255195818e+00
2.503201391644032547e+00
2.506201483199560265e+00
2.506201483199560265e+00
2.533202307199316383e+00
2.533202307199316383e+00
2.509764091921750762e+00
2.519326883754997581e+00
2.519326883754997581e+00
2.464950224311044824e+00
2.450137272255623166e+00
2.450137272255623166e+00
2.458762535477767130e+00
2.458762535477767130e+00
2.474513016144291644e+00
2.458762535477767130e+00
2.458762535477767130e+00
2.461387615588854771e+00
2.461387615588854771e+00
2.455387432477798004e+00
2.463075167088839557e+00
2.463075167088839557e+00
2.471700430310983521e+00
2.471700430310983521e+00
2.525139561143833866e+00
2.529827204199346813e+00
2.529827204199346813e+00
2.531514755699331598e+00
2.531514755699331598e+00
2.563765739921262110e+00
2.580453749198889035e+00
2.580453749198889035e+00
2.513701712088381779e+00
2.449199743644520311e+00
2.449199743644520311e+00
2.413386150700399746e+00
2.413386150700399746e+00
2.424448988311410869e+00
2.462887661366619074e+00
2.462887661366619074e+00
2.469262855922116806e+00
2.469262855922116806e+00
2.479950682088686964e+00
2.453699880977813219e+00
2.453699880977813219e+00
2.490263496810816157e+00
2.508076540421765976e+00
2.508076540421765976e+00
2.468137821588793912e+00
2.468137821588793912e+00
2.458012512588885201e+00
2.450324777977843649e+00
2.450324777977843649e+00
2.497576219977416301e+00
2.497576219977416301e+00
2.539202490310373150e+00
2.558328073976867234e+00
2.558328073976867234e+00
2.510701620532853173e+00
2.510701620532853173e+00
2.497576219977416301e+00
2.480700704977568893e+00
2.480700704977568893e+00
2.473387981810968306e+00
2.480325693533127485e+00
2.480325693533127485e+00
2.475638050477614982e+00
2.475638050477614982e+00
2.474325510422071162e+00
2.492326059755241463e+00
2.492326059755241463e+00
2.542952604754783685e+00
2.542952604754783685e+00
2.604641987365337030e+00
2.476013061922055947e+00
2.476013061922055947e+00
2.440199468977935382e+00
2.440199468977935382e+00
2.358446974089785542e+00
2.402135807367168141e+00
2.402135807367168141e+00
2.452762352366710363e+00
2.452762352366710363e+00
2.510139103366191726e+00
2.517076815088350905e+00
2.517076815088350905e+00
2.517826837977233279e+00
2.499638782921842051e+00
2.499638782921842051e+00
2.470200384533219218e+00
2.470200384533219218e+00
2.493638599810785283e+00
2.518389355143894726e+00
2.518389355143894726e+00
2.487638416699728516e+00
2.487638416699728516e+00
2.485200842310861358e+00
2.494388622699667213e+00
2.494388622699667213e+00
2.506013977477339782e+00
2.505076448866237371e+00
2.505076448866237371e+00
2.504138920255134515e+00
2.504138920255134515e+00
2.472450453199865894e+00
2.488950956755272337e+00
2.488950956755272337e+00
2.438886928922391562e+00
2.438886928922391562e+00
2.414323679311502602e+00
2.426324045533616136e+00
2.426324045533616136e+00
2.449387249366740793e+00
2.504138920255134515e+00
2.504138920255134515e+00
2.555890499588000075e+00
2.555890499588000075e+00
2.554765465254677181e+00
2.559828119754631537e+00
2.559828119754631537e+00
2.544077639088107023e+00
2.544077639088107023e+00
2.506013977477339782e+00
2.480513199255348411e+00
2.480513199255348411e+00
2.460450086977751916e+00
2.477888119144261214e+00
2.477888119144261214e+00
2.474513016144291644e+00
2.474513016144291644e+00
2.476388073366496911e+00
2.444887112033448329e+00
2.444887112033448329e+00
2.422761436811426083e+00
2.422761436811426083e+00
2.400260750144962874e+00
2.462512649922177665e+00
2.462512649922177665e+00
2.520451918088320475e+00
2.520451918088320475e+00
2.568640888698995983e+00
2.578016174810022321e+00
2.578016174810022321e+00
2.553077913754691952e+00
2.514451734977264152e+00
2.514451734977264152e+00
2.487075899533067069e+00
2.487075899533067069e+00
2.449012237922299828e+00
2.448074709311197417e+00
2.448074709311197417e+00
2.450512283700064131e+00
2.450512283700064131e+00
2.442074526200140649e+00
2.464762718588824342e+00
2.464762718588824342e+00
2.467012787255470574e+00
2.467012787255470574e+00
2.478450636310922661e+00
2.523639515366069563e+00
2.523639515366069563e+00
2.533202307199316383e+00
2.555140476699118146e+00
2.555140476699118146e+00
2.548390270699179450e+00
2.548390270699179450e+00
2.478450636310922661e+00
2.427824091311380439e+00
2.427824091311380439e+00
2.454074892422254184e+00
2.454074892422254184e+00
2.488575945310831372e+00
2.507139011810663121e+00
2.507139011810663121e+00
2.479763176366466482e+00
2.479763176366466482e+00
2.463262672811060039e+00
2.406823450422681532e+00
2.406823450422681532e+00
2.390510452589495571e+00
2.390510452589495571e+00
2.443762077700125435e+00
2.527764641254921063e+00
2.527764641254921063e+00
2.552702902310250987e+00
2.595266701254311137e+00
2.595266701254311137e+00
2.574828577532273233e+00
2.574828577532273233e+00
2.519139378032776655e+00
2.499263771477401086e+00
2.499263771477401086e+00
2.482013245033112270e+00
2.482013245033112270e+00
2.457262489700002828e+00
2.449199743644520311e+00
2.449199743644520311e+00
2.447887203588976490e+00
2.447887203588976490e+00
2.469075350199895880e+00
2.444137089144566399e+00
2.444137089144566399e+00
2.466825281533250092e+00
2.492701071199682428e+00
2.492701071199682428e+00
2.535452375865963059e+00
2.535452375865963059e+00
2.501138828699606353e+00
2.494576128421887695e+00
2.494576128421887695e+00
2.535827387310404024e+00
2.535827387310404024e+00
2.520826929532761884e+00
2.508639057588427423e+00
2.508639057588427423e+00
2.518389355143894726e+00
2.518389355143894726e+00
2.514639240699484635e+00
2.468512833033234433e+00
2.468512833033234433e+00
2.403635853144932444e+00
2.403635853144932444e+00
2.415823725089266905e+00
2.421823908200323228e+00
2.421823908200323228e+00
2.447137180700094561e+00
2.508451551866206941e+00
2.508451551866206941e+00
2.505263954588457853e+00
2.505263954588457853e+00
2.504888943144016888e+00
2.533952330088198757e+00
2.533952330088198757e+00
2.491576036866359534e+00
2.491576036866359534e+00
2.493638599810785283e+00
2.509951597643971244e+00
2.509951597643971244e+00
2.486513382366405178e+00
2.486513382366405178e+00
2.467762810144352947e+00
2.463825189977721486e+00
2.463825189977721486e+00
2.449574755088961275e+00
2.456887478255561863e+00
2.456887478255561863e+00
2.450137272255623166e+00
2.450137272255623166e+00
2.492326059755241463e+00
2.540890041810357936e+00
2.540890041810357936e+00
2.549327799310281861e+00
2.549327799310281861e+00
2.561890682699057287e+00
2.569015900143436948e+00
2.569015900143436948e+00
2.536389904477065471e+00
2.498326242866298674e+00
2.498326242866298674e+00
2.458012512588885201e+00
2.458012512588885201e+00
2.428949125644703777e+00
2.420698873867000778e+00
2.420698873867000778e+00
2.414136173589282119e+00
2.414136173589282119e+00
2.401010773033844803e+00
2.407760979033784388e+00
2.407760979033784388e+00
2.444324594866786882e+00
2.444324594866786882e+00
2.527764641254921063e+00
2.523827021088290046e+00
2.523827021088290046e+00
2.542390087588122238e+00
2.542390087588122238e+00
2.573516037476729856e+00
2.533952330088198757e+00
2.533952330088198757e+00
2.516701803643909940e+00
2.494576128421887695e+00
2.494576128421887695e+00
2.461200109866634289e+00
2.461200109866634289e+00
2.454637409588916075e+00
2.460825098422192880e+00
2.460825098422192880e+00
2.463825189977721486e+00
2.463825189977721486e+00
2.465512741477706271e+00
2.443387066255684470e+00
2.443387066255684470e+00
2.426511551255836618e+00
2.426511551255836618e+00
2.475638050477614982e+00
2.517639332255012796e+00
2.517639332255012796e+00
2.525702078310495757e+00
2.572203497421186036e+00
2.572203497421186036e+00
2.544640156254768470e+00
2.544640156254768470e+00
2.511826654866176511e+00
2.492326059755241463e+00
2.492326059755241463e+00
2.460262581255531433e+00
2.460262581255531433e+00
2.473950498977630197e+00
2.483138279366435608e+00
2.483138279366435608e+00
2.447324686422315043e+00
2.447324686422315043e+00
2.456887478255561863e+00
2.426511551255836618e+00
2.426511551255836618e+00
2.460825098422192880e+00
2.519889400921659028e+00
2.519889400921659028e+00
2.529264687032685366e+00
2.529264687032685366e+00
2.523076998199408116e+00
2.511264137699515064e+00
2.511264137699515064e+00
2.477138096255378841e+00
2.477138096255378841e+00
2.456699972533341381e+00
2.469450361644337288e+00
2.469450361644337288e+00
2.474888027588732609e+00
2.474888027588732609e+00
2.490451002533036640e+00
2.471887936033204003e+00
2.471887936033204003e+00
2.458762535477767130e+00
2.458762535477767130e+00
2.451637318033387469e+00
2.445824640644550740e+00
2.445824640644550740e+00
2.494763634144108178e+00
2.532077272865993045e+00
2.532077272865993045e+00
2.535452375865963059e+00
2.535452375865963059e+00
2.553077913754691952e+00
2.551015350810266202e+00
2.551015350810266202e+00
2.499826288644062977e+00
2.499826288644062977e+00
2.470762901699881109e+00
2.450887295144505096e+00
2.450887295144505096e+00
2.465887752922147680e+00
2.465887752922147680e+00
2.474888027588732609e+00
2.458762535477767130e+00
2.458762535477767130e+00
2.447699697866756008e+00
2.433824274422437206e+00
2.433824274422437206e+00
2.464012695699941968e+00
2.464012695699941968e+00
2.532264778588213971e+00
2.546890224921415147e+00
2.546890224921415147e+00
2.525139561143833866e+00
2.525139561143833866e+00
2.539765007477034597e+00
2.530389721366008260e+00
2.530389721366008260e+00
2.485200842310861358e+00
2.485200842310861358e+00
2.480325693533127485e+00
2.458762535477767130e+00
2.458762535477767130e+00
2.452574846644489881e+00
2.417323770867030763e+00
2.417323770867030763e+00
2.448824732200079346e+00
2.448824732200079346e+00
2.466637775811029609e+00
2.416386242255928352e+00
2.416386242255928352e+00
2.452012329477828434e+00
2.520076906643879511e+00
2.520076906643879511e+00
2.533014801477095901e+00
2.533014801477095901e+00
2.544452650532547988e+00
2.573516037476729856e+00
2.573516037476729856e+00
2.539952513199255080e+00
2.539952513199255080e+00
2.483138279366435608e+00
2.483888302255317981e+00
2.483888302255317981e+00
2.456512466811120898e+00
2.456512466811120898e+00
2.439261940366832526e+00
2.441324503311258276e+00
2.441324503311258276e+00
2.455574938200018487e+00
2.451449812311166987e+00
2.451449812311166987e+00
2.437199377422406776e+00
2.437199377422406776e+00
2.473387981810968306e+00
2.501138828699606353e+00
2.501138828699606353e+00
2.527202124088259172e+00
2.527202124088259172e+00
2.532077272865993045e+00
2.539577501754814115e+00
2.539577501754814115e+00
2.520639423810540958e+00
2.520639423810540958e+00
2.501888851588488727e+00
2.482200750755333196e+00
2.482200750755333196e+00
2.455574938200018487e+00
2.455574938200018487e+00
2.455574938200018487e+00
2.456137455366679934e+00
2.456137455366679934e+00
2.457074983977782345e+00
2.442262031922361132e+00
2.442262031922361132e+00
2.437574388866847741e+00
2.437574388866847741e+00
2.513139194921720332e+00
2.552515396588030505e+00
2.552515396588030505e+00
2.534514847254860204e+00
2.534514847254860204e+00
2.532639790032654936e+00
2.506576494644001674e+00
2.506576494644001674e+00
2.474888027588732609e+00
2.474888027588732609e+00
2.474325510422071162e+00
2.455949949644459451e+00
2.455949949644459451e+00
2.453699880977813219e+00
2.451637318033387469e+00
2.451637318033387469e+00
2.462887661366619074e+00
2.462887661366619074e+00
2.473950498977630197e+00
2.454262398144474666e+00
2.454262398144474666e+00
2.471137913144322074e+00
2.471137913144322074e+00
2.515389263588366120e+00
2.532264778588213971e+00
2.532264778588213971e+00
2.538264961699270739e+00
2.538264961699270739e+00
2.558515579699087716e+00
2.535452375865963059e+00
2.535452375865963059e+00
2.493263588366343875e+00
2.464387707144383377e+00
2.464387707144383377e+00
2.435886837366862956e+00
2.435886837366862956e+00
2.455387432477798004e+00
2.471700430310983521e+00
2.471700430310983521e+00
2.464762718588824342e+00
2.464762718588824342e+00
2.472450453199865894e+00
2.431761711478011456e+00
2.431761711478011456e+00
2.439449446089053009e+00
2.439449446089053009e+00
2.491201025421918569e+00
2.525702078310495757e+00
2.525702078310495757e+00
2.519139378032776655e+00
2.519139378032776655e+00
2.539765007477034597e+00
2.524577043977172419e+00
2.524577043977172419e+00
2.477888119144261214e+00
2.480513199255348411e+00
2.480513199255348411e+00
2.473012970366527341e+00
2.473012970366527341e+00
2.480700704977568893e+00
2.477700613422040732e+00
2.477700613422040732e+00
2.475825556199835464e+00
2.475825556199835464e+00
2.460825098422192880e+00
2.447699697866756008e+00
2.447699697866756008e+00
2.500013794366283459e+00
2.500013794366283459e+00
2.534889858699301168e+00
2.521389446699423331e+00
2.521389446699423331e+00
2.513326700643940814e+00
2.513326700643940814e+00
2.517264320810571387e+00
2.509576586199530279e+00
2.509576586199530279e+00
2.498888760032960121e+00
2.468512833033234433e+00
2.468512833033234433e+00
2.424261482589190386e+00
2.424261482589190386e+00
2.435136814477980582e+00
2.448074709311197417e+00
2.448074709311197417e+00
2.466450270088809127e+00
2.444324594866786882e+00
2.444324594866786882e+00
2.443762077700125435e+00
2.483700796533097499e+00
2.483700796533097499e+00
2.515389263588366120e+00
2.537139927365947845e+00
2.537139927365947845e+00
2.559078096865749163e+00
2.559078096865749163e+00
2.522326975310525743e+00
2.474513016144291644e+00
2.474513016144291644e+00
2.458387524033326166e+00
2.445449629200109776e+00
2.445449629200109776e+00
2.450137272255623166e+00
2.450137272255623166e+00
2.458762535477767130e+00
2.455949949644459451e+00
2.455949949644459451e+00
2.468325327311013950e+00
2.468325327311013950e+00
2.453887386700033701e+00
2.479388164922025517e+00
2.479388164922025517e+00
2.521201940977202849e+00
2.521201940977202849e+00
2.536202398754844989e+00
2.540140018921475562e+00
2.540140018921475562e+00
2.544077639088107023e+00
2.499826288644062977e+00
2.499826288644062977e+00
2.477325601977599767e+00
2.477325601977599767e+00
2.476200567644276429e+00
2.479388164922025517e+00
2.479388164922025517e+00
2.487825922421948999e+00
2.487825922421948999e+00
2.473575487533188788e+00
2.467950315866573430e+00
2.467950315866573430e+00
2.452574846644489881e+00
2.452574846644489881e+00
2.429511642811365224e+00
2.462887661366619074e+00
2.462887661366619074e+00
2.512201666310617476e+00
2.542202581865901756e+00
2.542202581865901756e+00
2.530014709921567295e+00
2.530014709921567295e+00
2.522889492477187634e+00
2.508639057588427423e+00
2.508639057588427423e+00
2.484075807977538464e+00
2.479950682088686964e+00
2.479950682088686964e+00
2.480513199255348411e+00
2.480700704977568893e+00
2.480700704977568893e+00
2.469637867366557771e+00
2.469637867366557771e+00
2.446574663533433114e+00
2.404010864589373409e+00
2.404010864589373409e+00
2.399885738700521909e+00
2.399885738700521909e+00
2.458387524033326166e+00
2.508264046143986459e+00
2.508264046143986459e+00
2.521201940977202849e+00
2.559265602587969646e+00
2.559265602587969646e+00
2.541077547532578418e+00
2.541077547532578418e+00
2.504326425977354997e+00
2.492513565477461945e+00
2.492513565477461945e+00
2.474138004699850679e+00
2.474138004699850679e+00
2.458762535477767130e+00
2.464575212866603859e+00
2.464575212866603859e+00
2.463262672811060039e+00
2.463262672811060039e+00
2.470012878810998735e+00
2.448262215033417899e+00
2.448262215033417899e+00
2.457262489700002828e+00
2.506951506088442638e+00
2.506951506088442638e+00
2.538452467421491221e+00
2.538452467421491221e+00
2.524577043977172419e+00
2.519326883754997581e+00
2.519326883754997581e+00
2.508451551866206941e+00
2.508451551866206941e+00
2.474700521866512126e+00
2.465325235755485789e+00
2.465325235755485789e+00
2.467575304422132465e+00
2.434949308755760100e+00
2.434949308755760100e+00
2.426886562700277583e+00
2.426886562700277583e+00
2.437011871700186294e+00
2.443199560533463544e+00
2.443199560533463544e+00
2.443762077700125435e+00
2.443762077700125435e+00
2.471137913144322074e+00
2.537139927365947845e+00
2.537139927365947845e+00
2.545952696310312291e+00
2.545952696310312291e+00
2.557015533921323414e+00
2.567328348643452163e+00
2.567328348643452163e+00
2.532452284310434454e+00
2.497013702810754854e+00
2.497013702810754854e+00
2.487450910977508034e+00
2.487450910977508034e+00
2.469075350199895880e+00
2.471325418866542556e+00
2.471325418866542556e+00
2.461200109866634289e+00
2.461200109866634289e+00
2.449199743644520311e+00
