2.482388256477553679e+00
2.482388256477553679e+00
2.450887295144505096e+00
2.450887295144505096e+00
2.450887295144505096e+00
2.485388348033082284e+00
2.485388348033082284e+00
2.485388348033082284e+00
2.516514297921689458e+00
2.516514297921689458e+00
2.516514297921689458e+00
2.516514297921689458e+00
2.511076631977294138e+00
2.511076631977294138e+00
2.511076631977294138e+00
2.491388531144139051e+00
2.491388531144139051e+00
2.491388531144139051e+00
2.491388531144139051e+00
2.450137272255623166e+00
2.450137272255623166e+00
2.450137272255623166e+00
2.429136631366924259e+00
2.429136631366924259e+00
2.429136631366924259e+00
2.429136631366924259e+00
2.482200750755333196e+00
2.482200750755333196e+00
2.482200750755333196e+00
2.494201116977446731e+00
2.494201116977446731e+00
2.494201116977446731e+00
2.517826837977233279e+00
2.517826837977233279e+00
2.517826837977233279e+00
2.517826837977233279e+00
2.539202490310373150e+00
2.539202490310373150e+00
2.539202490310373150e+00
2.534139835810419239e+00
2.534139835810419239e+00
2.534139835810419239e+00
2.534139835810419239e+00
2.503388897366253030e+00
2.503388897366253030e+00
2.503388897366253030e+00
2.487263405255287552e+00
2.487263405255287552e+00
2.487263405255287552e+00
2.487263405255287552e+00
2.461950132755516218e+00
2.461950132755516218e+00
2.461950132755516218e+00
2.470575395977660182e+00
2.470575395977660182e+00
2.470575395977660182e+00
2.475075533310953091e+00
2.475075533310953091e+00
2.475075533310953091e+00
2.475075533310953091e+00
2.452199835200048916e+00
2.452199835200048916e+00
2.452199835200048916e+00
2.458575029755546648e+00
2.458575029755546648e+00
2.458575029755546648e+00
2.458575029755546648e+00
2.466637775811029609e+00
2.466637775811029609e+00
2.466637775811029609e+00
2.488575945310831372e+00
2.488575945310831372e+00
2.488575945310831372e+00
2.538077455977050256e+00
2.538077455977050256e+00
2.538077455977050256e+00
2.538077455977050256e+00
2.551390362254707167e+00
2.551390362254707167e+00
2.551390362254707167e+00
2.551015350810266202e+00
2.551015350810266202e+00
2.551015350810266202e+00
2.551015350810266202e+00
2.543515121921445576e+00
2.543515121921445576e+00
2.543515121921445576e+00
2.495701162755211033e+00
2.495701162755211033e+00
2.495701162755211033e+00
2.495701162755211033e+00
2.470200384533219218e+00
2.470200384533219218e+00
2.467950315866573430e+00
2.467950315866573430e+00
2.467950315866573430e+00
2.469825373088778253e+00
2.469825373088778253e+00
2.469825373088778253e+00
2.469825373088778253e+00
2.465887752922147680e+00
2.465887752922147680e+00
2.465887752922147680e+00
2.455762443922238969e+00
2.455762443922238969e+00
2.455762443922238969e+00
2.455762443922238969e+00
2.446387157811212187e+00
2.446387157811212187e+00
2.446387157811212187e+00
2.470950407422101591e+00
2.470950407422101591e+00
2.470950407422101591e+00
2.464762718588824342e+00
2.464762718588824342e+00
2.464762718588824342e+00
2.464762718588824342e+00
2.487825922421948999e+00
2.487825922421948999e+00
2.487825922421948999e+00
2.509764091921750762e+00
2.509764091921750762e+00
2.509764091921750762e+00
2.509764091921750762e+00
2.533014801477095901e+00
2.533014801477095901e+00
2.533014801477095901e+00
2.564328257087923557e+00
2.564328257087923557e+00
2.564328257087923557e+00
2.575203588976714197e+00
2.575203588976714197e+00
2.575203588976714197e+00
2.575203588976714197e+00
2.523076998199408116e+00
2.523076998199408116e+00
2.523076998199408116e+00
2.490263496810816157e+00
2.490263496810816157e+00
2.490263496810816157e+00
2.442637043366802097e+00
2.442637043366802097e+00
2.442637043366802097e+00
2.442637043366802097e+00
2.417698782311472172e+00
2.417698782311472172e+00
2.417698782311472172e+00
2.409073519089327764e+00
2.409073519089327764e+00
2.409073519089327764e+00
2.409073519089327764e+00
2.419386333811456957e+00
2.419386333811456957e+00
2.419386333811456957e+00
2.419948850978118404e+00
2.419948850978118404e+00
2.419948850978118404e+00
2.429136631366924259e+00
2.429136631366924259e+00
2.429136631366924259e+00
2.429136631366924259e+00
2.416573747978148834e+00
2.416573747978148834e+00
2.416573747978148834e+00
2.494576128421887695e+00
2.494576128421887695e+00
2.494576128421887695e+00
2.494576128421887695e+00
2.528514664143802992e+00
2.528514664143802992e+00
2.528514664143802992e+00
2.529827204199346813e+00
2.529827204199346813e+00
2.529827204199346813e+00
2.552515396588030505e+00
2.552515396588030505e+00
2.552515396588030505e+00
2.552515396588030505e+00
2.561515671254616322e+00
2.561515671254616322e+00
2.561515671254616322e+00
2.519139378032776655e+00
2.519139378032776655e+00
2.519139378032776655e+00
2.519139378032776655e+00
2.463825189977721486e+00
2.463825189977721486e+00
2.463825189977721486e+00
2.420323862422559369e+00
2.420323862422559369e+00
2.420323862422559369e+00
2.420323862422559369e+00
2.415448713644825496e+00
2.415448713644825496e+00
2.415448713644825496e+00
2.434949308755760100e+00
2.434949308755760100e+00
2.434949308755760100e+00
2.467012787255470574e+00
2.467012787255470574e+00
2.467012787255470574e+00
2.467012787255470574e+00
2.478450636310922661e+00
2.478450636310922661e+00
2.478450636310922661e+00
2.460825098422192880e+00
2.460825098422192880e+00
2.460825098422192880e+00
2.463637684255501004e+00
2.463637684255501004e+00
2.463637684255501004e+00
2.463637684255501004e+00
2.503388897366253030e+00
2.503388897366253030e+00
2.503388897366253030e+00
2.534889858699301168e+00
2.534889858699301168e+00
2.534889858699301168e+00
2.534889858699301168e+00
2.560015625476852019e+00
2.560015625476852019e+00
2.560015625476852019e+00
2.562265694143497807e+00
2.562265694143497807e+00
2.562265694143497807e+00
2.561703176976836804e+00
2.561703176976836804e+00
2.561703176976836804e+00
2.561703176976836804e+00
2.515014252143925599e+00
2.515014252143925599e+00
2.515014252143925599e+00
2.475638050477614982e+00
2.475638050477614982e+00
2.475638050477614982e+00
2.475638050477614982e+00
2.449199743644520311e+00
2.449199743644520311e+00
2.449199743644520311e+00
2.440386974700155864e+00
2.440386974700155864e+00
2.440386974700155864e+00
2.453887386700033701e+00
2.453887386700033701e+00
2.453887386700033701e+00
2.453887386700033701e+00
2.455574938200018487e+00
2.455574938200018487e+00
2.455574938200018487e+00
2.458950041199987613e+00
2.458950041199987613e+00
2.458950041199987613e+00
2.458950041199987613e+00
2.443574571977904952e+00
2.443574571977904952e+00
2.443574571977904952e+00
2.440199468977935382e+00
2.440199468977935382e+00
2.440199468977935382e+00
2.477325601977599767e+00
2.477325601977599767e+00
2.477325601977599767e+00
2.477325601977599767e+00
2.492513565477461945e+00
2.492513565477461945e+00
2.492513565477461945e+00
2.504701437421796406e+00
2.504701437421796406e+00
2.504701437421796406e+00
2.537327433088168327e+00
2.537327433088168327e+00
2.537327433088168327e+00
2.537327433088168327e+00
2.527952146977141545e+00
2.527952146977141545e+00
2.527952146977141545e+00
2.494013611255226248e+00
2.494013611255226248e+00
2.494013611255226248e+00
2.497951231421857266e+00
2.497951231421857266e+00
2.497951231421857266e+00
2.497951231421857266e+00
2.488950956755272337e+00
2.488950956755272337e+00
2.488950956755272337e+00
2.471137913144322074e+00
2.471137913144322074e+00
2.471137913144322074e+00
2.471137913144322074e+00
2.455949949644459451e+00
2.455949949644459451e+00
2.455949949644459451e+00
2.464012695699941968e+00
2.464012695699941968e+00
2.464012695699941968e+00
2.464012695699941968e+00
2.448074709311197417e+00
2.448074709311197417e+00
2.448074709311197417e+00
2.449199743644520311e+00
2.449199743644520311e+00
2.449199743644520311e+00
2.479013153477584552e+00
2.479013153477584552e+00
2.479013153477584552e+00
2.479013153477584552e+00
2.514639240699484635e+00
2.514639240699484635e+00
2.514639240699484635e+00
2.523452009643849081e+00
2.523452009643849081e+00
2.523452009643849081e+00
2.523452009643849081e+00
2.536389904477065471e+00
2.536389904477065471e+00
2.536389904477065471e+00
2.542765099032563203e+00
2.542765099032563203e+00
2.542765099032563203e+00
2.521201940977202849e+00
2.521201940977202849e+00
2.521201940977202849e+00
2.521201940977202849e+00
2.489325968199713301e+00
2.489325968199713301e+00
2.489325968199713301e+00
2.482763267921994643e+00
2.482763267921994643e+00
2.482763267921994643e+00
2.482763267921994643e+00
2.497388714255195818e+00
2.497388714255195818e+00
2.497388714255195818e+00
2.498326242866298674e+00
2.498326242866298674e+00
2.498326242866298674e+00
2.498326242866298674e+00
2.446387157811212187e+00
2.446387157811212187e+00
2.446387157811212187e+00
2.425011505478072316e+00
2.425011505478072316e+00
2.425011505478072316e+00
2.407010956144902014e+00
2.407010956144902014e+00
2.407010956144902014e+00
2.407010956144902014e+00
2.438699423200171079e+00
2.438699423200171079e+00
2.438699423200171079e+00
2.466825281533250092e+00
2.466825281533250092e+00
2.466825281533250092e+00
2.466825281533250092e+00
2.527014618366038690e+00
2.527014618366038690e+00
2.527014618366038690e+00
2.573891048921170377e+00
2.573891048921170377e+00
2.573891048921170377e+00
2.573891048921170377e+00
2.616079836420789118e+00
2.616079836420789118e+00
2.616079836420789118e+00
2.571640980254524589e+00
2.571640980254524589e+00
2.571640980254524589e+00
2.525139561143833866e+00
2.525139561143833866e+00
2.525139561143833866e+00
2.525139561143833866e+00
2.442074526200140649e+00
2.442074526200140649e+00
2.442074526200140649e+00
2.391447981200597983e+00
2.391447981200597983e+00
2.391447981200597983e+00
2.391447981200597983e+00
2.414698690755943566e+00
2.414698690755943566e+00
2.414698690755943566e+00
2.450512283700064131e+00
2.450512283700064131e+00
2.450512283700064131e+00
2.450512283700064131e+00
2.413011139255958781e+00
2.413011139255958781e+00
2.413011139255958781e+00
2.459700064088869986e+00
2.459700064088869986e+00
2.459700064088869986e+00
2.487075899533067069e+00
2.487075899533067069e+00
2.487075899533067069e+00
2.487075899533067069e+00
2.495513657032990551e+00
2.495513657032990551e+00
2.495513657032990551e+00
2.526827112643818651e+00
2.526827112643818651e+00
2.526827112643818651e+00
2.526827112643818651e+00
2.540140018921475562e+00
2.540140018921475562e+00
2.540140018921475562e+00
2.579703726310007106e+00
2.579703726310007106e+00
2.579703726310007106e+00
2.581203772087771409e+00
2.581203772087771409e+00
2.581203772087771409e+00
2.581203772087771409e+00
2.537889950254829774e+00
2.537889950254829774e+00
2.537889950254829774e+00
2.508264046143986459e+00
2.508264046143986459e+00
2.508264046143986459e+00
2.508264046143986459e+00
2.451637318033387469e+00
2.451637318033387469e+00
2.451637318033387469e+00
2.457449995422223310e+00
2.457449995422223310e+00
2.457449995422223310e+00
2.429886654255806189e+00
2.429886654255806189e+00
2.429886654255806189e+00
2.429886654255806189e+00
2.424823999755851833e+00
2.424823999755851833e+00
2.424823999755851833e+00
2.426324045533616136e+00
2.426324045533616136e+00
2.426324045533616136e+00
2.426324045533616136e+00
2.383385235145115466e+00
2.383385235145115466e+00
2.383385235145115466e+00
2.435699331644642474e+00
2.435699331644642474e+00
2.435699331644642474e+00
2.435699331644642474e+00
2.488388439588610446e+00
2.488388439588610446e+00
2.488388439588610446e+00
2.541077547532578418e+00
2.541077547532578418e+00
2.541077547532578418e+00
2.556078005310220558e+00
2.556078005310220558e+00
2.556078005310220558e+00
2.556078005310220558e+00
2.581016266365550926e+00
2.581016266365550926e+00
2.581016266365550926e+00
2.603516953032014136e+00
2.603516953032014136e+00
2.603516953032014136e+00
2.603516953032014136e+00
2.581391277809991891e+00
2.581391277809991891e+00
2.581391277809991891e+00
2.532264778588213971e+00
2.532264778588213971e+00
2.532264778588213971e+00
2.462137638477736701e+00
2.462137638477736701e+00
2.462137638477736701e+00
2.462137638477736701e+00
2.438511917477950597e+00
2.438511917477950597e+00
2.438511917477950597e+00
2.472450453199865894e+00
2.472450453199865894e+00
2.472450453199865894e+00
2.472450453199865894e+00
2.481825739310891787e+00
2.481825739310891787e+00
2.481825739310891787e+00
2.452387340922269399e+00
2.452387340922269399e+00
2.452387340922269399e+00
2.384510269478438804e+00
2.384510269478438804e+00
2.384510269478438804e+00
2.384510269478438804e+00
2.373259926145207199e+00
2.373259926145207199e+00
2.373259926145207199e+00
2.450699789422284613e+00
2.450699789422284613e+00
2.450699789422284613e+00
2.450699789422284613e+00
2.500388805810724424e+00
2.500388805810724424e+00
2.500388805810724424e+00
2.534327341532639721e+00
2.534327341532639721e+00
2.534327341532639721e+00
2.534327341532639721e+00
2.587016449476607249e+00
2.587016449476607249e+00
2.587016449476607249e+00
2.580828760643330444e+00
2.580828760643330444e+00
2.580828760643330444e+00
2.517826837977233279e+00
2.517826837977233279e+00
2.517826837977233279e+00
2.517826837977233279e+00
2.491388531144139051e+00
2.491388531144139051e+00
2.491388531144139051e+00
2.470387890255439700e+00
2.470387890255439700e+00
2.470387890255439700e+00
2.470387890255439700e+00
2.476950590533158358e+00
2.476950590533158358e+00
2.476950590533158358e+00
2.460637592699972398e+00
2.460637592699972398e+00
2.460637592699972398e+00
2.471137913144322074e+00
2.471137913144322074e+00
2.471137913144322074e+00
2.471137913144322074e+00
2.471700430310983521e+00
2.471700430310983521e+00
2.471700430310983521e+00
2.451449812311166987e+00
2.451449812311166987e+00
2.451449812311166987e+00
2.451449812311166987e+00
2.434199285866878171e+00
2.434199285866878171e+00
2.434199285866878171e+00
2.456137455366679934e+00
2.456137455366679934e+00
2.456137455366679934e+00
2.507701528977324568e+00
2.507701528977324568e+00
2.507701528977324568e+00
2.507701528977324568e+00
2.535264870143742133e+00
2.535264870143742133e+00
2.535264870143742133e+00
2.597141758476516404e+00
2.597141758476516404e+00
2.597141758476516404e+00
2.597141758476516404e+00
2.596016724143193066e+00
2.596016724143193066e+00
2.596016724143193066e+00
2.565078279976805931e+00
2.565078279976805931e+00
2.565078279976805931e+00
2.526639606921598169e+00
2.526639606921598169e+00
2.526639606921598169e+00
2.526639606921598169e+00
2.499826288644062977e+00
2.499826288644062977e+00
2.499826288644062977e+00
2.485200842310861358e+00
2.485200842310861358e+00
2.485200842310861358e+00
2.485200842310861358e+00
2.438511917477950597e+00
2.438511917477950597e+00
2.438511917477950597e+00
2.363697134311959935e+00
2.363697134311959935e+00
2.363697134311959935e+00
2.363697134311959935e+00
2.360697042756431774e+00
2.360697042756431774e+00
2.360697042756431774e+00
2.394260567033906106e+00
2.394260567033906106e+00
2.394260567033906106e+00
2.448824732200079346e+00
2.448824732200079346e+00
2.448824732200079346e+00
2.448824732200079346e+00
2.524577043977172419e+00
2.524577043977172419e+00
2.524577043977172419e+00
2.561140659810174913e+00
2.561140659810174913e+00
2.561140659810174913e+00
2.561140659810174913e+00
2.548952787865840897e+00
2.548952787865840897e+00
2.548952787865840897e+00
2.554577959532456255e+00
2.554577959532456255e+00
2.554577959532456255e+00
2.554577959532456255e+00
2.511264137699515064e+00
2.511264137699515064e+00
2.511264137699515064e+00
2.517451826532791870e+00
2.517451826532791870e+00
2.517451826532791870e+00
2.510701620532853173e+00
2.510701620532853173e+00
2.510701620532853173e+00
2.510701620532853173e+00
2.483700796533097499e+00
2.483700796533097499e+00
2.483700796533097499e+00
2.494013611255226248e+00
2.494013611255226248e+00
2.494013611255226248e+00
2.494013611255226248e+00
2.475075533310953091e+00
2.475075533310953091e+00
2.475075533310953091e+00
2.480700704977568893e+00
2.480700704977568893e+00
2.480700704977568893e+00
2.480700704977568893e+00
2.481450727866450823e+00
2.481450727866450823e+00
2.481450727866450823e+00
2.459325052644428578e+00
2.459325052644428578e+00
2.459325052644428578e+00
2.499263771477401086e+00
2.499263771477401086e+00
2.499263771477401086e+00
2.499263771477401086e+00
2.532264778588213971e+00
2.532264778588213971e+00
2.532264778588213971e+00
2.545952696310312291e+00
2.545952696310312291e+00
2.545952696310312291e+00
2.545952696310312291e+00
2.553265419476912879e+00
2.553265419476912879e+00
2.553265419476912879e+00
2.542390087588122238e+00
2.542390087588122238e+00
2.542390087588122238e+00
2.542390087588122238e+00
2.487263405255287552e+00
2.487263405255287552e+00
2.487263405255287552e+00
2.501513840144047762e+00
2.501513840144047762e+00
2.501513840144047762e+00
2.475825556199835464e+00
2.475825556199835464e+00
2.475825556199835464e+00
2.475825556199835464e+00
2.448637226477858864e+00
2.448637226477858864e+00
2.448637226477858864e+00
2.493638599810785283e+00
2.493638599810785283e+00
2.493638599810785283e+00
2.493638599810785283e+00
2.506764000366222156e+00
2.506764000366222156e+00
2.506764000366222156e+00
2.520639423810540958e+00
2.520639423810540958e+00
2.520639423810540958e+00
2.520639423810540958e+00
2.558140568254646752e+00
2.558140568254646752e+00
2.558140568254646752e+00
2.522889492477187634e+00
2.522889492477187634e+00
2.522889492477187634e+00
2.498888760032960121e+00
2.498888760032960121e+00
2.498888760032960121e+00
2.498888760032960121e+00
2.498138737144077748e+00
2.498138737144077748e+00
2.498138737144077748e+00
2.429699148533585706e+00
2.429699148533585706e+00
2.429699148533585706e+00
2.429699148533585706e+00
2.433261757255775315e+00
2.433261757255775315e+00
2.433261757255775315e+00
2.484450819421979428e+00
2.484450819421979428e+00
2.484450819421979428e+00
2.478263130588702179e+00
2.478263130588702179e+00
2.478263130588702179e+00
2.478263130588702179e+00
2.459137546922208095e+00
2.459137546922208095e+00
2.459137546922208095e+00
2.496076174199651998e+00
2.496076174199651998e+00
2.496076174199651998e+00
2.477700613422040732e+00
2.477700613422040732e+00
2.477700613422040732e+00
2.477700613422040732e+00
2.507701528977324568e+00
2.507701528977324568e+00
2.507701528977324568e+00
2.518576860866115208e+00
2.518576860866115208e+00
2.518576860866115208e+00
2.518576860866115208e+00
2.522514481032746669e+00
2.522514481032746669e+00
2.522514481032746669e+00
2.502076357310709209e+00
2.502076357310709209e+00
2.502076357310709209e+00
2.502076357310709209e+00
2.520076906643879511e+00
2.520076906643879511e+00
2.520076906643879511e+00
2.569953428754539804e+00
2.569953428754539804e+00
2.569953428754539804e+00
2.490451002533036640e+00
2.490451002533036640e+00
2.490451002533036640e+00
2.490451002533036640e+00
2.522701986754967152e+00
2.522701986754967152e+00
2.522701986754967152e+00
2.549140293588061379e+00
2.549140293588061379e+00
2.549140293588061379e+00
2.549140293588061379e+00
2.497013702810754854e+00
2.497013702810754854e+00
2.497013702810754854e+00
2.481638233588671305e+00
2.481638233588671305e+00
2.481638233588671305e+00
2.481638233588671305e+00
2.478638142033143144e+00
2.478638142033143144e+00
2.478638142033143144e+00
2.437199377422406776e+00
2.437199377422406776e+00
2.437199377422406776e+00
2.429699148533585706e+00
2.429699148533585706e+00
2.429699148533585706e+00
2.429699148533585706e+00
2.503951414532914033e+00
2.503951414532914033e+00
2.503951414532914033e+00
2.488013428144169481e+00
2.488013428144169481e+00
2.488013428144169481e+00
2.488013428144169481e+00
2.397823175756096159e+00
2.397823175756096159e+00
2.397823175756096159e+00
2.386760338145085036e+00
2.386760338145085036e+00
2.386760338145085036e+00
2.386760338145085036e+00
2.534327341532639721e+00
2.534327341532639721e+00
2.534327341532639721e+00
2.572015991698965554e+00
2.572015991698965554e+00
2.572015991698965554e+00
2.624142582476271635e+00
2.624142582476271635e+00
2.624142582476271635e+00
2.624142582476271635e+00
2.533389812921536866e+00
2.533389812921536866e+00
2.533389812921536866e+00
2.523076998199408116e+00
2.523076998199408116e+00
2.523076998199408116e+00
2.523076998199408116e+00
2.554765465254677181e+00
2.554765465254677181e+00
2.554765465254677181e+00
2.476575579088717394e+00
2.476575579088717394e+00
2.476575579088717394e+00
2.476575579088717394e+00
2.448637226477858864e+00
2.448637226477858864e+00
2.448637226477858864e+00
2.460075075533310951e+00
2.460075075533310951e+00
2.460075075533310951e+00
2.487450910977508034e+00
2.487450910977508034e+00
2.487450910977508034e+00
2.487450910977508034e+00
2.477325601977599767e+00
2.477325601977599767e+00
2.477325601977599767e+00
2.496076174199651998e+00
2.496076174199651998e+00
2.496076174199651998e+00
2.496076174199651998e+00
2.437199377422406776e+00
2.437199377422406776e+00
2.437199377422406776e+00
2.414886196478164049e+00
2.414886196478164049e+00
2.414886196478164049e+00
2.545765190588091809e+00
2.545765190588091809e+00
2.545765190588091809e+00
2.545765190588091809e+00
2.530014709921567295e+00
2.530014709921567295e+00
2.530014709921567295e+00
2.443574571977904952e+00
2.443574571977904952e+00
2.443574571977904952e+00
2.443574571977904952e+00
2.449199743644520311e+00
2.449199743644520311e+00
2.449199743644520311e+00
2.488950956755272337e+00
2.488950956755272337e+00
2.488950956755272337e+00
2.462325144199957183e+00
2.462325144199957183e+00
2.462325144199957183e+00
2.462325144199957183e+00
2.493826105533005766e+00
2.493826105533005766e+00
2.493826105533005766e+00
2.562453199865718290e+00
2.562453199865718290e+00
2.562453199865718290e+00
2.562453199865718290e+00
2.576516129032258018e+00
2.576516129032258018e+00
2.576516129032258018e+00
2.548577776421399932e+00
2.548577776421399932e+00
2.548577776421399932e+00
2.548577776421399932e+00
2.491951048310800498e+00
2.491951048310800498e+00
2.491951048310800498e+00
2.468325327311013950e+00
2.468325327311013950e+00
2.468325327311013950e+00
2.462887661366619074e+00
2.462887661366619074e+00
2.462887661366619074e+00
2.462887661366619074e+00
2.492888576921902910e+00
2.492888576921902910e+00
2.492888576921902910e+00
2.507889034699545494e+00
2.507889034699545494e+00
2.507889034699545494e+00
2.507889034699545494e+00
2.493263588366343875e+00
2.493263588366343875e+00
2.493263588366343875e+00
2.526077089754936722e+00
2.526077089754936722e+00
2.526077089754936722e+00
2.526077089754936722e+00
2.508639057588427423e+00
2.508639057588427423e+00
2.508639057588427423e+00
2.509951597643971244e+00
2.509951597643971244e+00
2.509951597643971244e+00
2.555327982421338628e+00
2.555327982421338628e+00
2.555327982421338628e+00
2.555327982421338628e+00
2.579703726310007106e+00
2.579703726310007106e+00
2.579703726310007106e+00
2.541640064699239865e+00
2.541640064699239865e+00
2.541640064699239865e+00
2.541640064699239865e+00
2.467387798699911539e+00
2.467387798699911539e+00
2.467387798699911539e+00
2.444324594866786882e+00
2.444324594866786882e+00
2.444324594866786882e+00
2.395948118533890892e+00
2.395948118533890892e+00
2.395948118533890892e+00
2.395948118533890892e+00
2.382822717978454019e+00
2.382822717978454019e+00
2.382822717978454019e+00
2.410573564867091623e+00
2.410573564867091623e+00
2.410573564867091623e+00
2.410573564867091623e+00
2.491951048310800498e+00
2.491951048310800498e+00
2.491951048310800498e+00
2.506764000366222156e+00
2.506764000366222156e+00
2.506764000366222156e+00
2.506764000366222156e+00
2.504326425977354997e+00
2.504326425977354997e+00
2.504326425977354997e+00
2.474888027588732609e+00
2.474888027588732609e+00
2.474888027588732609e+00
2.485013336588640875e+00
2.485013336588640875e+00
2.485013336588640875e+00
2.485013336588640875e+00
2.487263405255287552e+00
2.487263405255287552e+00
2.487263405255287552e+00
2.509576586199530279e+00
2.509576586199530279e+00
2.509576586199530279e+00
2.509576586199530279e+00
2.529264687032685366e+00
2.529264687032685366e+00
2.529264687032685366e+00
2.483138279366435608e+00
2.483138279366435608e+00
2.483138279366435608e+00
2.483138279366435608e+00
2.480325693533127485e+00
2.480325693533127485e+00
2.480325693533127485e+00
2.506576494644001674e+00
2.506576494644001674e+00
2.506576494644001674e+00
2.555140476699118146e+00
2.555140476699118146e+00
2.555140476699118146e+00
2.555140476699118146e+00
2.509576586199530279e+00
2.509576586199530279e+00
2.509576586199530279e+00
2.478450636310922661e+00
2.478450636310922661e+00
2.478450636310922661e+00
2.478450636310922661e+00
2.569015900143436948e+00
2.569015900143436948e+00
2.569015900143436948e+00
2.566953337199011198e+00
2.566953337199011198e+00
2.566953337199011198e+00
2.566953337199011198e+00
2.509951597643971244e+00
2.509951597643971244e+00
2.509951597643971244e+00
2.546515213476973738e+00
2.546515213476973738e+00
2.546515213476973738e+00
2.543140110477004168e+00
2.543140110477004168e+00
2.543140110477004168e+00
2.543140110477004168e+00
2.457262489700002828e+00
2.457262489700002828e+00
2.457262489700002828e+00
2.504513931699575480e+00
2.504513931699575480e+00
2.504513931699575480e+00
2.504513931699575480e+00
2.489325968199713301e+00
2.489325968199713301e+00
2.489325968199713301e+00
2.451824823755607952e+00
2.451824823755607952e+00
2.451824823755607952e+00
2.521951963866084778e+00
2.521951963866084778e+00
2.521951963866084778e+00
2.521951963866084778e+00
2.514826746421705117e+00
2.514826746421705117e+00
2.514826746421705117e+00
2.542202581865901756e+00
2.542202581865901756e+00
2.542202581865901756e+00
2.542202581865901756e+00
2.459325052644428578e+00
2.459325052644428578e+00
2.459325052644428578e+00
2.421823908200323228e+00
2.421823908200323228e+00
2.421823908200323228e+00
2.421823908200323228e+00
2.468700338755454915e+00
2.468700338755454915e+00
2.468700338755454915e+00
2.560765648365733949e+00
2.560765648365733949e+00
2.560765648365733949e+00
2.545952696310312291e+00
2.545952696310312291e+00
2.545952696310312291e+00
2.545952696310312291e+00
2.513326700643940814e+00
2.513326700643940814e+00
2.513326700643940814e+00
2.464012695699941968e+00
2.464012695699941968e+00
2.464012695699941968e+00
2.464012695699941968e+00
2.390885464033936536e+00
2.390885464033936536e+00
2.390885464033936536e+00
2.428199102755821404e+00
2.428199102755821404e+00
2.428199102755821404e+00
2.462325144199957183e+00
2.462325144199957183e+00
2.462325144199957183e+00
2.462325144199957183e+00
2.481263222144230340e+00
2.481263222144230340e+00
2.481263222144230340e+00
2.455574938200018487e+00
2.455574938200018487e+00
2.455574938200018487e+00
2.455574938200018487e+00
2.419011322367015993e+00
2.419011322367015993e+00
2.419011322367015993e+00
2.481075716422009858e+00
2.481075716422009858e+00
2.481075716422009858e+00
2.481075716422009858e+00
2.427824091311380439e+00
2.427824091311380439e+00
2.427824091311380439e+00
2.406823450422681532e+00
2.406823450422681532e+00
2.406823450422681532e+00
2.519701895199438546e+00
2.519701895199438546e+00
2.519701895199438546e+00
2.519701895199438546e+00
2.552140385143589540e+00
2.552140385143589540e+00
2.552140385143589540e+00
2.595641712698752102e+00
2.595641712698752102e+00
2.595641712698752102e+00
2.595641712698752102e+00
2.654143498031556359e+00
2.654143498031556359e+00
2.654143498031556359e+00
2.630892788476211219e+00
2.630892788476211219e+00
2.630892788476211219e+00
2.630892788476211219e+00
2.537702444532609292e+00
2.537702444532609292e+00
2.537702444532609292e+00
2.565265785699026413e+00
2.565265785699026413e+00
2.565265785699026413e+00
2.525327066866054349e+00
2.525327066866054349e+00
2.525327066866054349e+00
2.525327066866054349e+00
2.445262123477889293e+00
2.445262123477889293e+00
2.445262123477889293e+00
2.451824823755607952e+00
2.451824823755607952e+00
2.451824823755607952e+00
2.451824823755607952e+00
2.410761070589312105e+00
2.410761070589312105e+00
2.410761070589312105e+00
2.392948026978362286e+00
2.392948026978362286e+00
2.392948026978362286e+00
2.431011688589129527e+00
2.431011688589129527e+00
2.431011688589129527e+00
2.431011688589129527e+00
2.469262855922116806e+00
2.469262855922116806e+00
2.469262855922116806e+00
2.476200567644276429e+00
2.476200567644276429e+00
2.476200567644276429e+00
2.476200567644276429e+00
2.496263679921872480e+00
2.496263679921872480e+00
2.496263679921872480e+00
2.543327616199224650e+00
2.543327616199224650e+00
2.543327616199224650e+00
2.543327616199224650e+00
2.559265602587969646e+00
2.559265602587969646e+00
2.559265602587969646e+00
2.572578508865627445e+00
2.572578508865627445e+00
2.572578508865627445e+00
2.637267983031708951e+00
2.637267983031708951e+00
2.637267983031708951e+00
2.637267983031708951e+00
2.529264687032685366e+00
2.529264687032685366e+00
2.529264687032685366e+00
2.516326792199468976e+00
2.516326792199468976e+00
2.516326792199468976e+00
2.516326792199468976e+00
2.485950865199743731e+00
2.485950865199743731e+00
2.485950865199743731e+00
2.430824182866909045e+00
2.430824182866909045e+00
2.430824182866909045e+00
2.424261482589190386e+00
2.424261482589190386e+00
2.424261482589190386e+00
2.424261482589190386e+00
2.381322672200689716e+00
2.381322672200689716e+00
2.381322672200689716e+00
2.391447981200597983e+00
2.391447981200597983e+00
2.391447981200597983e+00
2.391447981200597983e+00
2.396510635700552783e+00
2.396510635700552783e+00
2.396510635700552783e+00
2.385260292367321178e+00
2.385260292367321178e+00
2.385260292367321178e+00
2.385260292367321178e+00
2.425386516922513280e+00
2.425386516922513280e+00
2.425386516922513280e+00
2.554577959532456255e+00
2.554577959532456255e+00
2.554577959532456255e+00
2.595266701254311137e+00
2.595266701254311137e+00
2.595266701254311137e+00
2.595266701254311137e+00
2.587766472365489623e+00
2.587766472365489623e+00
2.587766472365489623e+00
2.506013977477339782e+00
2.506013977477339782e+00
2.506013977477339782e+00
2.506013977477339782e+00
2.555140476699118146e+00
2.555140476699118146e+00
2.555140476699118146e+00
2.529264687032685366e+00
2.529264687032685366e+00
2.529264687032685366e+00
2.529264687032685366e+00
2.424823999755851833e+00
2.424823999755851833e+00
2.424823999755851833e+00
2.433074251533554833e+00
2.433074251533554833e+00
2.433074251533554833e+00
2.470575395977660182e+00
2.470575395977660182e+00
2.470575395977660182e+00
2.470575395977660182e+00
2.423511459700308013e+00
2.423511459700308013e+00
2.423511459700308013e+00
2.450324777977843649e+00
2.450324777977843649e+00
2.450324777977843649e+00
2.450324777977843649e+00
2.485763359477523249e+00
2.485763359477523249e+00
2.485763359477523249e+00
2.366322214423047576e+00
2.366322214423047576e+00
2.366322214423047576e+00
2.357884456923124095e+00
2.357884456923124095e+00
2.357884456923124095e+00
2.357884456923124095e+00
2.551390362254707167e+00
2.551390362254707167e+00
2.551390362254707167e+00
2.597891781365397890e+00
2.597891781365397890e+00
2.597891781365397890e+00
2.597891781365397890e+00
2.649643360698263450e+00
2.649643360698263450e+00
2.649643360698263450e+00
2.680769310586870624e+00
2.680769310586870624e+00
2.680769310586870624e+00
2.680769310586870624e+00
2.649455854976042968e+00
2.649455854976042968e+00
2.649455854976042968e+00
2.544640156254768470e+00
2.544640156254768470e+00
2.544640156254768470e+00
2.361259559923093665e+00
2.361259559923093665e+00
2.361259559923093665e+00
2.361259559923093665e+00
2.276881984923856628e+00
2.276881984923856628e+00
2.276881984923856628e+00
2.285694753868221074e+00
2.285694753868221074e+00
2.285694753868221074e+00
2.285694753868221074e+00
2.382635212256233537e+00
2.382635212256233537e+00
2.382635212256233537e+00
2.645705740531632433e+00
2.645705740531632433e+00
2.645705740531632433e+00
2.645705740531632433e+00
2.795335306863612868e+00
2.795335306863612868e+00
2.795335306863612868e+00
2.650018372142704415e+00
2.650018372142704415e+00
2.650018372142704415e+00
2.546140202032532773e+00
2.546140202032532773e+00
2.546140202032532773e+00
2.546140202032532773e+00
2.518764366588335690e+00
2.518764366588335690e+00
2.518764366588335690e+00
2.378885097811823002e+00
2.378885097811823002e+00
2.378885097811823002e+00
2.378885097811823002e+00
2.286257271034882521e+00
2.286257271034882521e+00
2.286257271034882521e+00
2.267131687368389326e+00
2.267131687368389326e+00
2.267131687368389326e+00
2.341571459089938134e+00
2.341571459089938134e+00
2.341571459089938134e+00
2.341571459089938134e+00
2.598829309976500745e+00
2.598829309976500745e+00
2.598829309976500745e+00
2.633705374309518454e+00
2.633705374309518454e+00
2.633705374309518454e+00
2.633705374309518454e+00
2.651705923642689200e+00
2.651705923642689200e+00
2.651705923642689200e+00
2.622267525254066367e+00
2.622267525254066367e+00
2.622267525254066367e+00
2.541077547532578418e+00
2.541077547532578418e+00
2.541077547532578418e+00
2.541077547532578418e+00
2.421073885311441742e+00
2.421073885311441742e+00
2.421073885311441742e+00
2.353759331034272151e+00
2.353759331034272151e+00
2.353759331034272151e+00
2.353759331034272151e+00
2.213692556535538980e+00
2.213692556535538980e+00
2.213692556535538980e+00
2.358259468367565059e+00
2.358259468367565059e+00
2.358259468367565059e+00
2.358259468367565059e+00
2.435324320200201509e+00
2.435324320200201509e+00
2.435324320200201509e+00
2.689769585253456441e+00
2.689769585253456441e+00
2.689769585253456441e+00
2.660893704031495055e+00
2.660893704031495055e+00
2.660893704031495055e+00
2.660893704031495055e+00
2.557578051087984861e+00
2.557578051087984861e+00
2.557578051087984861e+00
2.552702902310250987e+00
2.552702902310250987e+00
2.552702902310250987e+00
2.552702902310250987e+00
2.513701712088381779e+00
2.513701712088381779e+00
2.513701712088381779e+00
2.454074892422254184e+00
2.454074892422254184e+00
2.454074892422254184e+00
2.454074892422254184e+00
2.481263222144230340e+00
2.481263222144230340e+00
2.481263222144230340e+00
2.518764366588335690e+00
2.518764366588335690e+00
2.518764366588335690e+00
2.508639057588427423e+00
2.508639057588427423e+00
2.508639057588427423e+00
2.508639057588427423e+00
2.480700704977568893e+00
2.480700704977568893e+00
2.480700704977568893e+00
2.474138004699850679e+00
2.474138004699850679e+00
2.474138004699850679e+00
2.474138004699850679e+00
2.460825098422192880e+00
2.460825098422192880e+00
2.460825098422192880e+00
2.378135074922940628e+00
2.378135074922940628e+00
2.378135074922940628e+00
2.560015625476852019e+00
2.560015625476852019e+00
2.560015625476852019e+00
2.560015625476852019e+00
2.510514114810632691e+00
2.510514114810632691e+00
2.510514114810632691e+00
2.357134434034241721e+00
2.357134434034241721e+00
2.357134434034241721e+00
2.357134434034241721e+00
2.424823999755851833e+00
2.424823999755851833e+00
2.424823999755851833e+00
2.560203131199072502e+00
2.560203131199072502e+00
2.560203131199072502e+00
2.560203131199072502e+00
2.586828943754386767e+00
2.586828943754386767e+00
2.586828943754386767e+00
2.462700155644398592e+00
2.462700155644398592e+00
2.462700155644398592e+00
2.458950041199987613e+00
2.458950041199987613e+00
2.458950041199987613e+00
2.458950041199987613e+00
2.456699972533341381e+00
2.456699972533341381e+00
2.456699972533341381e+00
2.486513382366405178e+00
2.486513382366405178e+00
2.486513382366405178e+00
2.486513382366405178e+00
2.530202215643787778e+00
2.530202215643787778e+00
2.530202215643787778e+00
2.477700613422040732e+00
2.477700613422040732e+00
2.477700613422040732e+00
2.539389996032593633e+00
2.539389996032593633e+00
2.539389996032593633e+00
2.539389996032593633e+00
2.519139378032776655e+00
2.519139378032776655e+00
2.519139378032776655e+00
2.372509903256325270e+00
2.372509903256325270e+00
2.372509903256325270e+00
2.372509903256325270e+00
2.411698599200414961e+00
2.411698599200414961e+00
2.411698599200414961e+00
2.510889126255073656e+00
2.510889126255073656e+00
2.510889126255073656e+00
2.520639423810540958e+00
2.520639423810540958e+00
2.520639423810540958e+00
2.520639423810540958e+00
2.662581255531479840e+00
2.662581255531479840e+00
2.662581255531479840e+00
2.701394940031129011e+00
2.701394940031129011e+00
2.701394940031129011e+00
2.701394940031129011e+00
2.655643543809320661e+00
2.655643543809320661e+00
2.655643543809320661e+00
2.516139286477248493e+00
2.516139286477248493e+00
2.516139286477248493e+00
2.516139286477248493e+00
2.417136265144810281e+00
2.417136265144810281e+00
2.417136265144810281e+00
2.282882168034912951e+00
2.282882168034912951e+00
2.282882168034912951e+00
2.226255439924313961e+00
2.226255439924313961e+00
2.226255439924313961e+00
2.226255439924313961e+00
2.395385601367229444e+00
2.395385601367229444e+00
2.395385601367229444e+00
2.528327158421582510e+00
2.528327158421582510e+00
2.528327158421582510e+00
2.528327158421582510e+00
2.577078646198919465e+00
2.577078646198919465e+00
2.577078646198919465e+00
2.536014893032624506e+00
2.536014893032624506e+00
2.536014893032624506e+00
2.536014893032624506e+00
2.620954985198522547e+00
2.620954985198522547e+00
2.620954985198522547e+00
2.640268074587237113e+00
2.640268074587237113e+00
2.640268074587237113e+00
2.611767204809717136e+00
2.611767204809717136e+00
2.611767204809717136e+00
2.611767204809717136e+00
2.582328806421094747e+00
2.582328806421094747e+00
2.582328806421094747e+00
2.521576952421643814e+00
2.521576952421643814e+00
2.521576952421643814e+00
2.521576952421643814e+00
2.374572466200750576e+00
2.374572466200750576e+00
2.374572466200750576e+00
2.251756218146305777e+00
2.251756218146305777e+00
2.251756218146305777e+00
2.282694662312692468e+00
2.282694662312692468e+00
2.282694662312692468e+00
2.282694662312692468e+00
2.425386516922513280e+00
2.425386516922513280e+00
2.425386516922513280e+00
2.473012970366527341e+00
2.473012970366527341e+00
2.473012970366527341e+00
2.473012970366527341e+00
2.600516861476485531e+00
2.600516861476485531e+00
2.600516861476485531e+00
2.608204596087527527e+00
2.608204596087527527e+00
2.608204596087527527e+00
2.608204596087527527e+00
2.530014709921567295e+00
2.530014709921567295e+00
2.530014709921567295e+00
2.488763451033051854e+00
2.488763451033051854e+00
2.488763451033051854e+00
2.515764275032807085e+00
2.515764275032807085e+00
2.515764275032807085e+00
2.515764275032807085e+00
2.533202307199316383e+00
2.533202307199316383e+00
2.533202307199316383e+00
2.482575762199774161e+00
2.482575762199774161e+00
2.482575762199774161e+00
2.482575762199774161e+00
2.683394390697958265e+00
2.683394390697958265e+00
2.683394390697958265e+00
2.647018280587176253e+00
2.647018280587176253e+00
2.647018280587176253e+00
2.425574022644734207e+00
2.425574022644734207e+00
2.425574022644734207e+00
2.425574022644734207e+00
2.297882625812555535e+00
2.297882625812555535e+00
2.297882625812555535e+00
2.314383129367961978e+00
2.314383129367961978e+00
2.314383129367961978e+00
2.314383129367961978e+00
2.392573015533921321e+00
2.392573015533921321e+00
2.392573015533921321e+00
2.565265785699026413e+00
2.565265785699026413e+00
2.565265785699026413e+00
2.565265785699026413e+00
2.649268349253822485e+00
2.649268349253822485e+00
2.649268349253822485e+00
2.492326059755241463e+00
2.492326059755241463e+00
2.492326059755241463e+00
2.496263679921872480e+00
2.496263679921872480e+00
2.496263679921872480e+00
2.496263679921872480e+00
2.286819788201544412e+00
2.286819788201544412e+00
2.286819788201544412e+00
2.429324137089144742e+00
2.429324137089144742e+00
2.429324137089144742e+00
2.429324137089144742e+00
2.545202673421430362e+00
2.545202673421430362e+00
2.534702352977080686e+00
2.534702352977080686e+00
2.534702352977080686e+00
2.492888576921902910e+00
2.492888576921902910e+00
2.492888576921902910e+00
2.591516586809900158e+00
2.591516586809900158e+00
2.591516586809900158e+00
2.591516586809900158e+00
2.573703543198950339e+00
2.573703543198950339e+00
2.573703543198950339e+00
2.422011413922543710e+00
2.422011413922543710e+00
2.422011413922543710e+00
2.500951322977385871e+00
2.500951322977385871e+00
2.500951322977385871e+00
2.500951322977385871e+00
2.627705191198462131e+00
2.627705191198462131e+00
2.627705191198462131e+00
2.563015717032380181e+00
2.563015717032380181e+00
2.563015717032380181e+00
2.563015717032380181e+00
2.488388439588610446e+00
2.488388439588610446e+00
2.488388439588610446e+00
2.365009674367503756e+00
2.365009674367503756e+00
2.365009674367503756e+00
2.365009674367503756e+00
2.198879604480116878e+00
2.198879604480116878e+00
2.198879604480116878e+00
2.361822077089755112e+00
2.361822077089755112e+00
2.361822077089755112e+00
2.567890865810114054e+00
2.567890865810114054e+00
2.567890865810114054e+00
2.567890865810114054e+00
2.659206152531510270e+00
2.659206152531510270e+00
2.659206152531510270e+00
2.685644459364604497e+00
2.685644459364604497e+00
2.685644459364604497e+00
2.685644459364604497e+00
2.483513290810876573e+00
2.483513290810876573e+00
2.483513290810876573e+00
2.364072145756401344e+00
2.364072145756401344e+00
2.364072145756401344e+00
2.321695852534562121e+00
2.321695852534562121e+00
2.321695852534562121e+00
2.321695852534562121e+00
2.432511734366893830e+00
2.432511734366893830e+00
2.432511734366893830e+00
2.571078463087863142e+00
2.571078463087863142e+00
2.571078463087863142e+00
2.571078463087863142e+00
2.598641804254280263e+00
2.598641804254280263e+00
2.598641804254280263e+00
2.568828394421216466e+00
2.568828394421216466e+00
2.568828394421216466e+00
2.568828394421216466e+00
2.566953337199011198e+00
2.566953337199011198e+00
2.566953337199011198e+00
2.635580431531724166e+00
2.635580431531724166e+00
2.635580431531724166e+00
2.654143498031556359e+00
2.654143498031556359e+00
2.654143498031556359e+00
2.654143498031556359e+00
2.607267067476424671e+00
2.607267067476424671e+00
2.607267067476424671e+00
2.507326517532883603e+00
2.507326517532883603e+00
2.507326517532883603e+00
2.507326517532883603e+00
2.514264229255043226e+00
2.514264229255043226e+00
2.514264229255043226e+00
2.440199468977935382e+00
2.440199468977935382e+00
2.440199468977935382e+00
2.381510177922910199e+00
2.381510177922910199e+00
2.381510177922910199e+00
2.381510177922910199e+00
2.388260383922848895e+00
2.388260383922848895e+00
2.388260383922848895e+00
2.388822901089510786e+00
2.388822901089510786e+00
2.388822901089510786e+00
2.388822901089510786e+00
2.344196539201025331e+00
2.344196539201025331e+00
2.344196539201025331e+00
2.514826746421705117e+00
2.514826746421705117e+00
2.558515579699087716e+00
2.558515579699087716e+00
2.558515579699087716e+00
2.558515579699087716e+00
2.632017822809534113e+00
2.632017822809534113e+00
2.632017822809534113e+00
2.581391277809991891e+00
2.581391277809991891e+00
2.581391277809991891e+00
2.529639698477126331e+00
2.529639698477126331e+00
2.529639698477126331e+00
2.529639698477126331e+00
2.494763634144108178e+00
2.494763634144108178e+00
2.494763634144108178e+00
2.334633747367778511e+00
2.334633747367778511e+00
2.334633747367778511e+00
2.342133976256599581e+00
2.342133976256599581e+00
2.342133976256599581e+00
2.342133976256599581e+00
2.477888119144261214e+00
2.477888119144261214e+00
2.477888119144261214e+00
2.411511093478194478e+00
2.411511093478194478e+00
2.411511093478194478e+00
2.411511093478194478e+00
2.585703909421063873e+00
2.585703909421063873e+00
2.585703909421063873e+00
2.615329813531907188e+00
2.615329813531907188e+00
2.615329813531907188e+00
2.596579241309854513e+00
2.596579241309854513e+00
2.596579241309854513e+00
2.596579241309854513e+00
2.531514755699331598e+00
2.531514755699331598e+00
2.531514755699331598e+00
2.434386791589098653e+00
2.434386791589098653e+00
2.434386791589098653e+00
2.346634113589892490e+00
2.346634113589892490e+00
2.346634113589892490e+00
2.346634113589892490e+00
2.463262672811060039e+00
2.463262672811060039e+00
2.463262672811060039e+00
2.560203131199072502e+00
2.560203131199072502e+00
2.560203131199072502e+00
2.529264687032685366e+00
2.529264687032685366e+00
2.529264687032685366e+00
2.529264687032685366e+00
2.467012787255470574e+00
2.467012787255470574e+00
2.467012787255470574e+00
2.513889217810602261e+00
2.513889217810602261e+00
2.513889217810602261e+00
2.513889217810602261e+00
2.531139744254890633e+00
2.531139744254890633e+00
2.531139744254890633e+00
2.679644276253547730e+00
2.679644276253547730e+00
2.679644276253547730e+00
2.679644276253547730e+00
2.641955626087221898e+00
2.641955626087221898e+00
2.641955626087221898e+00
2.478450636310922661e+00
2.478450636310922661e+00
2.478450636310922661e+00
2.240880886257515137e+00
2.240880886257515137e+00
2.240880886257515137e+00
2.240880886257515137e+00
2.236005737479781263e+00
2.236005737479781263e+00
2.236005737479781263e+00
2.620579973754082026e+00
2.620579973754082026e+00
2.620579973754082026e+00
2.589266518143253926e+00
2.589266518143253926e+00
2.589266518143253926e+00
2.589266518143253926e+00
2.721458052308725506e+00
2.721458052308725506e+00
2.721458052308725506e+00
2.743396221808526825e+00
2.743396221808526825e+00
2.743396221808526825e+00
2.743396221808526825e+00
2.657331095309305002e+00
2.657331095309305002e+00
2.657331095309305002e+00
2.447887203588976490e+00
2.447887203588976490e+00
2.447887203588976490e+00
2.458762535477767130e+00
2.458762535477767130e+00
2.458762535477767130e+00
2.458762535477767130e+00
2.373822443311869090e+00
2.373822443311869090e+00
2.373822443311869090e+00
2.369134800256355700e+00
2.369134800256355700e+00
2.369134800256355700e+00
2.369134800256355700e+00
2.565265785699026413e+00
2.565265785699026413e+00
2.565265785699026413e+00
2.502826380199591139e+00
2.502826380199591139e+00
2.502826380199591139e+00
2.502826380199591139e+00
2.420698873867000778e+00
2.420698873867000778e+00
2.420698873867000778e+00
2.268256721701712220e+00
2.268256721701712220e+00
2.268256721701712220e+00
2.413948667867061193e+00
2.413948667867061193e+00
2.413948667867061193e+00
2.413948667867061193e+00
2.626017639698477346e+00
2.626017639698477346e+00
2.626017639698477346e+00
2.568828394421216466e+00
2.568828394421216466e+00
2.568828394421216466e+00
2.568828394421216466e+00
2.329758598590044638e+00
2.329758598590044638e+00
2.329758598590044638e+00
2.367447248756370914e+00
2.367447248756370914e+00
2.367447248756370914e+00
2.367447248756370914e+00
2.664831324198126516e+00
2.664831324198126516e+00
2.664831324198126516e+00
2.671019013031403322e+00
2.671019013031403322e+00
2.671019013031403322e+00
2.489325968199713301e+00
2.489325968199713301e+00
2.489325968199713301e+00
2.489325968199713301e+00
2.408698507644886799e+00
2.408698507644886799e+00
2.408698507644886799e+00
2.451449812311166987e+00
2.451449812311166987e+00
2.451449812311166987e+00
2.411511093478194478e+00
2.411511093478194478e+00
2.411511093478194478e+00
2.411511093478194478e+00
2.404948393200476264e+00
2.404948393200476264e+00
2.404948393200476264e+00
2.416761253700369316e+00
2.416761253700369316e+00
2.416761253700369316e+00
2.416761253700369316e+00
2.604641987365337030e+00
2.604641987365337030e+00
2.604641987365337030e+00
2.673644093142490963e+00
2.673644093142490963e+00
2.673644093142490963e+00
2.455012421033357040e+00
2.455012421033357040e+00
2.455012421033357040e+00
2.455012421033357040e+00
2.301445234534745587e+00
2.301445234534745587e+00
2.301445234534745587e+00
2.497951231421857266e+00
2.497951231421857266e+00
2.497951231421857266e+00
2.497951231421857266e+00
2.637267983031708951e+00
2.637267983031708951e+00
2.637267983031708951e+00
2.676269173253578604e+00
2.676269173253578604e+00
2.676269173253578604e+00
2.676269173253578604e+00
2.609704641865290942e+00
2.609704641865290942e+00
2.609704641865290942e+00
2.436449354533524403e+00
2.436449354533524403e+00
2.436449354533524403e+00
2.507326517532883603e+00
2.507326517532883603e+00
2.507326517532883603e+00
2.507326517532883603e+00
2.634455397198400828e+00
2.634455397198400828e+00
2.634455397198400828e+00
2.414886196478164049e+00
2.414886196478164049e+00
2.414886196478164049e+00
2.414886196478164049e+00
2.172628803369243577e+00
2.172628803369243577e+00
2.172628803369243577e+00
2.286069765312662039e+00
2.286069765312662039e+00
2.286069765312662039e+00
2.395198095645008962e+00
2.395198095645008962e+00
2.395198095645008962e+00
2.395198095645008962e+00
2.594141666920987799e+00
2.594141666920987799e+00
2.594141666920987799e+00
2.708145146031067707e+00
2.708145146031067707e+00
2.708145146031067707e+00
2.708145146031067707e+00
2.623955076754051152e+00
2.623955076754051152e+00
2.623955076754051152e+00
2.752584002197332680e+00
2.752584002197332680e+00
2.752584002197332680e+00
2.752584002197332680e+00
2.640455580309458039e+00
2.640455580309458039e+00
2.640455580309458039e+00
2.304445326090273749e+00
2.304445326090273749e+00
2.304445326090273749e+00
2.331258644367808941e+00
2.331258644367808941e+00
2.331258644367808941e+00
2.331258644367808941e+00
2.386010315256203107e+00
2.386010315256203107e+00
2.386010315256203107e+00
2.559265602587969646e+00
2.559265602587969646e+00
2.559265602587969646e+00
2.559265602587969646e+00
2.555140476699118146e+00
2.555140476699118146e+00
2.555140476699118146e+00
2.429886654255806189e+00
2.429886654255806189e+00
2.429886654255806189e+00
2.365759697256386129e+00
2.365759697256386129e+00
2.365759697256386129e+00
2.365759697256386129e+00
2.568453382976775501e+00
2.568453382976775501e+00
2.568453382976775501e+00
2.633330362865077490e+00
2.633330362865077490e+00
2.633330362865077490e+00
2.633330362865077490e+00
2.512576677755058441e+00
2.512576677755058441e+00
2.526264595477157204e+00
2.491388531144139051e+00
2.491388531144139051e+00
2.302757774590289408e+00
2.302757774590289408e+00
2.292632465590380253e+00
2.398948210089419053e+00
2.398948210089419053e+00
2.702707480086672831e+00
2.743021210364085860e+00
2.743021210364085860e+00
2.704207525864436690e+00
2.704207525864436690e+00
2.569953428754539804e+00
2.485575853755302767e+00
2.485575853755302767e+00
2.403823358867152926e+00
2.347009125034333454e+00
2.347009125034333454e+00
2.301632740256966070e+00
2.301632740256966070e+00
2.296570085757011714e+00
2.434949308755760100e+00
2.434949308755760100e+00
2.530202215643787778e+00
2.530202215643787778e+00
2.681894344920193962e+00
2.663706289864803178e+00
2.663706289864803178e+00
2.630517777031769810e+00
2.630517777031769810e+00
2.519139378032776655e+00
2.349634205145421095e+00
2.349634205145421095e+00
2.518014343699453761e+00
2.560578142643513466e+00
2.560578142643513466e+00
2.473200476088747823e+00
2.473200476088747823e+00
2.425199011200292798e+00
2.403635853144932444e+00
2.403635853144932444e+00
2.469825373088778253e+00
2.469825373088778253e+00
2.456699972533341381e+00
2.554390453810235773e+00
2.554390453810235773e+00
2.596579241309854513e+00
2.596579241309854513e+00
2.644393200476088612e+00
2.581578783532212373e+00
2.581578783532212373e+00
2.509576586199530279e+00
2.509576586199530279e+00
2.401385784478286212e+00
2.346446607867672007e+00
2.346446607867672007e+00
2.384135258033997840e+00
2.384135258033997840e+00
2.282882168034912951e+00
2.332571184423352761e+00
2.332571184423352761e+00
2.654706015198217806e+00
2.654706015198217806e+00
2.752208990752891715e+00
2.812398327585680757e+00
2.812398327585680757e+00
2.669331461531418537e+00
2.331258644367808941e+00
2.331258644367808941e+00
2.251943723868526259e+00
2.251943723868526259e+00
2.218192693868831444e+00
2.456137455366679934e+00
2.456137455366679934e+00
2.742271187475203931e+00
2.742271187475203931e+00
2.712645283364360616e+00
2.738896084475233916e+00
2.738896084475233916e+00
2.500763817255165389e+00
2.458387524033326166e+00
2.458387524033326166e+00
2.648143314920499147e+00
2.648143314920499147e+00
2.472637958922086376e+00
2.349259193700979687e+00
2.349259193700979687e+00
2.269569261757255596e+00
2.269569261757255596e+00
2.292069948423719250e+00
2.344571550645466296e+00
2.344571550645466296e+00
2.654893520920438288e+00
2.654893520920438288e+00
2.816710959196753183e+00
2.766084414197210517e+00
2.766084414197210517e+00
2.493263588366343875e+00
2.493263588366343875e+00
2.505638966032898818e+00
2.367822260200811879e+00
2.367822260200811879e+00
2.217255165257729033e+00
2.216317636646626177e+00
2.216317636646626177e+00
2.432511734366893830e+00
2.432511734366893830e+00
2.632392834253975078e+00
2.702519974364452349e+00
2.702519974364452349e+00
2.606704550309763224e+00
2.606704550309763224e+00
2.554952970976897664e+00
2.529077181310464884e+00
2.529077181310464884e+00
2.324320932645649762e+00
2.324320932645649762e+00
2.365384685811944721e+00
2.536202398754844989e+00
2.536202398754844989e+00
2.569015900143436948e+00
2.569015900143436948e+00
2.575578600421155162e+00
2.669706472975859946e+00
2.669706472975859946e+00
2.574453566087832268e+00
2.591141575365459193e+00
2.591141575365459193e+00
2.601454390087587942e+00
2.601454390087587942e+00
2.385447798089541660e+00
2.250068666646320992e+00
2.250068666646320992e+00
2.255131321146275347e+00
2.255131321146275347e+00
2.351321756645405436e+00
2.463637684255501004e+00
2.463637684255501004e+00
2.570140934476760286e+00
2.582703817865535711e+00
2.582703817865535711e+00
2.569765923032319321e+00
2.569765923032319321e+00
2.622455030976286849e+00
2.435511825922421991e+00
2.435511825922421991e+00
2.449949766533402684e+00
2.449949766533402684e+00
2.478825647755364070e+00
2.400635761589403838e+00
2.400635761589403838e+00
2.566015808587908342e+00
2.566015808587908342e+00
2.532264778588213971e+00
2.328071047090059853e+00
2.328071047090059853e+00
2.339883907589953349e+00
2.339883907589953349e+00
2.522326975310525743e+00
2.479575670644245999e+00
2.479575670644245999e+00
2.467012787255470574e+00
2.653393475142674429e+00
2.653393475142674429e+00
2.648143314920499147e+00
2.648143314920499147e+00
2.838649128696554502e+00
2.683769402142399230e+00
2.683769402142399230e+00
2.404760887478255782e+00
2.404760887478255782e+00
2.449949766533402684e+00
2.425386516922513280e+00
2.425386516922513280e+00
2.313820612201300086e+00
2.313820612201300086e+00
2.226067934202093479e+00
2.291319925534837321e+00
2.291319925534837321e+00
2.649830866420483932e+00
2.649830866420483932e+00
2.582141300698873820e+00
2.678331736198004354e+00
2.678331736198004354e+00
2.675706656086916713e+00
2.675706656086916713e+00
2.566765831476790716e+00
2.510701620532853173e+00
2.510701620532853173e+00
2.377572557756279181e+00
2.286444776757103448e+00
2.286444776757103448e+00
2.415636219367045978e+00
2.415636219367045978e+00
2.516326792199468976e+00
2.798335398419141029e+00
2.798335398419141029e+00
2.722958098086489809e+00
2.722958098086489809e+00
2.413386150700399746e+00
2.207879879146702695e+00
2.207879879146702695e+00
2.331821161534470832e+00
2.331821161534470832e+00
2.307445417645802355e+00
2.593204138309884943e+00
2.593204138309884943e+00
2.716957914975432598e+00
2.716957914975432598e+00
2.407760979033784388e+00
2.465700247199926753e+00
2.465700247199926753e+00
2.499451277199621568e+00
2.602204412976470316e+00
2.602204412976470316e+00
2.738896084475233916e+00
2.625642628254035937e+00
2.625642628254035937e+00
2.318320749534592551e+00
2.178816492202520827e+00
2.178816492202520827e+00
2.319633289590136371e+00
2.319633289590136371e+00
2.706457594531082922e+00
2.786335032197027495e+00
2.786335032197027495e+00
2.552140385143589540e+00
2.552140385143589540e+00
2.480888210699789376e+00
2.532077272865993045e+00
2.532077272865993045e+00
2.561703176976836804e+00
2.561703176976836804e+00
2.315695669423505798e+00
2.448074709311197417e+00
2.448074709311197417e+00
2.709645191808832010e+00
2.593766655476546834e+00
2.593766655476546834e+00
2.464950224311044824e+00
2.464950224311044824e+00
2.470200384533219218e+00
2.445449629200109776e+00
2.445449629200109776e+00
2.422573931089205601e+00
2.422573931089205601e+00
2.371009857478560967e+00
2.538452467421491221e+00
2.538452467421491221e+00
2.660331186864833608e+00
2.660331186864833608e+00
2.574453566087832268e+00
2.618892422254097241e+00
2.618892422254097241e+00
2.570890957365642215e+00
2.570890957365642215e+00
2.336321298867763296e+00
2.211067476424451339e+00
2.211067476424451339e+00
2.342508987701040546e+00
2.342508987701040546e+00
2.578953703421124732e+00
2.608392101809748009e+00
2.608392101809748009e+00
2.524952055421613384e+00
2.282882168034912951e+00
2.282882168034912951e+00
2.289257362590411127e+00
2.289257362590411127e+00
2.549327799310281861e+00
2.760271736808374676e+00
2.781459883419294066e+00
2.781459883419294066e+00
2.562828211310159254e+00
2.562828211310159254e+00
2.257381389812921579e+00
2.211629993591112786e+00
2.211629993591112786e+00
2.262256538590655452e+00
2.481638233588671305e+00
2.481638233588671305e+00
2.707770134586626742e+00
2.707770134586626742e+00
2.759334208197271820e+00
2.707207617419965295e+00
2.707207617419965295e+00
2.515389263588366120e+00
2.515389263588366120e+00
2.363884640034180418e+00
2.387885372478407930e+00
2.387885372478407930e+00
2.332008667256691314e+00
2.332008667256691314e+00
2.374384960478530537e+00
2.564703268532364966e+00
2.564703268532364966e+00
2.731020844141972326e+00
2.720895535142063615e+00
2.720895535142063615e+00
2.476950590533158358e+00
2.476950590533158358e+00
2.378135074922940628e+00
2.425761528366954689e+00
2.425761528366954689e+00
2.430449171422468080e+00
2.430449171422468080e+00
2.508451551866206941e+00
2.477325601977599767e+00
2.477325601977599767e+00
2.378510086367381593e+00
2.378510086367381593e+00
2.479575670644245999e+00
2.533577318643757348e+00
2.533577318643757348e+00
2.541265053254798900e+00
2.541265053254798900e+00
2.499826288644062977e+00
2.565828302865687860e+00
2.565828302865687860e+00
2.459700064088869986e+00
2.341383953367717208e+00
2.341383953367717208e+00
2.386760338145085036e+00
2.386760338145085036e+00
2.610079653309732350e+00
2.797960386974700064e+00
2.797960386974700064e+00
2.672144047364726660e+00
2.672144047364726660e+00
2.537514938810388809e+00
2.252318735312967224e+00
2.252318735312967224e+00
2.264506607257301685e+00
2.264506607257301685e+00
2.443012054811243061e+00
2.508264046143986459e+00
2.508264046143986459e+00
2.544827661976988953e+00
2.544827661976988953e+00
2.553827936643574326e+00
2.555140476699118146e+00
2.555140476699118146e+00
2.575766106143375644e+00
2.472450453199865894e+00
2.472450453199865894e+00
2.277819513534959039e+00
2.277819513534959039e+00
2.501888851588488727e+00
2.621329996642963955e+00
2.621329996642963955e+00
2.509951597643971244e+00
2.511264137699515064e+00
2.511264137699515064e+00
2.480700704977568893e+00
2.480700704977568893e+00
2.458387524033326166e+00
2.658643635364848823e+00
2.658643635364848823e+00
2.453699880977813219e+00
2.453699880977813219e+00
2.391635486922818910e+00
2.653393475142674429e+00
2.653393475142674429e+00
2.652268440809351091e+00
2.652268440809351091e+00
2.569015900143436948e+00
2.478825647755364070e+00
2.478825647755364070e+00
2.464012695699941968e+00
2.464012695699941968e+00
2.467575304422132465e+00
2.467575304422132465e+00
2.467575304422132465e+00
2.451824823755607952e+00
2.451824823755607952e+00
2.456887478255561863e+00
2.470575395977660182e+00
2.470575395977660182e+00
2.404760887478255782e+00
2.504888943144016888e+00
2.504888943144016888e+00
2.554015442365794808e+00
2.554015442365794808e+00
2.511264137699515064e+00
2.489888485366374749e+00
2.489888485366374749e+00
2.611954710531937618e+00
2.611954710531937618e+00
2.563765739921262110e+00
2.494201116977446731e+00
2.494201116977446731e+00
2.466450270088809127e+00
2.466450270088809127e+00
2.452199835200048916e+00
2.345321573534348669e+00
2.345321573534348669e+00
2.424448988311410869e+00
2.540890041810357936e+00
2.540890041810357936e+00
2.397635670033875677e+00
2.397635670033875677e+00
2.465137730033265306e+00
2.631267799920652184e+00
2.631267799920652184e+00
2.745646290475173501e+00
2.745646290475173501e+00
2.628267708365123578e+00
2.440386974700155864e+00
2.440386974700155864e+00
2.271444318979460864e+00
2.271444318979460864e+00
2.238068300424207457e+00
2.465700247199926753e+00
2.465700247199926753e+00
2.641205603198339968e+00
2.641205603198339968e+00
2.520076906643879511e+00
2.474325510422071162e+00
2.474325510422071162e+00
2.458950041199987613e+00
2.422573931089205601e+00
2.422573931089205601e+00
2.416011230811487387e+00
2.416011230811487387e+00
2.494013611255226248e+00
2.570140934476760286e+00
2.570140934476760286e+00
2.472075441755424485e+00
2.576516129032258018e+00
2.576516129032258018e+00
2.575578600421155162e+00
2.575578600421155162e+00
2.518764366588335690e+00
2.525139561143833866e+00
2.525139561143833866e+00
2.555515488143559111e+00
2.555515488143559111e+00
2.524389538254951937e+00
2.434199285866878171e+00
2.434199285866878171e+00
2.450887295144505096e+00
2.450887295144505096e+00
2.307820429090243319e+00
2.404385876033814373e+00
2.404385876033814373e+00
2.543327616199224650e+00
2.520826929532761884e+00
2.520826929532761884e+00
2.573891048921170377e+00
2.573891048921170377e+00
2.635955442976165131e+00
2.696144779808954173e+00
2.696144779808954173e+00
2.534889858699301168e+00
2.534889858699301168e+00
2.435699331644642474e+00
2.401010773033844803e+00
2.401010773033844803e+00
2.358446974089785542e+00
2.358446974089785542e+00
2.401198278756065729e+00
2.399135715811639535e+00
2.399135715811639535e+00
2.598454298532059781e+00
2.598454298532059781e+00
2.582516312143315229e+00
2.497201208532975336e+00
2.497201208532975336e+00
2.531889767143772563e+00
2.531889767143772563e+00
2.496638691366313889e+00
2.525702078310495757e+00
2.525702078310495757e+00
2.503013885921811621e+00
2.683206884975737783e+00
2.683206884975737783e+00
2.617392376476332938e+00
2.617392376476332938e+00
2.351696768089846401e+00
2.180129032258064647e+00
2.180129032258064647e+00
2.493263588366343875e+00
2.493263588366343875e+00
2.532827295754875419e+00
2.545952696310312291e+00
2.545952696310312291e+00
2.645705740531632433e+00
2.645705740531632433e+00
2.521576952421643814e+00
2.507889034699545494e+00
2.507889034699545494e+00
2.443199560533463544e+00
2.443199560533463544e+00
2.419198828089236475e+00
2.400823267311624321e+00
2.400823267311624321e+00
2.557578051087984861e+00
2.582703817865535711e+00
2.582703817865535711e+00
2.510139103366191726e+00
2.510139103366191726e+00
2.527014618366038690e+00
2.573703543198950339e+00
2.573703543198950339e+00
2.464387707144383377e+00
2.464387707144383377e+00
2.539014984588152668e+00
2.518389355143894726e+00
2.518389355143894726e+00
2.408511001922666317e+00
2.408511001922666317e+00
2.325070955534531691e+00
2.189691824091311467e+00
2.189691824091311467e+00
2.232068117313150690e+00
2.626205145420697828e+00
2.626205145420697828e+00
2.748271370586260698e+00
2.748271370586260698e+00
2.709457686086611528e+00
2.584578875087740979e+00
2.584578875087740979e+00
2.565828302865687860e+00
2.565828302865687860e+00
2.547452742088076594e+00
2.488575945310831372e+00
2.488575945310831372e+00
2.465137730033265306e+00
2.465137730033265306e+00
2.340446424756614796e+00
2.283632190923795324e+00
2.283632190923795324e+00
2.220442762535478121e+00
2.491576036866359534e+00
2.491576036866359534e+00
2.737208532975249575e+00
2.737208532975249575e+00
2.744146244697409198e+00
2.610267159031952833e+00
2.610267159031952833e+00
2.572203497421186036e+00
2.572203497421186036e+00
2.527389629810480098e+00
2.506764000366222156e+00
2.506764000366222156e+00
2.511639149143956029e+00
2.511639149143956029e+00
2.516701803643909940e+00
2.409636036255989211e+00
2.409636036255989211e+00
2.387697866756187448e+00
2.387697866756187448e+00
2.219692739646595747e+00
2.392010498367259874e+00
2.392010498367259874e+00
2.478075624866481697e+00
2.512014160588396994e+00
2.512014160588396994e+00
2.558515579699087716e+00
2.558515579699087716e+00
2.630892788476211219e+00
2.605767021698660368e+00
2.605767021698660368e+00
2.578766197698904250e+00
2.578766197698904250e+00
2.472262947477644968e+00
2.530014709921567295e+00
2.530014709921567295e+00
2.464762718588824342e+00
2.464762718588824342e+00
2.457262489700002828e+00
2.521389446699423331e+00
2.521389446699423331e+00
2.526077089754936722e+00
2.526077089754936722e+00
2.441887020477920167e+00
2.398760704367198571e+00
2.398760704367198571e+00
2.439074434644612044e+00
2.439074434644612044e+00
2.387885372478407930e+00
2.522514481032746669e+00
2.522514481032746669e+00
2.617767387920773903e+00
2.516139286477248493e+00
2.516139286477248493e+00
2.379822626422925413e+00
2.379822626422925413e+00
2.479388164922025517e+00
2.581391277809991891e+00
2.581391277809991891e+00
2.510889126255073656e+00
2.510889126255073656e+00
2.480700704977568893e+00
2.556453016754661967e+00
2.556453016754661967e+00
2.536764915921506436e+00
2.536764915921506436e+00
2.483513290810876573e+00
2.498513748588519157e+00
2.498513748588519157e+00
2.497013702810754854e+00
2.497013702810754854e+00
2.495513657032990551e+00
2.526452101199377687e+00
2.526452101199377687e+00
2.463637684255501004e+00
2.463637684255501004e+00
2.332571184423352761e+00
2.394448072756126589e+00
2.394448072756126589e+00
2.634080385753959863e+00
2.525514572588274831e+00
2.525514572588274831e+00
2.524389538254951937e+00
2.524389538254951937e+00
2.507701528977324568e+00
2.502451368755150174e+00
2.502451368755150174e+00
2.501326334421826836e+00
2.501326334421826836e+00
2.476200567644276429e+00
2.484638325144199911e+00
2.484638325144199911e+00
2.490451002533036640e+00
2.490451002533036640e+00
2.477888119144261214e+00
2.569953428754539804e+00
2.569953428754539804e+00
2.569203405865657430e+00
2.522326975310525743e+00
2.522326975310525743e+00
2.529077181310464884e+00
2.529077181310464884e+00
2.357509445478682686e+00
2.377572557756279181e+00
2.377572557756279181e+00
2.483700796533097499e+00
2.483700796533097499e+00
2.504513931699575480e+00
2.561515671254616322e+00
2.561515671254616322e+00
2.532452284310434454e+00
2.532452284310434454e+00
2.473762993255409270e+00
2.468887844477675397e+00
2.468887844477675397e+00
2.490826013977477604e+00
2.490826013977477604e+00
2.523827021088290046e+00
2.612329721976378583e+00
2.612329721976378583e+00
2.511076631977294138e+00
2.497388714255195818e+00
2.497388714255195818e+00
2.520826929532761884e+00
2.520826929532761884e+00
2.455574938200018487e+00
2.486888393810846587e+00
2.486888393810846587e+00
2.500388805810724424e+00
2.500388805810724424e+00
2.533764824365978274e+00
2.462325144199957183e+00
2.462325144199957183e+00
2.395760612811670409e+00
2.395760612811670409e+00
2.350384228034303025e+00
2.428199102755821404e+00
2.428199102755821404e+00
2.478825647755364070e+00
2.523076998199408116e+00
2.523076998199408116e+00
2.600329355754265048e+00
2.600329355754265048e+00
2.570515945921201251e+00
2.497013702810754854e+00
2.497013702810754854e+00
2.456324961088900860e+00
2.456324961088900860e+00
2.460450086977751916e+00
2.507701528977324568e+00
2.507701528977324568e+00
2.469450361644337288e+00
2.469450361644337288e+00
2.523827021088290046e+00
2.548015259254738041e+00
2.548015259254738041e+00
2.494576128421887695e+00
2.464387707144383377e+00
2.464387707144383377e+00
2.423886471144749422e+00
2.423886471144749422e+00
2.460262581255531433e+00
2.532264778588213971e+00
2.532264778588213971e+00
2.558515579699087716e+00
2.558515579699087716e+00
2.549515305032502344e+00
2.467200292977691056e+00
2.467200292977691056e+00
2.444699606311227846e+00
2.444699606311227846e+00
2.520451918088320475e+00
2.534139835810419239e+00
2.534139835810419239e+00
2.507701528977324568e+00
2.507701528977324568e+00
2.486888393810846587e+00
2.495513657032990551e+00
2.495513657032990551e+00
2.450512283700064131e+00
2.407760979033784388e+00
2.407760979033784388e+00
2.432511734366893830e+00
2.432511734366893830e+00
2.495701162755211033e+00
2.570515945921201251e+00
2.570515945921201251e+00
2.591891598254341122e+00
2.591891598254341122e+00
2.521014435254982367e+00
2.509201574755088870e+00
2.509201574755088870e+00
2.479763176366466482e+00
2.479763176366466482e+00
2.483138279366435608e+00
2.480138187810907002e+00
2.480138187810907002e+00
2.478263130588702179e+00
2.478263130588702179e+00
2.489325968199713301e+00
2.511076631977294138e+00
2.511076631977294138e+00
2.469825373088778253e+00
2.469825373088778253e+00
2.474700521866512126e+00
2.487075899533067069e+00
2.487075899533067069e+00
2.517451826532791870e+00
2.562453199865718290e+00
2.562453199865718290e+00
2.591516586809900158e+00
2.591516586809900158e+00
2.507701528977324568e+00
2.435136814477980582e+00
2.435136814477980582e+00
2.456324961088900860e+00
2.456324961088900860e+00
2.382822717978454019e+00
2.465325235755485789e+00
2.465325235755485789e+00
2.548952787865840897e+00
2.548952787865840897e+00
2.547452742088076594e+00
2.531702261421552080e+00
2.531702261421552080e+00
2.473200476088747823e+00
2.473200476088747823e+00
2.406448438978240567e+00
2.412073610644855925e+00
2.412073610644855925e+00
2.460637592699972398e+00
2.485950865199743731e+00
2.485950865199743731e+00
2.586641438032166285e+00
2.586641438032166285e+00
2.588141483809930588e+00
2.541265053254798900e+00
2.541265053254798900e+00
2.506951506088442638e+00
2.506951506088442638e+00
2.425574022644734207e+00
2.439824457533493973e+00
2.439824457533493973e+00
2.509389080477309353e+00
2.509389080477309353e+00
2.474138004699850679e+00
2.521201940977202849e+00
2.521201940977202849e+00
2.466637775811029609e+00
2.466637775811029609e+00
2.399135715811639535e+00
2.392948026978362286e+00
2.392948026978362286e+00
2.479388164922025517e+00
2.586828943754386767e+00
2.586828943754386767e+00
2.624517593920713043e+00
2.624517593920713043e+00
2.614767296365245741e+00
2.567890865810114054e+00
2.567890865810114054e+00
2.454824915311136557e+00
2.454824915311136557e+00
2.416761253700369316e+00
2.434574297311319135e+00
2.434574297311319135e+00
2.475450544755394056e+00
2.475450544755394056e+00
2.478263130588702179e+00
2.463637684255501004e+00
2.463637684255501004e+00
2.471325418866542556e+00
2.446949674977874079e+00
2.446949674977874079e+00
2.459512558366649504e+00
2.459512558366649504e+00
2.482763267921994643e+00
2.497201208532975336e+00
2.497201208532975336e+00
2.490075991088595231e+00
2.490075991088595231e+00
2.516514297921689458e+00
2.545015167699209435e+00
2.545015167699209435e+00
2.524014526810510528e+00
2.524014526810510528e+00
2.541640064699239865e+00
2.514826746421705117e+00
2.514826746421705117e+00
2.466450270088809127e+00
2.481450727866450823e+00
2.481450727866450823e+00
2.459700064088869986e+00
2.459700064088869986e+00
2.430824182866909045e+00
2.458200018311105683e+00
2.458200018311105683e+00
2.481450727866450823e+00
2.481450727866450823e+00
2.536389904477065471e+00
2.571640980254524589e+00
2.571640980254524589e+00
2.553827936643574326e+00
2.553827936643574326e+00
2.544452650532547988e+00
2.526452101199377687e+00
2.526452101199377687e+00
2.453324869533372254e+00
2.465887752922147680e+00
2.465887752922147680e+00
2.438324411755729670e+00
2.438324411755729670e+00
2.451074800866725578e+00
2.458200018311105683e+00
2.458200018311105683e+00
2.459325052644428578e+00
2.473575487533188788e+00
2.473575487533188788e+00
2.499076265755180604e+00
2.499076265755180604e+00
2.500201300088503942e+00
2.512764183477279367e+00
2.512764183477279367e+00
2.559640614032411055e+00
2.559640614032411055e+00
2.535077364421521651e+00
2.543327616199224650e+00
2.543327616199224650e+00
2.440011963255714900e+00
2.440011963255714900e+00
2.408886013367107282e+00
2.448449720755638381e+00
2.448449720755638381e+00
2.429511642811365224e+00
2.429511642811365224e+00
2.450887295144505096e+00
2.524389538254951937e+00
2.524389538254951937e+00
2.498138737144077748e+00
2.498138737144077748e+00
2.452574846644489881e+00
2.465512741477706271e+00
2.465512741477706271e+00
2.539389996032593633e+00
2.552515396588030505e+00
2.552515396588030505e+00
2.573703543198950339e+00
2.573703543198950339e+00
2.566953337199011198e+00
2.552140385143589540e+00
2.552140385143589540e+00
2.543702627643666059e+00
2.543702627643666059e+00
2.472262947477644968e+00
2.338196356089969008e+00
2.338196356089969008e+00
2.368947294534135217e+00
2.368947294534135217e+00
2.486700888088625661e+00
2.537139927365947845e+00
2.537139927365947845e+00
2.466075258644368162e+00
2.466075258644368162e+00
2.442824549089022579e+00
2.411136082033753514e+00
2.411136082033753514e+00
2.461200109866634289e+00
2.511826654866176511e+00
2.511826654866176511e+00
2.570890957365642215e+00
2.570890957365642215e+00
2.662018738364818393e+00
2.480700704977568893e+00
2.480700704977568893e+00
2.332571184423352761e+00
2.332571184423352761e+00
2.421448896755882263e+00
2.492701071199682428e+00
2.492701071199682428e+00
2.513326700643940814e+00
2.513326700643940814e+00
2.509951597643971244e+00
2.493826105533005766e+00
2.493826105533005766e+00
2.488763451033051854e+00
2.488763451033051854e+00
2.479200659199805035e+00
2.523452009643849081e+00
2.523452009643849081e+00
2.564328257087923557e+00
2.555515488143559111e+00
2.555515488143559111e+00
2.548577776421399932e+00
2.548577776421399932e+00
2.546140202032532773e+00
2.478450636310922661e+00
2.478450636310922661e+00
2.452762352366710363e+00
2.452762352366710363e+00
2.409636036255989211e+00
2.367259743034150432e+00
2.367259743034150432e+00
2.430261665700247153e+00
2.430261665700247153e+00
2.451074800866725578e+00
2.473012970366527341e+00
2.473012970366527341e+00
2.500576311532944906e+00
2.481075716422009858e+00
2.481075716422009858e+00
2.484263313699758946e+00
2.484263313699758946e+00
2.491201025421918569e+00
2.508826563310647906e+00
2.508826563310647906e+00
2.545390179143650844e+00
2.545390179143650844e+00
2.557203039643543896e+00
2.560015625476852019e+00
2.560015625476852019e+00
2.527389629810480098e+00
2.527389629810480098e+00
2.459512558366649504e+00
2.450137272255623166e+00
2.450137272255623166e+00
2.443949583422345917e+00
2.448824732200079346e+00
2.448824732200079346e+00
2.441136997589037794e+00
2.441136997589037794e+00
2.455387432477798004e+00
2.455012421033357040e+00
2.455012421033357040e+00
2.485950865199743731e+00
2.485950865199743731e+00
2.483138279366435608e+00
2.536577410199285953e+00
2.536577410199285953e+00
2.520264412366099993e+00
2.520264412366099993e+00
2.492701071199682428e+00
2.500201300088503942e+00
2.500201300088503942e+00
2.520639423810540958e+00
2.520639423810540958e+00
2.506201483199560265e+00
2.481263222144230340e+00
2.481263222144230340e+00
2.481075716422009858e+00
2.478638142033143144e+00
2.478638142033143144e+00
2.479200659199805035e+00
2.479200659199805035e+00
2.478450636310922661e+00
2.481825739310891787e+00
2.481825739310891787e+00
2.512764183477279367e+00
2.512764183477279367e+00
2.541265053254798900e+00
2.454824915311136557e+00
2.454824915311136557e+00
2.408698507644886799e+00
2.408698507644886799e+00
2.439636951811273491e+00
2.499263771477401086e+00
2.499263771477401086e+00
2.484450819421979428e+00
2.484450819421979428e+00
2.505076448866237371e+00
2.525889584032716240e+00
2.525889584032716240e+00
2.508639057588427423e+00
2.508639057588427423e+00
2.485763359477523249e+00
2.436636860255744885e+00
2.436636860255744885e+00
2.432699240089114312e+00
2.469075350199895880e+00
2.469075350199895880e+00
2.508264046143986459e+00
2.508264046143986459e+00
2.543702627643666059e+00
2.549140293588061379e+00
2.549140293588061379e+00
2.546515213476973738e+00
2.546515213476973738e+00
2.507326517532883603e+00
2.496451185644092963e+00
2.496451185644092963e+00
2.474138004699850679e+00
2.474138004699850679e+00
2.487825922421948999e+00
2.489888485366374749e+00
2.489888485366374749e+00
2.489700979644154266e+00
2.491013519699698087e+00
2.491013519699698087e+00
2.458387524033326166e+00
2.469450361644337288e+00
2.469450361644337288e+00
2.463262672811060039e+00
2.437386883144627259e+00
2.437386883144627259e+00
2.502638874477370656e+00
2.502638874477370656e+00
2.536202398754844989e+00
2.537702444532609292e+00
2.537702444532609292e+00
2.500013794366283459e+00
2.464950224311044824e+00
2.464950224311044824e+00
2.475263039033173573e+00
2.475263039033173573e+00
2.443199560533463544e+00
2.441512009033478758e+00
2.441512009033478758e+00
2.455199926755577522e+00
2.455199926755577522e+00
2.459700064088869986e+00
2.476575579088717394e+00
2.476575579088717394e+00
2.521389446699423331e+00
2.521389446699423331e+00
2.516514297921689458e+00
2.503388897366253030e+00
2.503388897366253030e+00
2.518576860866115208e+00
2.518576860866115208e+00
2.516139286477248493e+00
2.537514938810388809e+00
2.537514938810388809e+00
2.502263863032929692e+00
2.502263863032929692e+00
2.481825739310891787e+00
2.483325785088656090e+00
2.483325785088656090e+00
2.453699880977813219e+00
2.459325052644428578e+00
2.459325052644428578e+00
2.471887936033204003e+00
2.471887936033204003e+00
2.452949858088931290e+00
2.465512741477706271e+00
2.465512741477706271e+00
2.501138828699606353e+00
2.501138828699606353e+00
2.515951780755027567e+00
2.526264595477157204e+00
2.526264595477157204e+00
2.514451734977264152e+00
2.514451734977264152e+00
2.511826654866176511e+00
2.498326242866298674e+00
2.477700613422040732e+00
2.477700613422040732e+00
2.451074800866725578e+00
2.451074800866725578e+00
2.508451551866206941e+00
2.429136631366924259e+00
2.429136631366924259e+00
2.389197912533951751e+00
2.450887295144505096e+00
2.450887295144505096e+00
2.432886745811334794e+00
2.432886745811334794e+00
2.457637501144443792e+00
2.543515121921445576e+00
2.543515121921445576e+00
2.579141209143345659e+00
2.593016632587664461e+00
2.593016632587664461e+00
2.591516586809900158e+00
2.591516586809900158e+00
2.548765282143620414e+00
2.490263496810816157e+00
2.490263496810816157e+00
2.484825830866420393e+00
2.484825830866420393e+00
2.471512924588763038e+00
2.472075441755424485e+00
2.472075441755424485e+00
2.468137821588793912e+00
2.468137821588793912e+00
2.438136906033509188e+00
2.415261207922605013e+00
2.415261207922605013e+00
2.399135715811639535e+00
2.439636951811273491e+00
2.439636951811273491e+00
2.531889767143772563e+00
2.531889767143772563e+00
2.547640247810297076e+00
2.558703085421308199e+00
2.558703085421308199e+00
2.566578325754570233e+00
2.566578325754570233e+00
2.538264961699270739e+00
2.508264046143986459e+00
2.508264046143986459e+00
2.516139286477248493e+00
2.516139286477248493e+00
2.442262031922361132e+00
2.405698416089358194e+00
2.405698416089358194e+00
2.404760887478255782e+00
2.427074068422498510e+00
2.427074068422498510e+00
2.464200201422162451e+00
2.464200201422162451e+00
2.472637958922086376e+00
2.507889034699545494e+00
2.507889034699545494e+00
2.527577135532700581e+00
2.527577135532700581e+00
2.545577684865871326e+00
2.566015808587908342e+00
2.566015808587908342e+00
2.554202948088015290e+00
2.554202948088015290e+00
2.505451460310678335e+00
2.497576219977416301e+00
2.497576219977416301e+00
2.472075441755424485e+00
2.448074709311197417e+00
2.448074709311197417e+00
2.431761711478011456e+00
2.431761711478011456e+00
2.386947843867305519e+00
2.398385692922757606e+00
2.398385692922757606e+00
2.491201025421918569e+00
2.497013702810754854e+00
2.557578051087984861e+00
2.557578051087984861e+00
2.562828211310159254e+00
2.562828211310159254e+00
2.571265968810083624e+00
2.575578600421155162e+00
2.575578600421155162e+00
2.506951506088442638e+00
2.506951506088442638e+00
2.451637318033387469e+00
2.457449995422223310e+00
2.457449995422223310e+00
2.421261391033662225e+00
2.421261391033662225e+00
2.448637226477858864e+00
2.467762810144352947e+00
2.467762810144352947e+00
2.450137272255623166e+00
2.453512375255592737e+00
2.453512375255592737e+00
2.464762718588824342e+00
2.464762718588824342e+00
2.478075624866481697e+00
2.552702902310250987e+00
2.552702902310250987e+00
2.572015991698965554e+00
2.572015991698965554e+00
2.521201940977202849e+00
2.480138187810907002e+00
2.480138187810907002e+00
2.460825098422192880e+00
2.446012146366771223e+00
2.446012146366771223e+00
2.466825281533250092e+00
2.474700521866512126e+00
2.474700521866512126e+00
2.481263222144230340e+00
2.481263222144230340e+00
2.463637684255501004e+00
2.464387707144383377e+00
2.464387707144383377e+00
2.466262764366588645e+00
2.466450270088809127e+00
2.508639057588427423e+00
2.508639057588427423e+00
2.551952879421369058e+00
2.557765556810205343e+00
2.557765556810205343e+00
2.575391094698934680e+00
2.575391094698934680e+00
2.570328440198980768e+00
2.503763908810693550e+00
2.503763908810693550e+00
2.447324686422315043e+00
2.447324686422315043e+00
2.422011413922543710e+00
2.405885921811578676e+00
2.405885921811578676e+00
2.433824274422437206e+00
2.433824274422437206e+00
2.494763634144108178e+00
2.537702444532609292e+00
2.537702444532609292e+00
2.470200384533219218e+00
2.456137455366679934e+00
2.456137455366679934e+00
2.491388531144139051e+00
2.491388531144139051e+00
2.512014160588396994e+00
2.503576403088473068e+00
2.503576403088473068e+00
2.524764549699392902e+00
2.524764549699392902e+00
2.510326609088412209e+00
2.469825373088778253e+00
2.469825373088778253e+00
2.451074800866725578e+00
2.452949858088931290e+00
2.452949858088931290e+00
2.483513290810876573e+00
2.483513290810876573e+00
2.475263039033173573e+00
2.463450178533280521e+00
2.463450178533280521e+00
2.450137272255623166e+00
2.450137272255623166e+00
2.418448805200354101e+00
2.447512192144535526e+00
2.447512192144535526e+00
2.493826105533005766e+00
2.493826105533005766e+00
2.530202215643787778e+00
2.581391277809991891e+00
2.581391277809991891e+00
2.583828852198858606e+00
2.526827112643818651e+00
2.526827112643818651e+00
2.478075624866481697e+00
2.478075624866481697e+00
2.470012878810998735e+00
2.467200292977691056e+00
2.467200292977691056e+00
2.477138096255378841e+00
2.477138096255378841e+00
2.471512924588763038e+00
2.474888027588732609e+00
2.474888027588732609e+00
2.467012787255470574e+00
2.467012787255470574e+00
2.451824823755607952e+00
2.482575762199774161e+00
2.482575762199774161e+00
2.539765007477034597e+00
2.559265602587969646e+00
2.559265602587969646e+00
2.551015350810266202e+00
2.551015350810266202e+00
2.522139469588305261e+00
2.493826105533005766e+00
2.493826105533005766e+00
2.474513016144291644e+00
2.474513016144291644e+00
2.443574571977904952e+00
2.395573107089449927e+00
2.395573107089449927e+00
2.405885921811578676e+00
2.405885921811578676e+00
2.450324777977843649e+00
2.488763451033051854e+00
2.488763451033051854e+00
2.486138370921964214e+00
2.486700888088625661e+00
2.520076906643879511e+00
2.520076906643879511e+00
2.534327341532639721e+00
2.540702536088137453e+00
2.540702536088137453e+00
2.537327433088168327e+00
2.537327433088168327e+00
2.533202307199316383e+00
2.496638691366313889e+00
2.496638691366313889e+00
2.476575579088717394e+00
2.476575579088717394e+00
2.465512741477706271e+00
2.458575029755546648e+00
2.458575029755546648e+00
2.518201849421674243e+00
2.518201849421674243e+00
2.471137913144322074e+00
2.433449262977995797e+00
2.433449262977995797e+00
2.433824274422437206e+00
2.433824274422437206e+00
2.469262855922116806e+00
2.508264046143986459e+00
2.508264046143986459e+00
2.509764091921750762e+00
2.509764091921750762e+00
2.508826563310647906e+00
2.510889126255073656e+00
2.510889126255073656e+00
2.523452009643849081e+00
2.477700613422040732e+00
2.477700613422040732e+00
2.469262855922116806e+00
2.469262855922116806e+00
2.458200018311105683e+00
2.432699240089114312e+00
2.432699240089114312e+00
2.432699240089114312e+00
2.432699240089114312e+00
2.459137546922208095e+00
2.467200292977691056e+00
2.467200292977691056e+00
2.488388439588610446e+00
2.488388439588610446e+00
2.512201666310617476e+00
2.512201666310617476e+00
2.523264503921628599e+00
2.545202673421430362e+00
2.545202673421430362e+00
2.565078279976805931e+00
2.565078279976805931e+00
2.515576769310586602e+00
2.467200292977691056e+00
2.467200292977691056e+00
2.485200842310861358e+00
2.484263313699758946e+00
2.484263313699758946e+00
2.479013153477584552e+00
2.479013153477584552e+00
2.483138279366435608e+00
2.471512924588763038e+00
2.471512924588763038e+00
2.458387524033326166e+00
2.458387524033326166e+00
2.454824915311136557e+00
2.485763359477523249e+00
2.509389080477309353e+00
2.509389080477309353e+00
2.486888393810846587e+00
2.486888393810846587e+00
2.486138370921964214e+00
2.513701712088381779e+00
2.513701712088381779e+00
2.502076357310709209e+00
2.502076357310709209e+00
2.492701071199682428e+00
2.513139194921720332e+00
2.513139194921720332e+00
2.478450636310922661e+00
2.478450636310922661e+00
2.465700247199926753e+00
2.445449629200109776e+00
2.445449629200109776e+00
2.447887203588976490e+00
2.447887203588976490e+00
2.452012329477828434e+00
2.457262489700002828e+00
2.457262489700002828e+00
2.502076357310709209e+00
2.502076357310709209e+00
2.533952330088198757e+00
2.541077547532578418e+00
2.541077547532578418e+00
2.552702902310250987e+00
2.538264961699270739e+00
2.538264961699270739e+00
2.488575945310831372e+00
2.488575945310831372e+00
2.465512741477706271e+00
2.449012237922299828e+00
2.449012237922299828e+00
2.418261299478133619e+00
2.418261299478133619e+00
2.422948942533646566e+00
2.448637226477858864e+00
2.448637226477858864e+00
2.479950682088686964e+00
2.479950682088686964e+00
2.478825647755364070e+00
2.512389172032837958e+00
2.512389172032837958e+00
2.552327890865810023e+00
2.552327890865810023e+00
2.543702627643666059e+00
2.523639515366069563e+00
2.523639515366069563e+00
2.521201940977202849e+00
2.521201940977202849e+00
2.507701528977324568e+00
2.503576403088473068e+00
2.503576403088473068e+00
2.461012604144413807e+00
2.420323862422559369e+00
2.420323862422559369e+00
2.454449903866695148e+00
2.454449903866695148e+00
2.459137546922208095e+00
2.473575487533188788e+00
2.473575487533188788e+00
2.468137821588793912e+00
2.468137821588793912e+00
2.454824915311136557e+00
2.473012970366527341e+00
2.501701345866268245e+00
2.526639606921598169e+00
2.545390179143650844e+00
2.545390179143650844e+00
2.539202490310373150e+00
2.539202490310373150e+00
2.515764275032807085e+00
2.495326151310770069e+00
2.495326151310770069e+00
2.482013245033112270e+00
2.482013245033112270e+00
2.470762901699881109e+00
2.466075258644368162e+00
2.466075258644368162e+00
2.452574846644489881e+00
2.452574846644489881e+00
2.451262306588946061e+00
2.441699514755699685e+00
2.441699514755699685e+00
2.439824457533493973e+00
2.439824457533493973e+00
2.491576036866359534e+00
2.530202215643787778e+00
2.530202215643787778e+00
2.534514847254860204e+00
2.558703085421308199e+00
2.558703085421308199e+00
2.557203039643543896e+00
2.557203039643543896e+00
2.505451460310678335e+00
2.445074617755668811e+00
2.445074617755668811e+00
2.457637501144443792e+00
2.457637501144443792e+00
2.463450178533280521e+00
2.465700247199926753e+00
2.465700247199926753e+00
2.465512741477706271e+00
2.465512741477706271e+00
2.487075899533067069e+00
2.455762443922238969e+00
2.462512649922177665e+00
2.508264046143986459e+00
2.508264046143986459e+00
2.506576494644001674e+00
2.490451002533036640e+00
2.490451002533036640e+00
2.513326700643940814e+00
2.526639606921598169e+00
2.526639606921598169e+00
2.510889126255073656e+00
2.510889126255073656e+00
2.521014435254982367e+00
2.490826013977477604e+00
2.490826013977477604e+00
2.490826013977477604e+00
2.485200842310861358e+00
2.485200842310861358e+00
2.477700613422040732e+00
2.473387981810968306e+00
2.473387981810968306e+00
2.452199835200048916e+00
2.452199835200048916e+00
2.459887569811090469e+00
2.482200750755333196e+00
2.482200750755333196e+00
2.463075167088839557e+00
2.489325968199713301e+00
2.489325968199713301e+00
2.502638874477370656e+00
2.502638874477370656e+00
2.509014069032868388e+00
2.499076265755180604e+00
2.499076265755180604e+00
2.503388897366253030e+00
2.503388897366253030e+00
2.487450910977508034e+00
2.490826013977477604e+00
2.490826013977477604e+00
2.475638050477614982e+00
2.465700247199926753e+00
2.465700247199926753e+00
2.446762169255653596e+00
2.446762169255653596e+00
2.448262215033417899e+00
2.491763542588580016e+00
2.491763542588580016e+00
2.530577227088229186e+00
2.530577227088229186e+00
2.537139927365947845e+00
2.552515396588030505e+00
2.552515396588030505e+00
2.540140018921475562e+00
2.540140018921475562e+00
2.514826746421705117e+00
2.481263222144230340e+00
2.481263222144230340e+00
2.466075258644368162e+00
2.473575487533188788e+00
2.473575487533188788e+00
2.463450178533280521e+00
2.463450178533280521e+00
2.432136722922452865e+00
2.448262215033417899e+00
2.448262215033417899e+00
2.446387157811212187e+00
2.446387157811212187e+00
2.465137730033265306e+00
2.514451734977264152e+00
2.514451734977264152e+00
2.543140110477004168e+00
2.543140110477004168e+00
2.537702444532609292e+00
2.557390545365764378e+00
2.557390545365764378e+00
2.546702719199194664e+00
2.515389263588366120e+00
2.515389263588366120e+00
2.496451185644092963e+00
2.496451185644092963e+00
2.476200567644276429e+00
2.471325418866542556e+00
2.471325418866542556e+00
2.449199743644520311e+00
2.449199743644520311e+00
2.427074068422498510e+00
2.407198461867122496e+00
2.407198461867122496e+00
2.411323587755973996e+00
2.411323587755973996e+00
2.444324594866786882e+00
2.522139469588305261e+00
2.522139469588305261e+00
2.553827936643574326e+00
2.552702902310250987e+00
2.552702902310250987e+00
2.557953062532425825e+00
2.557953062532425825e+00
2.541077547532578418e+00
2.514076723532822744e+00
2.514076723532822744e+00
2.497576219977416301e+00
2.497576219977416301e+00
2.472262947477644968e+00
2.478825647755364070e+00
2.478825647755364070e+00
2.469825373088778253e+00
2.469825373088778253e+00
2.443949583422345917e+00
2.448824732200079346e+00
2.448824732200079346e+00
2.435699331644642474e+00
2.474138004699850679e+00
2.474138004699850679e+00
2.526264595477157204e+00
2.526264595477157204e+00
2.529827204199346813e+00
2.542765099032563203e+00
2.542765099032563203e+00
2.533389812921536866e+00
2.533389812921536866e+00
2.524764549699392902e+00
2.490826013977477604e+00
2.490826013977477604e+00
2.452762352366710363e+00
2.452762352366710363e+00
2.450324777977843649e+00
2.482763267921994643e+00
2.482763267921994643e+00
2.487075899533067069e+00
2.487075899533067069e+00
2.476388073366496911e+00
2.461200109866634289e+00
2.461200109866634289e+00
2.498513748588519157e+00
2.498513748588519157e+00
2.528702169866023475e+00
2.541640064699239865e+00
2.541640064699239865e+00
2.558515579699087716e+00
2.558515579699087716e+00
2.536764915921506436e+00
2.491201025421918569e+00
2.491201025421918569e+00
2.461950132755516218e+00
2.450699789422284613e+00
2.450699789422284613e+00
2.466262764366588645e+00
2.466262764366588645e+00
2.482200750755333196e+00
2.472637958922086376e+00
2.472637958922086376e+00
2.466262764366588645e+00
2.466262764366588645e+00
2.427824091311380439e+00
2.419761345255897922e+00
2.419761345255897922e+00
2.496638691366313889e+00
2.496638691366313889e+00
2.555327982421338628e+00
2.556453016754661967e+00
2.556453016754661967e+00
2.543515121921445576e+00
2.530202215643787778e+00
2.530202215643787778e+00
2.488763451033051854e+00
2.488763451033051854e+00
2.470575395977660182e+00
2.467012787255470574e+00
2.467012787255470574e+00
2.464387707144383377e+00
2.464387707144383377e+00
2.464575212866603859e+00
2.463637684255501004e+00
2.463637684255501004e+00
2.464012695699941968e+00
2.464012695699941968e+00
2.451824823755607952e+00
2.489325968199713301e+00
2.489325968199713301e+00
2.528702169866023475e+00
2.528702169866023475e+00
2.521764458143864296e+00
2.537327433088168327e+00
2.537327433088168327e+00
2.557765556810205343e+00
2.524389538254951937e+00
2.524389538254951937e+00
2.471887936033204003e+00
2.471887936033204003e+00
2.437574388866847741e+00
2.415261207922605013e+00
2.415261207922605013e+00
2.443387066255684470e+00
2.443387066255684470e+00
2.459700064088869986e+00
2.453324869533372254e+00
2.453324869533372254e+00
2.468700338755454915e+00
2.468700338755454915e+00
2.467200292977691056e+00
2.495888668477431516e+00
2.495888668477431516e+00
2.531327249977111116e+00
2.531327249977111116e+00
2.539014984588152668e+00
2.542577593310342721e+00
2.542577593310342721e+00
2.550265327921384717e+00
2.550265327921384717e+00
2.523639515366069563e+00
2.488763451033051854e+00
2.488763451033051854e+00
2.472637958922086376e+00
2.466637775811029609e+00
2.466637775811029609e+00
2.472825464644306859e+00
2.472825464644306859e+00
2.469825373088778253e+00
2.473200476088747823e+00
2.473200476088747823e+00
2.461200109866634289e+00
2.461200109866634289e+00
2.456512466811120898e+00
2.470200384533219218e+00
2.470200384533219218e+00
2.492701071199682428e+00
2.497013702810754854e+00
2.497013702810754854e+00
2.536014893032624506e+00
2.536014893032624506e+00
2.523076998199408116e+00
2.496263679921872480e+00
2.496263679921872480e+00
2.497576219977416301e+00
2.484450819421979428e+00
2.484450819421979428e+00
2.475450544755394056e+00
2.475450544755394056e+00
2.477138096255378841e+00
2.471512924588763038e+00
2.471512924588763038e+00
2.476013061922055947e+00
2.476013061922055947e+00
2.464575212866603859e+00
2.467575304422132465e+00
2.467575304422132465e+00
2.510326609088412209e+00
2.510326609088412209e+00
2.539202490310373150e+00
2.543327616199224650e+00
2.543327616199224650e+00
2.547265236365856111e+00
2.547265236365856111e+00
2.525889584032716240e+00
2.484075807977538464e+00
2.484075807977538464e+00
2.458200018311105683e+00
2.458200018311105683e+00
2.454262398144474666e+00
2.461012604144413807e+00
2.461012604144413807e+00
2.464762718588824342e+00
2.477513107699820250e+00
2.477513107699820250e+00
2.467200292977691056e+00
2.467200292977691056e+00
2.455387432477798004e+00
2.472825464644306859e+00
2.496076174199651998e+00
2.488200933866389963e+00
2.488200933866389963e+00
2.526827112643818651e+00
2.526827112643818651e+00
2.566578325754570233e+00
2.542015076143681274e+00
2.542015076143681274e+00
2.501701345866268245e+00
2.501701345866268245e+00
2.497951231421857266e+00
2.477325601977599767e+00
2.477325601977599767e+00
2.458387524033326166e+00
2.458387524033326166e+00
2.456887478255561863e+00
2.463450178533280521e+00
2.463450178533280521e+00
2.449012237922299828e+00
2.430449171422468080e+00
2.430449171422468080e+00
2.441324503311258276e+00
2.485763359477523249e+00
2.485763359477523249e+00
2.511639149143956029e+00
2.511639149143956029e+00
2.534327341532639721e+00
2.552890408032471470e+00
2.552890408032471470e+00
2.537139927365947845e+00
2.537139927365947845e+00
2.507889034699545494e+00
2.491013519699698087e+00
2.491013519699698087e+00
2.475638050477614982e+00
2.475638050477614982e+00
2.484638325144199911e+00
2.478263130588702179e+00
2.478263130588702179e+00
2.465325235755485789e+00
2.439824457533493973e+00
2.439824457533493973e+00
2.435511825922421991e+00
2.435511825922421991e+00
2.483700796533097499e+00
2.519514389477218064e+00
2.519514389477218064e+00
2.526452101199377687e+00
2.526452101199377687e+00
2.545202673421430362e+00
2.535452375865963059e+00
2.535452375865963059e+00
2.510701620532853173e+00
2.510701620532853173e+00
2.490638508255257122e+00
2.470575395977660182e+00
2.470575395977660182e+00
2.465325235755485789e+00
2.465325235755485789e+00
2.466825281533250092e+00
2.468512833033234433e+00
2.468512833033234433e+00
2.468325327311013950e+00
2.449012237922299828e+00
2.449012237922299828e+00
2.460450086977751916e+00
2.460450086977751916e+00
2.511264137699515064e+00
2.528889675588243957e+00
2.528889675588243957e+00
2.506013977477339782e+00
2.506013977477339782e+00
2.513139194921720332e+00
2.526639606921598169e+00
2.526639606921598169e+00
2.492326059755241463e+00
2.492326059755241463e+00
2.485575853755302767e+00
2.476950590533158358e+00
2.476950590533158358e+00
2.478263130588702179e+00
2.478263130588702179e+00
2.468325327311013950e+00
2.459700064088869986e+00
2.459700064088869986e+00
2.454824915311136557e+00
2.440386974700155864e+00
2.440386974700155864e+00
2.461387615588854771e+00
2.461387615588854771e+00
2.505638966032898818e+00
2.522326975310525743e+00
2.522326975310525743e+00
2.540515030365916971e+00
2.555327982421338628e+00
2.555327982421338628e+00
2.523639515366069563e+00
2.523639515366069563e+00
2.491013519699698087e+00
2.476013061922055947e+00
2.476013061922055947e+00
2.462512649922177665e+00
2.462512649922177665e+00
2.466637775811029609e+00
2.456699972533341381e+00
2.453699880977813219e+00
2.447324686422315043e+00
2.447324686422315043e+00
2.450137272255623166e+00
2.450137272255623166e+00
2.494013611255226248e+00
2.521201940977202849e+00
2.521201940977202849e+00
2.530202215643787778e+00
2.530202215643787778e+00
2.551577867976928093e+00
2.545390179143650844e+00
2.545390179143650844e+00
2.510326609088412209e+00
2.510326609088412209e+00
2.482200750755333196e+00
2.457449995422223310e+00
2.457449995422223310e+00
2.433261757255775315e+00
2.449012237922299828e+00
2.449012237922299828e+00
2.464012695699941968e+00
2.464012695699941968e+00
2.476763084810937876e+00
2.457262489700002828e+00
2.457262489700002828e+00
2.465700247199926753e+00
2.517451826532791870e+00
2.512764183477279367e+00
2.512764183477279367e+00
2.511451643421735547e+00
2.511451643421735547e+00
2.533952330088198757e+00
2.507701528977324568e+00
2.507701528977324568e+00
2.482388256477553679e+00
2.482388256477553679e+00
2.471887936033204003e+00
2.494763634144108178e+00
2.494763634144108178e+00
2.496263679921872480e+00
2.488950956755272337e+00
2.488950956755272337e+00
2.489325968199713301e+00
2.489325968199713301e+00
2.485388348033082284e+00
2.467200292977691056e+00
2.467200292977691056e+00
2.495138645588549586e+00
2.495138645588549586e+00
2.532827295754875419e+00
2.500388805810724424e+00
2.498888760032960121e+00
2.498888760032960121e+00
2.488950956755272337e+00
2.488950956755272337e+00
2.478825647755364070e+00
2.478450636310922661e+00
2.478450636310922661e+00
2.476013061922055947e+00
2.476013061922055947e+00
2.476763084810937876e+00
2.481263222144230340e+00
2.481263222144230340e+00
2.472262947477644968e+00
2.472262947477644968e+00
2.464387707144383377e+00
2.458762535477767130e+00
2.458762535477767130e+00
2.453324869533372254e+00
2.453324869533372254e+00
2.486888393810846587e+00
2.526452101199377687e+00
2.526452101199377687e+00
2.530764732810449669e+00
2.530764732810449669e+00
2.545577684865871326e+00
2.545577684865871326e+00
2.545577684865871326e+00
2.518576860866115208e+00
2.518576860866115208e+00
2.497388714255195818e+00
2.473575487533188788e+00
2.473575487533188788e+00
2.457637501144443792e+00
2.453137363811151772e+00
2.453137363811151772e+00
2.441512009033478758e+00
2.441512009033478758e+00
2.444512100589007364e+00
2.437761894589068223e+00
2.437761894589068223e+00
2.452199835200048916e+00
2.452199835200048916e+00
2.503013885921811621e+00
2.528702169866023475e+00
2.528702169866023475e+00
2.529077181310464884e+00
2.529077181310464884e+00
2.545952696310312291e+00
2.533952330088198757e+00
2.533952330088198757e+00
2.504326425977354997e+00
2.504326425977354997e+00
2.484638325144199911e+00
2.465887752922147680e+00
2.465887752922147680e+00
2.467012787255470574e+00
2.467012787255470574e+00
2.467762810144352947e+00
2.454824915311136557e+00
2.454824915311136557e+00
2.455387432477798004e+00
2.436074343089083438e+00
2.436074343089083438e+00
2.440949491866817311e+00
2.440949491866817311e+00
2.489700979644154266e+00
2.503388897366253030e+00
2.540515030365916971e+00
2.540515030365916971e+00
2.562640705587938772e+00
2.562640705587938772e+00
2.542202581865901756e+00
2.505076448866237371e+00
2.505076448866237371e+00
2.498888760032960121e+00
2.498888760032960121e+00
2.484450819421979428e+00
2.475263039033173573e+00
2.475263039033173573e+00
2.472075441755424485e+00
2.472075441755424485e+00
2.472075441755424485e+00
2.467200292977691056e+00
2.467200292977691056e+00
2.460825098422192880e+00
2.460825098422192880e+00
2.490826013977477604e+00
2.529639698477126331e+00
2.529639698477126331e+00
2.541640064699239865e+00
2.541640064699239865e+00
2.543515121921445576e+00
2.542952604754783685e+00
2.542952604754783685e+00
2.516701803643909940e+00
2.473200476088747823e+00
2.473200476088747823e+00
2.463075167088839557e+00
2.463075167088839557e+00
2.457825006866664719e+00
2.456324961088900860e+00
2.456324961088900860e+00
2.443574571977904952e+00
2.443574571977904952e+00
2.404948393200476264e+00
2.420886379589221260e+00
2.420886379589221260e+00
2.455012421033357040e+00
2.506201483199560265e+00
2.506201483199560265e+00
2.545765190588091809e+00
2.556828028199102931e+00
2.556828028199102931e+00
2.553452925199133361e+00
2.523827021088290046e+00
2.523827021088290046e+00
2.501326334421826836e+00
2.501326334421826836e+00
2.489888485366374749e+00
2.471887936033204003e+00
2.471887936033204003e+00
2.463637684255501004e+00
2.463637684255501004e+00
2.470575395977660182e+00
2.462700155644398592e+00
2.462700155644398592e+00
2.460825098422192880e+00
2.460825098422192880e+00
2.449949766533402684e+00
2.465325235755485789e+00
2.465325235755485789e+00
2.501138828699606353e+00
2.512951689199499850e+00
2.512951689199499850e+00
2.517826837977233279e+00
2.517826837977233279e+00
2.529639698477126331e+00
2.521764458143864296e+00
2.521764458143864296e+00
2.491388531144139051e+00
2.491388531144139051e+00
2.477888119144261214e+00
2.479388164922025517e+00
2.479388164922025517e+00
2.476200567644276429e+00
2.476200567644276429e+00
2.457637501144443792e+00
2.468325327311013950e+00
2.468325327311013950e+00
2.476388073366496911e+00
2.476388073366496911e+00
2.469450361644337288e+00
2.479200659199805035e+00
2.479200659199805035e+00
2.512201666310617476e+00
2.523076998199408116e+00
2.523076998199408116e+00
2.530389721366008260e+00
2.530389721366008260e+00
2.530577227088229186e+00
2.505638966032898818e+00
2.505638966032898818e+00
2.466825281533250092e+00
2.466825281533250092e+00
2.453324869533372254e+00
2.449949766533402684e+00
2.449949766533402684e+00
2.458012512588885201e+00
2.458012512588885201e+00
2.449012237922299828e+00
2.449199743644520311e+00
2.449199743644520311e+00
2.455949949644459451e+00
2.455949949644459451e+00
2.454262398144474666e+00
2.490826013977477604e+00
2.490826013977477604e+00
2.528514664143802992e+00
2.541827570421460791e+00
2.541827570421460791e+00
2.558890591143528681e+00
2.558890591143528681e+00
2.555327982421338628e+00
2.512764183477279367e+00
2.512764183477279367e+00
2.486513382366405178e+00
2.486513382366405178e+00
2.469450361644337288e+00
2.453324869533372254e+00
2.453324869533372254e+00
2.454262398144474666e+00
2.454262398144474666e+00
2.448262215033417899e+00
2.454824915311136557e+00
2.454824915311136557e+00
2.445074617755668811e+00
2.445074617755668811e+00
2.445637134922330258e+00
2.492513565477461945e+00
2.492513565477461945e+00
2.521764458143864296e+00
2.528327158421582510e+00
2.528327158421582510e+00
2.550077822199164235e+00
2.542577593310342721e+00
2.542577593310342721e+00
2.510139103366191726e+00
2.510139103366191726e+00
2.485575853755302767e+00
2.473200476088747823e+00
2.473200476088747823e+00
2.446387157811212187e+00
2.446387157811212187e+00
2.445449629200109776e+00
2.447887203588976490e+00
2.447887203588976490e+00
2.450512283700064131e+00
2.450512283700064131e+00
2.435699331644642474e+00
2.448074709311197417e+00
2.448074709311197417e+00
2.505076448866237371e+00
2.505076448866237371e+00
2.540140018921475562e+00
2.544077639088107023e+00
2.544077639088107023e+00
2.553452925199133361e+00
2.528514664143802992e+00
2.528514664143802992e+00
2.490638508255257122e+00
2.490638508255257122e+00
2.481638233588671305e+00
2.466075258644368162e+00
2.466075258644368162e+00
2.459700064088869986e+00
2.459700064088869986e+00
2.452199835200048916e+00
2.450137272255623166e+00
2.450137272255623166e+00
2.455949949644459451e+00
2.455949949644459451e+00
2.457825006866664719e+00
2.486700888088625661e+00
2.527577135532700581e+00
2.534889858699301168e+00
2.534889858699301168e+00
2.547827753532517558e+00
2.547452742088076594e+00
2.547452742088076594e+00
2.508451551866206941e+00
2.508451551866206941e+00
2.476763084810937876e+00
2.467950315866573430e+00
2.467950315866573430e+00
2.456512466811120898e+00
2.456512466811120898e+00
2.455012421033357040e+00
2.445262123477889293e+00
2.445262123477889293e+00
2.453137363811151772e+00
2.453137363811151772e+00
2.456887478255561863e+00
2.449387249366740793e+00
2.449387249366740793e+00
2.491763542588580016e+00
2.491763542588580016e+00
2.527389629810480098e+00
2.533577318643757348e+00
2.533577318643757348e+00
2.553827936643574326e+00
2.540890041810357936e+00
2.540890041810357936e+00
2.503951414532914033e+00
2.477700613422040732e+00
2.477700613422040732e+00
2.458950041199987613e+00
2.458950041199987613e+00
2.453887386700033701e+00
2.463450178533280521e+00
2.463450178533280521e+00
2.460637592699972398e+00
2.460637592699972398e+00
2.463637684255501004e+00
2.455199926755577522e+00
2.455199926755577522e+00
2.463825189977721486e+00
2.463825189977721486e+00
2.506201483199560265e+00
2.522701986754967152e+00
2.522701986754967152e+00
2.529264687032685366e+00
2.529264687032685366e+00
2.546890224921415147e+00
2.537889950254829774e+00
2.537889950254829774e+00
2.499263771477401086e+00
2.477325601977599767e+00
2.477325601977599767e+00
2.460825098422192880e+00
2.460825098422192880e+00
2.465700247199926753e+00
2.463075167088839557e+00
2.463075167088839557e+00
2.449574755088961275e+00
2.449574755088961275e+00
2.443762077700125435e+00
2.424823999755851833e+00
2.424823999755851833e+00
2.465887752922147680e+00
2.465887752922147680e+00
2.530014709921567295e+00
2.528702169866023475e+00
2.528702169866023475e+00
2.526639606921598169e+00
2.547077730643635629e+00
2.547077730643635629e+00
2.510889126255073656e+00
2.510889126255073656e+00
2.492513565477461945e+00
2.489888485366374749e+00
2.489888485366374749e+00
2.482013245033112270e+00
2.482013245033112270e+00
2.478450636310922661e+00
2.456137455366679934e+00
2.456137455366679934e+00
2.443949583422345917e+00
2.443949583422345917e+00
2.440386974700155864e+00
2.434199285866878171e+00
2.434199285866878171e+00
2.470012878810998735e+00
2.470012878810998735e+00
2.511264137699515064e+00
2.531139744254890633e+00
2.548765282143620414e+00
2.543140110477004168e+00
2.543140110477004168e+00
2.506764000366222156e+00
2.480888210699789376e+00
2.480888210699789376e+00
2.475825556199835464e+00
2.475825556199835464e+00
2.462887661366619074e+00
2.466450270088809127e+00
2.466450270088809127e+00
2.457074983977782345e+00
2.460262581255531433e+00
2.460262581255531433e+00
2.447137180700094561e+00
2.447137180700094561e+00
2.443199560533463544e+00
2.499263771477401086e+00
2.499263771477401086e+00
2.528514664143802992e+00
2.528514664143802992e+00
2.533389812921536866e+00
2.554015442365794808e+00
2.554015442365794808e+00
2.543702627643666059e+00
2.543702627643666059e+00
2.506201483199560265e+00
2.481638233588671305e+00
2.481638233588671305e+00
2.452949858088931290e+00
2.452949858088931290e+00
2.435886837366862956e+00
2.448637226477858864e+00
2.448637226477858864e+00
2.449387249366740793e+00
2.459512558366649504e+00
2.459512558366649504e+00
2.452574846644489881e+00
2.452574846644489881e+00
2.470200384533219218e+00
2.517639332255012796e+00
2.532827295754875419e+00
2.532827295754875419e+00
2.540890041810357936e+00
2.550452833643604755e+00
2.550452833643604755e+00
2.520639423810540958e+00
2.520639423810540958e+00
2.483888302255317981e+00
2.474325510422071162e+00
2.474325510422071162e+00
2.459512558366649504e+00
2.459512558366649504e+00
2.456699972533341381e+00
2.459700064088869986e+00
2.459700064088869986e+00
2.456512466811120898e+00
2.466262764366588645e+00
2.466262764366588645e+00
2.454824915311136557e+00
2.480325693533127485e+00
2.480325693533127485e+00
2.514076723532822744e+00
2.511076631977294138e+00
2.511076631977294138e+00
2.528702169866023475e+00
2.528702169866023475e+00
2.546140202032532773e+00
2.521576952421643814e+00
2.521576952421643814e+00
2.497576219977416301e+00
2.497576219977416301e+00
2.487825922421948999e+00
2.467575304422132465e+00
2.467575304422132465e+00
2.454637409588916075e+00
2.455387432477798004e+00
2.455387432477798004e+00
2.446949674977874079e+00
2.446949674977874079e+00
2.424073976866969904e+00
2.405698416089358194e+00
2.405698416089358194e+00
2.458387524033326166e+00
2.458387524033326166e+00
2.525702078310495757e+00
2.537139927365947845e+00
2.537139927365947845e+00
2.551952879421369058e+00
2.547640247810297076e+00
2.547640247810297076e+00
2.515201757866145638e+00
2.515201757866145638e+00
2.487263405255287552e+00
2.471700430310983521e+00
2.471700430310983521e+00
2.456512466811120898e+00
2.456512466811120898e+00
2.458950041199987613e+00
2.455012421033357040e+00
2.455012421033357040e+00
2.459700064088869986e+00
2.459700064088869986e+00
2.449574755088961275e+00
2.461200109866634289e+00
2.461200109866634289e+00
2.505263954588457853e+00
2.525702078310495757e+00
2.525702078310495757e+00
2.538639973143711703e+00
2.538639973143711703e+00
2.550452833643604755e+00
2.531702261421552080e+00
2.531702261421552080e+00
2.492888576921902910e+00
2.492888576921902910e+00
2.473762993255409270e+00
2.460262581255531433e+00
2.460262581255531433e+00
2.459137546922208095e+00
2.459137546922208095e+00
2.461575121311075254e+00
2.458012512588885201e+00
2.458012512588885201e+00
2.459325052644428578e+00
2.459325052644428578e+00
2.445637134922330258e+00
2.468325327311013950e+00
2.468325327311013950e+00
2.512389172032837958e+00
2.512389172032837958e+00
2.523827021088290046e+00
2.536389904477065471e+00
2.541827570421460791e+00
2.541827570421460791e+00
2.508826563310647906e+00
2.479388164922025517e+00
2.479388164922025517e+00
2.477325601977599767e+00
2.477325601977599767e+00
2.465137730033265306e+00
2.462700155644398592e+00
2.462700155644398592e+00
2.459325052644428578e+00
2.462512649922177665e+00
2.462512649922177665e+00
2.459512558366649504e+00
2.459512558366649504e+00
2.451637318033387469e+00
2.485950865199743731e+00
2.485950865199743731e+00
2.523264503921628599e+00
2.523264503921628599e+00
2.529264687032685366e+00
2.542390087588122238e+00
2.542390087588122238e+00
2.537889950254829774e+00
2.537889950254829774e+00
2.509389080477309353e+00
2.490263496810816157e+00
2.490263496810816157e+00
2.479763176366466482e+00
2.479763176366466482e+00
2.461387615588854771e+00
2.453887386700033701e+00
2.453887386700033701e+00
2.439636951811273491e+00
2.443574571977904952e+00
2.443574571977904952e+00
2.438886928922391562e+00
2.446574663533433114e+00
2.446574663533433114e+00
2.490826013977477604e+00
2.524389538254951937e+00
2.536764915921506436e+00
2.536764915921506436e+00
2.562078188421277325e+00
2.544077639088107023e+00
2.544077639088107023e+00
2.513139194921720332e+00
2.491388531144139051e+00
2.491388531144139051e+00
2.473012970366527341e+00
2.473012970366527341e+00
2.461012604144413807e+00
2.450699789422284613e+00
2.450699789422284613e+00
2.449199743644520311e+00
2.449199743644520311e+00
2.452574846644489881e+00
2.437761894589068223e+00
2.437761894589068223e+00
2.456699972533341381e+00
2.456699972533341381e+00
2.489325968199713301e+00
2.519701895199438546e+00
2.519701895199438546e+00
2.535077364421521651e+00
2.550640339365825238e+00
2.550640339365825238e+00
2.530202215643787778e+00
2.530202215643787778e+00
2.484638325144199911e+00
2.476200567644276429e+00
2.476200567644276429e+00
2.463262672811060039e+00
2.463262672811060039e+00
2.453512375255592737e+00
2.455949949644459451e+00
2.455949949644459451e+00
2.455574938200018487e+00
2.455574938200018487e+00
2.457074983977782345e+00
2.446199652088991705e+00
2.446199652088991705e+00
2.470012878810998735e+00
2.470012878810998735e+00
2.514826746421705117e+00
2.527389629810480098e+00
2.527389629810480098e+00
2.537327433088168327e+00
2.545577684865871326e+00
2.545577684865871326e+00
2.521951963866084778e+00
2.521951963866084778e+00
2.488388439588610446e+00
2.466637775811029609e+00
2.466637775811029609e+00
2.453324869533372254e+00
2.453324869533372254e+00
2.459700064088869986e+00
2.463262672811060039e+00
2.463262672811060039e+00
2.457262489700002828e+00
2.457262489700002828e+00
2.451637318033387469e+00
2.447324686422315043e+00
2.447324686422315043e+00
2.480700704977568893e+00
2.480700704977568893e+00
2.513701712088381779e+00
2.522701986754967152e+00
2.522701986754967152e+00
2.537327433088168327e+00
2.537327433088168327e+00
2.530952238532670151e+00
2.499076265755180604e+00
2.499076265755180604e+00
2.483513290810876573e+00
2.472450453199865894e+00
2.472450453199865894e+00
2.460262581255531433e+00
2.460262581255531433e+00
2.462325144199957183e+00
2.457449995422223310e+00
2.457449995422223310e+00
2.458200018311105683e+00
2.458200018311105683e+00
2.448637226477858864e+00
2.455949949644459451e+00
2.455949949644459451e+00
2.503951414532914033e+00
2.529827204199346813e+00
2.529827204199346813e+00
2.534514847254860204e+00
2.534514847254860204e+00
2.549702810754722826e+00
2.534514847254860204e+00
2.534514847254860204e+00
2.497951231421857266e+00
2.497951231421857266e+00
2.477513107699820250e+00
2.463075167088839557e+00
2.463075167088839557e+00
2.460450086977751916e+00
2.458575029755546648e+00
2.458575029755546648e+00
2.455574938200018487e+00
2.455574938200018487e+00
2.460637592699972398e+00
2.440949491866817311e+00
2.440949491866817311e+00
2.455387432477798004e+00
2.455387432477798004e+00
2.503201391644032547e+00
2.518389355143894726e+00
2.518389355143894726e+00
2.527389629810480098e+00
2.527389629810480098e+00
2.538452467421491221e+00
2.520264412366099993e+00
2.520264412366099993e+00
2.490638508255257122e+00
2.490638508255257122e+00
2.481638233588671305e+00
2.467950315866573430e+00
2.467950315866573430e+00
2.469262855922116806e+00
2.469262855922116806e+00
2.466262764366588645e+00
2.462512649922177665e+00
2.462512649922177665e+00
2.460450086977751916e+00
2.448824732200079346e+00
2.448824732200079346e+00
2.475825556199835464e+00
2.475825556199835464e+00
2.521014435254982367e+00
2.521014435254982367e+00
2.536577410199285953e+00
2.534702352977080686e+00
2.534702352977080686e+00
2.506201483199560265e+00
2.506201483199560265e+00
2.481825739310891787e+00
2.465512741477706271e+00
2.465512741477706271e+00
2.455199926755577522e+00
2.455762443922238969e+00
2.455762443922238969e+00
2.446574663533433114e+00
2.446574663533433114e+00
2.452012329477828434e+00
2.453137363811151772e+00
2.453137363811151772e+00
2.453512375255592737e+00
2.453512375255592737e+00
2.496638691366313889e+00
2.526827112643818651e+00
2.526827112643818651e+00
2.536764915921506436e+00
2.554390453810235773e+00
2.554390453810235773e+00
2.540702536088137453e+00
2.540702536088137453e+00
2.501138828699606353e+00
2.473387981810968306e+00
2.473387981810968306e+00
2.455574938200018487e+00
2.455574938200018487e+00
2.455574938200018487e+00
2.453512375255592737e+00
2.453512375255592737e+00
2.454262398144474666e+00
2.457449995422223310e+00
2.457449995422223310e+00
2.443199560533463544e+00
2.443199560533463544e+00
2.457074983977782345e+00
2.505263954588457853e+00
2.505263954588457853e+00
2.527577135532700581e+00
2.527577135532700581e+00
2.535264870143742133e+00
2.545390179143650844e+00
2.545390179143650844e+00
2.519326883754997581e+00
2.519326883754997581e+00
2.486888393810846587e+00
2.477700613422040732e+00
2.477700613422040732e+00
2.462887661366619074e+00
2.462887661366619074e+00
2.455012421033357040e+00
2.457449995422223310e+00
2.457449995422223310e+00
2.457262489700002828e+00
2.458762535477767130e+00
2.458762535477767130e+00
2.448074709311197417e+00
2.448074709311197417e+00
2.469262855922116806e+00
2.515764275032807085e+00
2.515764275032807085e+00
2.528139652699362028e+00
2.528139652699362028e+00
2.543140110477004168e+00
2.555140476699118146e+00
2.555140476699118146e+00
2.522326975310525743e+00
2.522326975310525743e+00
2.485388348033082284e+00
2.473200476088747823e+00
2.473200476088747823e+00
2.462325144199957183e+00
2.462325144199957183e+00
2.456137455366679934e+00
2.455574938200018487e+00
2.455574938200018487e+00
2.461200109866634289e+00
2.461200109866634289e+00
2.453324869533372254e+00
2.450699789422284613e+00
2.450699789422284613e+00
2.482575762199774161e+00
2.512389172032837958e+00
2.512389172032837958e+00
2.520076906643879511e+00
2.520076906643879511e+00
2.533952330088198757e+00
2.524577043977172419e+00
2.503388897366253030e+00
2.484263313699758946e+00
2.484263313699758946e+00
2.458575029755546648e+00
2.453137363811151772e+00
2.453137363811151772e+00
2.458387524033326166e+00
2.458387524033326166e+00
2.447324686422315043e+00
2.441324503311258276e+00
2.441324503311258276e+00
2.438886928922391562e+00
2.438886928922391562e+00
2.448824732200079346e+00
2.498138737144077748e+00
2.498138737144077748e+00
2.525702078310495757e+00
2.525702078310495757e+00
2.531889767143772563e+00
2.550827845088045720e+00
2.550827845088045720e+00
2.532077272865993045e+00
2.532077272865993045e+00
2.499076265755180604e+00
2.483700796533097499e+00
2.483700796533097499e+00
2.470762901699881109e+00
2.462512649922177665e+00
2.462512649922177665e+00
2.453699880977813219e+00
2.453699880977813219e+00
2.450887295144505096e+00
2.456324961088900860e+00
2.456324961088900860e+00
2.442262031922361132e+00
2.442262031922361132e+00
2.462137638477736701e+00
2.510139103366191726e+00
2.510139103366191726e+00
2.539202490310373150e+00
2.539202490310373150e+00
2.548015259254738041e+00
2.548015259254738041e+00
2.520639423810540958e+00
2.477700613422040732e+00
2.477700613422040732e+00
2.468700338755454915e+00
2.468700338755454915e+00
2.457262489700002828e+00
2.453324869533372254e+00
2.453324869533372254e+00
2.457449995422223310e+00
2.457449995422223310e+00
2.457074983977782345e+00
2.456887478255561863e+00
2.448262215033417899e+00
2.448262215033417899e+00
2.474138004699850679e+00
2.474138004699850679e+00
2.508451551866206941e+00
2.522514481032746669e+00
2.522514481032746669e+00
2.533764824365978274e+00
2.533764824365978274e+00
2.537514938810388809e+00
2.506201483199560265e+00
2.506201483199560265e+00
2.481263222144230340e+00
2.473575487533188788e+00
2.473575487533188788e+00
2.464575212866603859e+00
2.464575212866603859e+00
2.465887752922147680e+00
2.465325235755485789e+00
2.465325235755485789e+00
2.466825281533250092e+00
2.466825281533250092e+00
2.458387524033326166e+00
2.456887478255561863e+00
2.456887478255561863e+00
2.495138645588549586e+00
2.495138645588549586e+00
2.518951872310556173e+00
2.524202032532731454e+00
2.524202032532731454e+00
2.541452558977019383e+00
2.528889675588243957e+00
2.528889675588243957e+00
2.495701162755211033e+00
2.495701162755211033e+00
2.473575487533188788e+00
2.463262672811060039e+00
2.463262672811060039e+00
2.460450086977751916e+00
2.460450086977751916e+00
2.460637592699972398e+00
2.458950041199987613e+00
2.458950041199987613e+00
2.463262672811060039e+00
2.463262672811060039e+00
2.448824732200079346e+00
2.456699972533341381e+00
2.456699972533341381e+00
2.494576128421887695e+00
2.494576128421887695e+00
2.518014343699453761e+00
2.525514572588274831e+00
2.525514572588274831e+00
2.547077730643635629e+00
2.532077272865993045e+00
2.532077272865993045e+00
2.497951231421857266e+00
2.497951231421857266e+00
2.480138187810907002e+00
2.461762627033295736e+00
2.461762627033295736e+00
2.453699880977813219e+00
2.453699880977813219e+00
2.444887112033448329e+00
2.450887295144505096e+00
2.450887295144505096e+00
2.460075075533310951e+00
2.460075075533310951e+00
2.446387157811212187e+00
2.467762810144352947e+00
2.467762810144352947e+00
2.512951689199499850e+00
2.512951689199499850e+00
2.529639698477126331e+00
2.545202673421430362e+00
2.545202673421430362e+00
2.549140293588061379e+00
2.515389263588366120e+00
2.515389263588366120e+00
2.479575670644245999e+00
2.479575670644245999e+00
2.466450270088809127e+00
2.453137363811151772e+00
2.453137363811151772e+00
2.449012237922299828e+00
2.449012237922299828e+00
2.450887295144505096e+00
2.452762352366710363e+00
2.452762352366710363e+00
2.455199926755577522e+00
2.444512100589007364e+00
2.444512100589007364e+00
2.485575853755302767e+00
2.485575853755302767e+00
2.522326975310525743e+00
2.518576860866115208e+00
2.518576860866115208e+00
2.538639973143711703e+00
2.538639973143711703e+00
2.544640156254768470e+00
2.509201574755088870e+00
2.509201574755088870e+00
2.477325601977599767e+00
2.477325601977599767e+00
2.463637684255501004e+00
2.459700064088869986e+00
2.459700064088869986e+00
2.463450178533280521e+00
2.463450178533280521e+00
2.457074983977782345e+00
2.459512558366649504e+00
2.459512558366649504e+00
2.453699880977813219e+00
2.453699880977813219e+00
2.458012512588885201e+00
2.497201208532975336e+00
2.497201208532975336e+00
2.519514389477218064e+00
2.523264503921628599e+00
2.545577684865871326e+00
2.545577684865871326e+00
2.531514755699331598e+00
2.531514755699331598e+00
2.495138645588549586e+00
2.473575487533188788e+00
2.473575487533188788e+00
2.458012512588885201e+00
2.458012512588885201e+00
2.451824823755607952e+00
2.456324961088900860e+00
2.456324961088900860e+00
2.457449995422223310e+00
2.462700155644398592e+00
2.462700155644398592e+00
2.448824732200079346e+00
2.448824732200079346e+00
2.467200292977691056e+00
2.504326425977354997e+00
2.504326425977354997e+00
2.516889309366130423e+00
2.516889309366130423e+00
2.530577227088229186e+00
2.542952604754783685e+00
2.542952604754783685e+00
2.521764458143864296e+00
2.521764458143864296e+00
2.486888393810846587e+00
2.473575487533188788e+00
2.473575487533188788e+00
2.461012604144413807e+00
2.461012604144413807e+00
2.461950132755516218e+00
2.464387707144383377e+00
2.464387707144383377e+00
2.462887661366619074e+00
2.467200292977691056e+00
2.467200292977691056e+00
2.450887295144505096e+00
2.450887295144505096e+00
2.470950407422101591e+00
2.508639057588427423e+00
2.508639057588427423e+00
2.521764458143864296e+00
2.521764458143864296e+00
2.542390087588122238e+00
2.547452742088076594e+00
2.547452742088076594e+00
2.508076540421765976e+00
2.508076540421765976e+00
2.473762993255409270e+00
