2.588704000976592479e+00
2.591516586809900158e+00
2.591516586809900158e+00
2.591516586809900158e+00
2.544265144810327506e+00
2.544265144810327506e+00
2.544265144810327506e+00
2.485763359477523249e+00
2.485763359477523249e+00
2.485763359477523249e+00
2.485763359477523249e+00
2.473200476088747823e+00
2.473200476088747823e+00
2.473200476088747823e+00
2.443199560533463544e+00
2.443199560533463544e+00
2.443199560533463544e+00
2.481450727866450823e+00
2.481450727866450823e+00
2.481450727866450823e+00
2.481450727866450823e+00
2.476950590533158358e+00
2.476950590533158358e+00
2.476950590533158358e+00
2.458200018311105683e+00
2.458200018311105683e+00
2.458200018311105683e+00
2.458200018311105683e+00
2.471887936033204003e+00
2.471887936033204003e+00
2.471887936033204003e+00
2.453324869533372254e+00
2.453324869533372254e+00
2.453324869533372254e+00
2.453324869533372254e+00
2.476013061922055947e+00
2.476013061922055947e+00
2.476013061922055947e+00
2.530764732810449669e+00
2.530764732810449669e+00
2.530764732810449669e+00
2.544452650532547988e+00
2.544452650532547988e+00
2.544452650532547988e+00
2.544452650532547988e+00
2.572953520310068409e+00
2.572953520310068409e+00
2.572953520310068409e+00
2.583078829309976676e+00
2.583078829309976676e+00
2.583078829309976676e+00
2.583078829309976676e+00
2.555890499588000075e+00
2.555890499588000075e+00
2.555890499588000075e+00
2.531139744254890633e+00
2.531139744254890633e+00
2.531139744254890633e+00
2.531139744254890633e+00
2.500388805810724424e+00
2.500388805810724424e+00
2.500388805810724424e+00
2.474513016144291644e+00
2.474513016144291644e+00
2.474513016144291644e+00
2.493826105533005766e+00
2.493826105533005766e+00
2.493826105533005766e+00
2.493826105533005766e+00
2.485950865199743731e+00
2.485950865199743731e+00
2.485950865199743731e+00
2.475638050477614982e+00
2.475638050477614982e+00
2.475638050477614982e+00
2.475638050477614982e+00
2.466825281533250092e+00
2.466825281533250092e+00
2.466825281533250092e+00
2.471700430310983521e+00
2.471700430310983521e+00
2.471700430310983521e+00
2.471700430310983521e+00
2.506764000366222156e+00
2.506764000366222156e+00
2.506764000366222156e+00
2.540890041810357936e+00
2.540890041810357936e+00
2.540890041810357936e+00
2.540890041810357936e+00
2.589829035309915373e+00
2.589829035309915373e+00
2.589829035309915373e+00
2.561703176976836804e+00
2.561703176976836804e+00
2.524202032532731454e+00
2.524202032532731454e+00
2.524202032532731454e+00
2.524202032532731454e+00
2.477700613422040732e+00
2.477700613422040732e+00
2.477700613422040732e+00
2.473762993255409270e+00
2.473762993255409270e+00
2.473762993255409270e+00
2.473762993255409270e+00
2.479575670644245999e+00
2.479575670644245999e+00
2.479575670644245999e+00
2.473012970366527341e+00
2.473012970366527341e+00
2.473012970366527341e+00
2.453324869533372254e+00
2.453324869533372254e+00
2.453324869533372254e+00
2.453324869533372254e+00
2.469262855922116806e+00
2.469262855922116806e+00
2.469262855922116806e+00
2.518201849421674243e+00
2.518201849421674243e+00
2.518201849421674243e+00
2.473950498977630197e+00
2.473950498977630197e+00
2.473950498977630197e+00
2.473950498977630197e+00
2.452949858088931290e+00
2.452949858088931290e+00
2.452949858088931290e+00
2.518201849421674243e+00
2.518201849421674243e+00
2.518201849421674243e+00
2.528139652699362028e+00
2.528139652699362028e+00
2.528139652699362028e+00
2.528139652699362028e+00
2.556078005310220558e+00
2.556078005310220558e+00
2.556078005310220558e+00
2.593579149754326352e+00
2.593579149754326352e+00
2.595829218420972584e+00
2.595829218420972584e+00
2.595829218420972584e+00
2.554765465254677181e+00
2.554765465254677181e+00
2.554765465254677181e+00
2.542390087588122238e+00
2.542390087588122238e+00
2.542390087588122238e+00
2.542390087588122238e+00
2.498138737144077748e+00
2.498138737144077748e+00
2.498138737144077748e+00
2.506576494644001674e+00
2.506576494644001674e+00
2.506576494644001674e+00
2.506576494644001674e+00
2.527202124088259172e+00
2.527202124088259172e+00
2.527202124088259172e+00
2.470950407422101591e+00
2.470950407422101591e+00
2.470950407422101591e+00
2.441136997589037794e+00
2.441136997589037794e+00
2.441136997589037794e+00
2.441136997589037794e+00
2.420323862422559369e+00
2.420323862422559369e+00
2.420323862422559369e+00
2.422948942533646566e+00
2.422948942533646566e+00
2.422948942533646566e+00
2.422948942533646566e+00
2.482388256477553679e+00
2.482388256477553679e+00
2.482388256477553679e+00
2.492326059755241463e+00
2.492326059755241463e+00
2.492326059755241463e+00
2.524952055421613384e+00
2.524952055421613384e+00
2.524952055421613384e+00
2.524952055421613384e+00
2.591329081087679675e+00
2.591329081087679675e+00
2.591329081087679675e+00
2.573703543198950339e+00
2.573703543198950339e+00
2.573703543198950339e+00
2.573703543198950339e+00
2.560015625476852019e+00
2.560015625476852019e+00
2.560015625476852019e+00
2.526827112643818651e+00
2.526827112643818651e+00
2.526827112643818651e+00
2.500951322977385871e+00
2.500951322977385871e+00
2.500951322977385871e+00
2.500951322977385871e+00
2.494763634144108178e+00
2.494763634144108178e+00
2.494763634144108178e+00
2.497013702810754854e+00
2.497013702810754854e+00
2.497013702810754854e+00
2.497013702810754854e+00
2.487450910977508034e+00
2.487450910977508034e+00
2.487450910977508034e+00
2.471700430310983521e+00
2.471700430310983521e+00
2.471700430310983521e+00
2.471700430310983521e+00
2.435886837366862956e+00
2.435886837366862956e+00
2.435886837366862956e+00
2.451074800866725578e+00
2.451074800866725578e+00
2.451074800866725578e+00
2.515576769310586602e+00
2.515576769310586602e+00
2.515576769310586602e+00
2.515576769310586602e+00
2.542202581865901756e+00
2.542202581865901756e+00
2.542202581865901756e+00
2.583641346476638123e+00
2.583641346476638123e+00
2.583641346476638123e+00
2.583641346476638123e+00
2.597329264198736443e+00
2.597329264198736443e+00
2.597329264198736443e+00
2.575391094698934680e+00
2.575391094698934680e+00
2.575391094698934680e+00
2.556640522476882449e+00
2.556640522476882449e+00
2.556640522476882449e+00
2.556640522476882449e+00
2.495513657032990551e+00
2.495513657032990551e+00
2.495513657032990551e+00
2.521951963866084778e+00
2.521951963866084778e+00
2.521951963866084778e+00
2.521951963866084778e+00
2.493826105533005766e+00
2.493826105533005766e+00
2.493826105533005766e+00
2.467387798699911539e+00
2.467387798699911539e+00
2.467012787255470574e+00
2.467012787255470574e+00
2.467012787255470574e+00
2.467012787255470574e+00
2.448449720755638381e+00
2.448449720755638381e+00
2.448449720755638381e+00
2.448637226477858864e+00
2.448637226477858864e+00
2.448637226477858864e+00
2.481263222144230340e+00
2.481263222144230340e+00
2.481263222144230340e+00
2.481263222144230340e+00
2.441136997589037794e+00
2.441136997589037794e+00
2.441136997589037794e+00
2.501701345866268245e+00
2.501701345866268245e+00
2.501701345866268245e+00
2.548390270699179450e+00
2.548390270699179450e+00
2.548390270699179450e+00
2.548390270699179450e+00
2.554390453810235773e+00
2.554390453810235773e+00
2.554390453810235773e+00
2.527952146977141545e+00
2.527952146977141545e+00
2.527952146977141545e+00
2.550077822199164235e+00
2.550077822199164235e+00
2.550077822199164235e+00
2.550077822199164235e+00
2.536952421643726918e+00
2.536952421643726918e+00
2.536952421643726918e+00
2.479200659199805035e+00
2.479200659199805035e+00
2.479200659199805035e+00
2.479200659199805035e+00
2.493076082644123392e+00
2.493076082644123392e+00
2.493076082644123392e+00
2.479388164922025517e+00
2.479388164922025517e+00
2.479388164922025517e+00
2.498888760032960121e+00
2.498888760032960121e+00
2.498888760032960121e+00
2.498888760032960121e+00
2.473387981810968306e+00
2.473387981810968306e+00
2.473387981810968306e+00
2.478825647755364070e+00
2.478825647755364070e+00
2.478825647755364070e+00
2.478825647755364070e+00
2.478825647755364070e+00
2.478825647755364070e+00
2.478825647755364070e+00
2.502451368755150174e+00
2.502451368755150174e+00
2.502451368755150174e+00
2.560953154087954431e+00
2.560953154087954431e+00
2.560953154087954431e+00
2.560953154087954431e+00
2.579703726310007106e+00
2.579703726310007106e+00
2.579703726310007106e+00
2.560953154087954431e+00
2.560953154087954431e+00
2.560953154087954431e+00
2.545015167699209435e+00
2.545015167699209435e+00
2.545015167699209435e+00
2.545015167699209435e+00
2.508076540421765976e+00
2.508076540421765976e+00
2.508076540421765976e+00
2.485200842310861358e+00
2.485200842310861358e+00
2.485200842310861358e+00
2.485200842310861358e+00
2.468512833033234433e+00
2.468512833033234433e+00
2.468512833033234433e+00
2.479388164922025517e+00
2.479388164922025517e+00
2.479388164922025517e+00
2.490826013977477604e+00
2.490826013977477604e+00
2.490826013977477604e+00
2.490826013977477604e+00
2.513889217810602261e+00
2.513889217810602261e+00
2.513889217810602261e+00
2.426511551255836618e+00
2.426511551255836618e+00
2.426511551255836618e+00
2.426511551255836618e+00
2.509764091921750762e+00
2.509764091921750762e+00
2.509764091921750762e+00
2.569578417310098839e+00
2.569578417310098839e+00
2.569578417310098839e+00
2.569578417310098839e+00
2.586453932309945802e+00
2.586453932309945802e+00
2.586453932309945802e+00
2.567515854365672645e+00
2.567515854365672645e+00
2.567515854365672645e+00
2.541077547532578418e+00
2.541077547532578418e+00
2.541077547532578418e+00
2.541077547532578418e+00
2.483513290810876573e+00
2.483513290810876573e+00
2.483513290810876573e+00
2.424823999755851833e+00
2.424823999755851833e+00
2.424823999755851833e+00
2.424823999755851833e+00
2.483325785088656090e+00
2.483325785088656090e+00
2.483325785088656090e+00
2.495138645588549586e+00
2.495138645588549586e+00
2.495138645588549586e+00
2.496638691366313889e+00
2.496638691366313889e+00
2.496638691366313889e+00
2.496638691366313889e+00
2.454637409588916075e+00
2.454637409588916075e+00
2.454637409588916075e+00
2.423323953978087530e+00
2.423323953978087530e+00
2.423323953978087530e+00
2.423323953978087530e+00
2.431949217200232383e+00
2.431949217200232383e+00
2.431949217200232383e+00
2.459700064088869986e+00
2.459700064088869986e+00
2.459700064088869986e+00
2.459700064088869986e+00
2.495701162755211033e+00
2.495701162755211033e+00
2.495701162755211033e+00
2.577453657643360874e+00
2.577453657643360874e+00
2.577453657643360874e+00
2.612142216254158100e+00
2.612142216254158100e+00
2.612142216254158100e+00
2.612142216254158100e+00
2.629955259865108363e+00
2.629955259865108363e+00
2.629955259865108363e+00
2.598079287087618372e+00
2.598079287087618372e+00
2.598079287087618372e+00
2.554765465254677181e+00
2.554765465254677181e+00
2.554765465254677181e+00
2.554765465254677181e+00
2.509951597643971244e+00
2.509951597643971244e+00
2.509951597643971244e+00
2.492513565477461945e+00
2.492513565477461945e+00
2.492513565477461945e+00
2.489325968199713301e+00
2.489325968199713301e+00
2.489325968199713301e+00
2.489325968199713301e+00
2.446762169255653596e+00
2.446762169255653596e+00
2.446762169255653596e+00
2.413573656422620228e+00
2.413573656422620228e+00
2.413573656422620228e+00
2.413573656422620228e+00
2.468700338755454915e+00
2.468700338755454915e+00
2.468700338755454915e+00
2.476388073366496911e+00
2.476388073366496911e+00
2.476388073366496911e+00
2.448074709311197417e+00
2.448074709311197417e+00
2.448074709311197417e+00
2.448074709311197417e+00
2.490451002533036640e+00
2.490451002533036640e+00
2.490451002533036640e+00
2.542765099032563203e+00
2.542765099032563203e+00
2.542765099032563203e+00
2.542765099032563203e+00
2.530202215643787778e+00
2.530202215643787778e+00
2.530202215643787778e+00
2.561515671254616322e+00
2.561515671254616322e+00
2.561515671254616322e+00
2.550077822199164235e+00
2.550077822199164235e+00
2.550077822199164235e+00
2.550077822199164235e+00
2.524577043977172419e+00
2.524577043977172419e+00
2.524577043977172419e+00
2.582703817865535711e+00
2.582703817865535711e+00
2.582703817865535711e+00
2.582703817865535711e+00
2.544265144810327506e+00
2.544265144810327506e+00
2.544265144810327506e+00
2.523452009643849081e+00
2.523452009643849081e+00
2.523452009643849081e+00
2.480888210699789376e+00
2.480888210699789376e+00
2.480888210699789376e+00
2.480888210699789376e+00
2.431199194311350009e+00
2.431199194311350009e+00
2.431199194311350009e+00
2.393885555589465142e+00
2.393885555589465142e+00
2.393885555589465142e+00
2.393885555589465142e+00
2.411886104922635443e+00
2.411886104922635443e+00
2.411886104922635443e+00
2.467200292977691056e+00
2.467200292977691056e+00
2.467200292977691056e+00
2.526639606921598169e+00
2.526639606921598169e+00
2.526639606921598169e+00
2.526639606921598169e+00
2.526264595477157204e+00
2.526264595477157204e+00
2.526264595477157204e+00
2.562828211310159254e+00
2.562828211310159254e+00
2.562828211310159254e+00
2.562828211310159254e+00
2.608954618976409012e+00
2.608954618976409012e+00
2.608954618976409012e+00
2.561140659810174913e+00
2.561140659810174913e+00
2.561140659810174913e+00
2.515014252143925599e+00
2.515014252143925599e+00
2.515014252143925599e+00
2.515014252143925599e+00
2.491013519699698087e+00
2.491013519699698087e+00
2.491013519699698087e+00
2.486325876644184696e+00
2.486325876644184696e+00
2.486325876644184696e+00
2.486325876644184696e+00
2.524952055421613384e+00
2.524952055421613384e+00
2.524952055421613384e+00
2.496076174199651998e+00
2.496076174199651998e+00
2.496076174199651998e+00
2.504326425977354997e+00
2.504326425977354997e+00
2.504326425977354997e+00
2.504326425977354997e+00
2.489325968199713301e+00
2.489325968199713301e+00
2.489325968199713301e+00
2.474138004699850679e+00
2.474138004699850679e+00
2.474138004699850679e+00
2.474138004699850679e+00
2.515951780755027567e+00
2.515951780755027567e+00
2.515951780755027567e+00
2.522889492477187634e+00
2.522889492477187634e+00
2.522889492477187634e+00
2.522889492477187634e+00
2.512764183477279367e+00
2.512764183477279367e+00
2.512764183477279367e+00
2.510139103366191726e+00
2.510139103366191726e+00
2.510139103366191726e+00
2.544827661976988953e+00
2.544827661976988953e+00
2.544827661976988953e+00
2.544827661976988953e+00
2.534327341532639721e+00
2.534327341532639721e+00
2.534327341532639721e+00
2.547640247810297076e+00
2.547640247810297076e+00
2.547640247810297076e+00
2.547640247810297076e+00
2.550640339365825238e+00
2.550640339365825238e+00
2.550640339365825238e+00
2.526639606921598169e+00
2.526639606921598169e+00
2.526639606921598169e+00
2.488950956755272337e+00
2.488950956755272337e+00
2.488950956755272337e+00
2.488950956755272337e+00
2.455012421033357040e+00
2.455012421033357040e+00
2.455012421033357040e+00
2.447699697866756008e+00
2.447699697866756008e+00
2.447699697866756008e+00
2.447699697866756008e+00
2.442449537644581614e+00
2.442449537644581614e+00
2.442449537644581614e+00
2.443949583422345917e+00
2.443949583422345917e+00
2.443949583422345917e+00
2.443949583422345917e+00
2.507701528977324568e+00
2.507701528977324568e+00
2.507701528977324568e+00
2.543140110477004168e+00
2.543140110477004168e+00
2.543140110477004168e+00
2.537139927365947845e+00
2.537139927365947845e+00
2.537139927365947845e+00
2.537139927365947845e+00
2.512014160588396994e+00
2.512014160588396994e+00
2.512014160588396994e+00
2.566765831476790716e+00
2.566765831476790716e+00
2.566765831476790716e+00
2.566765831476790716e+00
2.518764366588335690e+00
2.518764366588335690e+00
2.518764366588335690e+00
2.486888393810846587e+00
2.486888393810846587e+00
2.486888393810846587e+00
2.486888393810846587e+00
2.509014069032868388e+00
2.509014069032868388e+00
2.509014069032868388e+00
2.485763359477523249e+00
2.485763359477523249e+00
2.485763359477523249e+00
2.504888943144016888e+00
2.504888943144016888e+00
2.504888943144016888e+00
2.504888943144016888e+00
2.543702627643666059e+00
2.543702627643666059e+00
2.543702627643666059e+00
2.502638874477370656e+00
2.502638874477370656e+00
2.502638874477370656e+00
2.502638874477370656e+00
2.471137913144322074e+00
2.471137913144322074e+00
2.471137913144322074e+00
2.491576036866359534e+00
2.491576036866359534e+00
2.491576036866359534e+00
2.491576036866359534e+00
2.519326883754997581e+00
2.519326883754997581e+00
2.519326883754997581e+00
2.524014526810510528e+00
2.524014526810510528e+00
2.524014526810510528e+00
2.538827478865932186e+00
2.538827478865932186e+00
2.538827478865932186e+00
2.538827478865932186e+00
2.568640888698995983e+00
2.568640888698995983e+00
2.568640888698995983e+00
2.510889126255073656e+00
2.510889126255073656e+00
2.510889126255073656e+00
2.510889126255073656e+00
2.534889858699301168e+00
2.534889858699301168e+00
2.534889858699301168e+00
2.517076815088350905e+00
2.517076815088350905e+00
2.517076815088350905e+00
2.475075533310953091e+00
2.475075533310953091e+00
2.475075533310953091e+00
2.475075533310953091e+00
2.435699331644642474e+00
2.435699331644642474e+00
2.435699331644642474e+00
2.478263130588702179e+00
2.478263130588702179e+00
2.478263130588702179e+00
2.478263130588702179e+00
2.458012512588885201e+00
2.458012512588885201e+00
2.458012512588885201e+00
2.439824457533493973e+00
2.439824457533493973e+00
2.439824457533493973e+00
2.439824457533493973e+00
2.434011780144657688e+00
2.434011780144657688e+00
2.434011780144657688e+00
2.479013153477584552e+00
2.479013153477584552e+00
2.479013153477584552e+00
2.575766106143375644e+00
2.575766106143375644e+00
2.575766106143375644e+00
2.575766106143375644e+00
2.618892422254097241e+00
2.618892422254097241e+00
2.618892422254097241e+00
2.659956175420392643e+00
2.659956175420392643e+00
2.659956175420392643e+00
2.646643269142734844e+00
2.646643269142734844e+00
2.646643269142734844e+00
2.646643269142734844e+00
2.501701345866268245e+00
2.501701345866268245e+00
2.501701345866268245e+00
2.405323404644917229e+00
2.405323404644917229e+00
2.405323404644917229e+00
2.390322946867275089e+00
2.390322946867275089e+00
2.390322946867275089e+00
2.390322946867275089e+00
2.441512009033478758e+00
2.441512009033478758e+00
2.441512009033478758e+00
2.475263039033173573e+00
2.475263039033173573e+00
2.475263039033173573e+00
2.475263039033173573e+00
2.537702444532609292e+00
2.537702444532609292e+00
2.537702444532609292e+00
2.527014618366038690e+00
2.527014618366038690e+00
2.527014618366038690e+00
2.527014618366038690e+00
2.520639423810540958e+00
2.520639423810540958e+00
2.520639423810540958e+00
2.507701528977324568e+00
2.507701528977324568e+00
2.507701528977324568e+00
2.490263496810816157e+00
2.490263496810816157e+00
2.490263496810816157e+00
2.490263496810816157e+00
2.516889309366130423e+00
2.516889309366130423e+00
2.516889309366130423e+00
2.509764091921750762e+00
2.509764091921750762e+00
2.509764091921750762e+00
2.509764091921750762e+00
2.570140934476760286e+00
2.570140934476760286e+00
2.570140934476760286e+00
2.552890408032471470e+00
2.552890408032471470e+00
2.552890408032471470e+00
2.514639240699484635e+00
2.514639240699484635e+00
2.514639240699484635e+00
2.514639240699484635e+00
2.476013061922055947e+00
2.476013061922055947e+00
2.476013061922055947e+00
2.435136814477980582e+00
2.435136814477980582e+00
2.435136814477980582e+00
2.435136814477980582e+00
2.512389172032837958e+00
2.512389172032837958e+00
2.512389172032837958e+00
2.538639973143711703e+00
2.538639973143711703e+00
2.538639973143711703e+00
2.538639973143711703e+00
2.500951322977385871e+00
2.500951322977385871e+00
2.500951322977385871e+00
2.459700064088869986e+00
2.459700064088869986e+00
2.459700064088869986e+00
2.383572740867336393e+00
2.383572740867336393e+00
2.383572740867336393e+00
2.383572740867336393e+00
2.394260567033906106e+00
2.394260567033906106e+00
2.394260567033906106e+00
2.534514847254860204e+00
2.534514847254860204e+00
2.534514847254860204e+00
2.534514847254860204e+00
2.593954161198767316e+00
2.593954161198767316e+00
2.593954161198767316e+00
2.581578783532212373e+00
2.581578783532212373e+00
2.581578783532212373e+00
2.613829767754142885e+00
2.613829767754142885e+00
2.613829767754142885e+00
2.613829767754142885e+00
2.548015259254738041e+00
2.548015259254738041e+00
2.548015259254738041e+00
2.498326242866298674e+00
2.498326242866298674e+00
2.498326242866298674e+00
2.498326242866298674e+00
2.499451277199621568e+00
2.499451277199621568e+00
2.499451277199621568e+00
2.487075899533067069e+00
2.487075899533067069e+00
2.487075899533067069e+00
2.487075899533067069e+00
2.487638416699728516e+00
2.487638416699728516e+00
2.487638416699728516e+00
2.474888027588732609e+00
2.474888027588732609e+00
2.474888027588732609e+00
2.518201849421674243e+00
2.518201849421674243e+00
2.518201849421674243e+00
2.518201849421674243e+00
2.528889675588243957e+00
2.528889675588243957e+00
2.528889675588243957e+00
2.506201483199560265e+00
2.506201483199560265e+00
2.506201483199560265e+00
2.506201483199560265e+00
2.536577410199285953e+00
2.536577410199285953e+00
2.536577410199285953e+00
2.533952330088198757e+00
2.533952330088198757e+00
2.533952330088198757e+00
2.525514572588274831e+00
2.525514572588274831e+00
2.525514572588274831e+00
2.525514572588274831e+00
2.482950773644215126e+00
2.482950773644215126e+00
2.482950773644215126e+00
2.490075991088595231e+00
2.490075991088595231e+00
2.490075991088595231e+00
2.524389538254951937e+00
2.524389538254951937e+00
2.524389538254951937e+00
2.524389538254951937e+00
2.491388531144139051e+00
2.491388531144139051e+00
2.491388531144139051e+00
2.451449812311166987e+00
2.451449812311166987e+00
2.451449812311166987e+00
2.451449812311166987e+00
2.482575762199774161e+00
2.482575762199774161e+00
2.482575762199774161e+00
2.522326975310525743e+00
2.522326975310525743e+00
2.522326975310525743e+00
2.522326975310525743e+00
2.566765831476790716e+00
2.566765831476790716e+00
2.566765831476790716e+00
2.571640980254524589e+00
2.571640980254524589e+00
2.571640980254524589e+00
2.517451826532791870e+00
2.517451826532791870e+00
2.517451826532791870e+00
2.517451826532791870e+00
2.435699331644642474e+00
2.435699331644642474e+00
2.435699331644642474e+00
2.507889034699545494e+00
2.507889034699545494e+00
2.507889034699545494e+00
2.507889034699545494e+00
2.553077913754691952e+00
2.553077913754691952e+00
2.553077913754691952e+00
2.533202307199316383e+00
2.533202307199316383e+00
2.533202307199316383e+00
2.532452284310434454e+00
2.532452284310434454e+00
2.532452284310434454e+00
2.532452284310434454e+00
2.549515305032502344e+00
2.549515305032502344e+00
2.549515305032502344e+00
2.501888851588488727e+00
2.501888851588488727e+00
2.501888851588488727e+00
2.501888851588488727e+00
2.516139286477248493e+00
2.516139286477248493e+00
2.516139286477248493e+00
2.518951872310556173e+00
2.518951872310556173e+00
2.518951872310556173e+00
2.495138645588549586e+00
2.495138645588549586e+00
2.495138645588549586e+00
2.495138645588549586e+00
2.443012054811243061e+00
2.443012054811243061e+00
2.443012054811243061e+00
2.416386242255928352e+00
2.416386242255928352e+00
2.416386242255928352e+00
2.416386242255928352e+00
2.472075441755424485e+00
2.472075441755424485e+00
2.472075441755424485e+00
2.503951414532914033e+00
2.503951414532914033e+00
2.503951414532914033e+00
2.457825006866664719e+00
2.457825006866664719e+00
2.457825006866664719e+00
2.457825006866664719e+00
2.404198370311593891e+00
2.404198370311593891e+00
2.404198370311593891e+00
2.527952146977141545e+00
2.527952146977141545e+00
2.527952146977141545e+00
2.527952146977141545e+00
2.535639881588183542e+00
2.535639881588183542e+00
2.535639881588183542e+00
2.611954710531937618e+00
2.611954710531937618e+00
2.611954710531937618e+00
2.611954710531937618e+00
2.626205145420697828e+00
2.626205145420697828e+00
2.626205145420697828e+00
2.691457136753440782e+00
2.691457136753440782e+00
2.691457136753440782e+00
2.654893520920438288e+00
2.654893520920438288e+00
2.654893520920438288e+00
2.654893520920438288e+00
2.571078463087863142e+00
2.571078463087863142e+00
2.571078463087863142e+00
2.497951231421857266e+00
2.497951231421857266e+00
2.497951231421857266e+00
2.497951231421857266e+00
2.410198553422650658e+00
2.410198553422650658e+00
2.410198553422650658e+00
2.380947660756248752e+00
2.380947660756248752e+00
2.380947660756248752e+00
2.428949125644703777e+00
2.428949125644703777e+00
2.428949125644703777e+00
2.428949125644703777e+00
2.404760887478255782e+00
2.404760887478255782e+00
2.404760887478255782e+00
2.418823816644795066e+00
2.418823816644795066e+00
2.418823816644795066e+00
2.418823816644795066e+00
2.434574297311319135e+00
2.434574297311319135e+00
2.434574297311319135e+00
2.530389721366008260e+00
2.530389721366008260e+00
2.530389721366008260e+00
2.582703817865535711e+00
2.582703817865535711e+00
2.582703817865535711e+00
2.582703817865535711e+00
2.663706289864803178e+00
2.663706289864803178e+00
2.663706289864803178e+00
2.548390270699179450e+00
2.548390270699179450e+00
2.548390270699179450e+00
2.444512100589007364e+00
2.444512100589007364e+00
2.444512100589007364e+00
2.444512100589007364e+00
2.447887203588976490e+00
2.447887203588976490e+00
2.447887203588976490e+00
2.463450178533280521e+00
2.463450178533280521e+00
2.463450178533280521e+00
2.463450178533280521e+00
2.498138737144077748e+00
2.498138737144077748e+00
2.498138737144077748e+00
2.532452284310434454e+00
2.532452284310434454e+00
2.532452284310434454e+00
2.491951048310800498e+00
2.491951048310800498e+00
2.491951048310800498e+00
2.491951048310800498e+00
2.506013977477339782e+00
2.506013977477339782e+00
2.506013977477339782e+00
2.487263405255287552e+00
2.487263405255287552e+00
2.487263405255287552e+00
2.487263405255287552e+00
2.462887661366619074e+00
2.462887661366619074e+00
2.462887661366619074e+00
2.482950773644215126e+00
2.482950773644215126e+00
2.482950773644215126e+00
2.402510818811609106e+00
2.402510818811609106e+00
2.402510818811609106e+00
2.402510818811609106e+00
2.439074434644612044e+00
2.439074434644612044e+00
2.439074434644612044e+00
2.550077822199164235e+00
2.550077822199164235e+00
2.550077822199164235e+00
2.550077822199164235e+00
2.580078737754448071e+00
2.580078737754448071e+00
2.580078737754448071e+00
2.578953703421124732e+00
2.578953703421124732e+00
2.578953703421124732e+00
2.578953703421124732e+00
2.573141026032288892e+00
2.573141026032288892e+00
2.573141026032288892e+00
2.534702352977080686e+00
2.534702352977080686e+00
2.534702352977080686e+00
2.494013611255226248e+00
2.494013611255226248e+00
2.494013611255226248e+00
2.494013611255226248e+00
2.471700430310983521e+00
2.471700430310983521e+00
2.471700430310983521e+00
2.508076540421765976e+00
2.508076540421765976e+00
2.508076540421765976e+00
2.508076540421765976e+00
2.518951872310556173e+00
2.518951872310556173e+00
2.518951872310556173e+00
2.426511551255836618e+00
2.426511551255836618e+00
2.426511551255836618e+00
2.441136997589037794e+00
2.441136997589037794e+00
2.441136997589037794e+00
2.441136997589037794e+00
2.523827021088290046e+00
2.523827021088290046e+00
2.523827021088290046e+00
2.597516769920956925e+00
2.597516769920956925e+00
2.597516769920956925e+00
2.597516769920956925e+00
2.672706564531388107e+00
2.672706564531388107e+00
2.672706564531388107e+00
2.544452650532547988e+00
2.544452650532547988e+00
2.544452650532547988e+00
2.419948850978118404e+00
2.419948850978118404e+00
2.419948850978118404e+00
2.419948850978118404e+00
2.404198370311593891e+00
2.404198370311593891e+00
2.404198370311593891e+00
2.470012878810998735e+00
2.470012878810998735e+00
2.470012878810998735e+00
2.470012878810998735e+00
2.440011963255714900e+00
2.440011963255714900e+00
2.440011963255714900e+00
2.547265236365856111e+00
2.547265236365856111e+00
2.547265236365856111e+00
2.547265236365856111e+00
2.582703817865535711e+00
2.582703817865535711e+00
2.582703817865535711e+00
2.597329264198736443e+00
2.597329264198736443e+00
2.597329264198736443e+00
2.584391369365520497e+00
2.584391369365520497e+00
2.584391369365520497e+00
2.584391369365520497e+00
2.525702078310495757e+00
2.525702078310495757e+00
2.525702078310495757e+00
2.464387707144383377e+00
2.464387707144383377e+00
2.464387707144383377e+00
2.464387707144383377e+00
2.429886654255806189e+00
2.429886654255806189e+00
2.429886654255806189e+00
2.482575762199774161e+00
2.482575762199774161e+00
2.482575762199774161e+00
2.516701803643909940e+00
2.516701803643909940e+00
2.516701803643909940e+00
2.516701803643909940e+00
2.551577867976928093e+00
2.551577867976928093e+00
2.551577867976928093e+00
2.564515762810144484e+00
2.564515762810144484e+00
2.564515762810144484e+00
2.564515762810144484e+00
2.427636585589159957e+00
2.427636585589159957e+00
2.427636585589159957e+00
2.407760979033784388e+00
2.407760979033784388e+00
2.407760979033784388e+00
2.445824640644550740e+00
2.445824640644550740e+00
2.445824640644550740e+00
2.445824640644550740e+00
2.532827295754875419e+00
2.532827295754875419e+00
2.532827295754875419e+00
2.582516312143315229e+00
2.582516312143315229e+00
2.582516312143315229e+00
2.582516312143315229e+00
2.568640888698995983e+00
2.568640888698995983e+00
2.568640888698995983e+00
2.477325601977599767e+00
2.477325601977599767e+00
2.477325601977599767e+00
2.477325601977599767e+00
2.482013245033112270e+00
2.482013245033112270e+00
2.482013245033112270e+00
2.517264320810571387e+00
2.517264320810571387e+00
2.517264320810571387e+00
2.530952238532670151e+00
2.530952238532670151e+00
2.530952238532670151e+00
2.530952238532670151e+00
2.538452467421491221e+00
2.538452467421491221e+00
2.538452467421491221e+00
2.548765282143620414e+00
2.548765282143620414e+00
2.548765282143620414e+00
2.548765282143620414e+00
2.524202032532731454e+00
2.524202032532731454e+00
2.524202032532731454e+00
2.574078554643390859e+00
2.574078554643390859e+00
2.574078554643390859e+00
2.601641895809808869e+00
2.601641895809808869e+00
2.601641895809808869e+00
2.601641895809808869e+00
2.526077089754936722e+00
2.526077089754936722e+00
2.526077089754936722e+00
2.511076631977294138e+00
2.511076631977294138e+00
2.511076631977294138e+00
2.511076631977294138e+00
2.489700979644154266e+00
2.489700979644154266e+00
2.489700979644154266e+00
2.391822992645039392e+00
2.391822992645039392e+00
2.391822992645039392e+00
2.391822992645039392e+00
2.426324045533616136e+00
2.426324045533616136e+00
2.426324045533616136e+00
2.428949125644703777e+00
2.428949125644703777e+00
2.428949125644703777e+00
2.374572466200750576e+00
2.374572466200750576e+00
2.374572466200750576e+00
2.374572466200750576e+00
2.417136265144810281e+00
2.417136265144810281e+00
2.417136265144810281e+00
2.514264229255043226e+00
2.514264229255043226e+00
2.514264229255043226e+00
2.514264229255043226e+00
2.520639423810540958e+00
2.520639423810540958e+00
2.520639423810540958e+00
2.585516403698843391e+00
2.585516403698843391e+00
2.585516403698843391e+00
2.641768120365001415e+00
2.641768120365001415e+00
2.641768120365001415e+00
2.641768120365001415e+00
2.592266609698782531e+00
2.592266609698782531e+00
2.592266609698782531e+00
2.559453108310190128e+00
2.559453108310190128e+00
2.559453108310190128e+00
2.559453108310190128e+00
2.513701712088381779e+00
2.513701712088381779e+00
2.513701712088381779e+00
2.470387890255439700e+00
2.470387890255439700e+00
2.470387890255439700e+00
2.478075624866481697e+00
2.478075624866481697e+00
2.478075624866481697e+00
2.478075624866481697e+00
2.427636585589159957e+00
2.427636585589159957e+00
2.427636585589159957e+00
2.433824274422437206e+00
2.433824274422437206e+00
2.433824274422437206e+00
2.433824274422437206e+00
2.435136814477980582e+00
2.435136814477980582e+00
2.435136814477980582e+00
2.528889675588243957e+00
2.528889675588243957e+00
2.528889675588243957e+00
2.528889675588243957e+00
2.638205511642811363e+00
2.638205511642811363e+00
2.638205511642811363e+00
2.623767571031830670e+00
2.623767571031830670e+00
2.623767571031830670e+00
2.638768028809472810e+00
2.638768028809472810e+00
2.638768028809472810e+00
2.638768028809472810e+00
2.532452284310434454e+00
2.532452284310434454e+00
2.532452284310434454e+00
2.380947660756248752e+00
2.380947660756248752e+00
2.380947660756248752e+00
2.349446699423200169e+00
2.349446699423200169e+00
2.349446699423200169e+00
2.349446699423200169e+00
2.345134067812128187e+00
2.345134067812128187e+00
2.345134067812128187e+00
2.451637318033387469e+00
2.451637318033387469e+00
2.451637318033387469e+00
2.451637318033387469e+00
2.489325968199713301e+00
2.489325968199713301e+00
2.489325968199713301e+00
2.521014435254982367e+00
2.521014435254982367e+00
2.521014435254982367e+00
2.521764458143864296e+00
2.521764458143864296e+00
2.521764458143864296e+00
2.521764458143864296e+00
2.546890224921415147e+00
2.546890224921415147e+00
2.546890224921415147e+00
2.574828577532273233e+00
2.574828577532273233e+00
2.574828577532273233e+00
2.574828577532273233e+00
2.576141117587817053e+00
2.576141117587817053e+00
2.576141117587817053e+00
2.597891781365397890e+00
2.597891781365397890e+00
2.597891781365397890e+00
2.588704000976592479e+00
2.588704000976592479e+00
2.588704000976592479e+00
2.588704000976592479e+00
2.573516037476729856e+00
2.573516037476729856e+00
2.573516037476729856e+00
2.560015625476852019e+00
2.560015625476852019e+00
2.560015625476852019e+00
2.560015625476852019e+00
2.483513290810876573e+00
2.483513290810876573e+00
2.483513290810876573e+00
2.461387615588854771e+00
2.461387615588854771e+00
2.461387615588854771e+00
2.461387615588854771e+00
2.525139561143833866e+00
2.525139561143833866e+00
2.525139561143833866e+00
2.603704458754234619e+00
2.603704458754234619e+00
2.603704458754234619e+00
2.519889400921659028e+00
2.519889400921659028e+00
2.519889400921659028e+00
2.519889400921659028e+00
2.443012054811243061e+00
2.443012054811243061e+00
2.443012054811243061e+00
2.498138737144077748e+00
2.498138737144077748e+00
2.498138737144077748e+00
2.498138737144077748e+00
2.475263039033173573e+00
2.475263039033173573e+00
2.475263039033173573e+00
2.473200476088747823e+00
2.473200476088747823e+00
2.473200476088747823e+00
2.396885647144993747e+00
2.396885647144993747e+00
2.396885647144993747e+00
2.396885647144993747e+00
2.445074617755668811e+00
2.445074617755668811e+00
2.445074617755668811e+00
2.486513382366405178e+00
2.486513382366405178e+00
2.486513382366405178e+00
2.486513382366405178e+00
2.564515762810144484e+00
2.564515762810144484e+00
2.564515762810144484e+00
2.487263405255287552e+00
2.487263405255287552e+00
2.487263405255287552e+00
2.487263405255287552e+00
2.516701803643909940e+00
2.516701803643909940e+00
2.516701803643909940e+00
2.529827204199346813e+00
2.529827204199346813e+00
2.529827204199346813e+00
2.538452467421491221e+00
2.538452467421491221e+00
2.538452467421491221e+00
2.538452467421491221e+00
2.488013428144169481e+00
2.488013428144169481e+00
2.488013428144169481e+00
2.438699423200171079e+00
2.438699423200171079e+00
2.438699423200171079e+00
2.438699423200171079e+00
2.539577501754814115e+00
2.539577501754814115e+00
2.539577501754814115e+00
2.499451277199621568e+00
2.499451277199621568e+00
2.499451277199621568e+00
2.416761253700369316e+00
2.416761253700369316e+00
2.416761253700369316e+00
2.416761253700369316e+00
2.475825556199835464e+00
2.475825556199835464e+00
2.475825556199835464e+00
2.448449720755638381e+00
2.448449720755638381e+00
2.448449720755638381e+00
2.448449720755638381e+00
2.500388805810724424e+00
2.500388805810724424e+00
2.500388805810724424e+00
2.531889767143772563e+00
2.531889767143772563e+00
2.531889767143772563e+00
2.659018646809289788e+00
2.659018646809289788e+00
2.659018646809289788e+00
2.659018646809289788e+00
2.671206518753624248e+00
2.671206518753624248e+00
2.671206518753624248e+00
2.616079836420789118e+00
2.616079836420789118e+00
2.616079836420789118e+00
2.616079836420789118e+00
2.442262031922361132e+00
2.442262031922361132e+00
2.442262031922361132e+00
2.396698141422773265e+00
2.396698141422773265e+00
2.396698141422773265e+00
2.437011871700186294e+00
2.437011871700186294e+00
2.437011871700186294e+00
2.437011871700186294e+00
2.516889309366130423e+00
2.516889309366130423e+00
2.516889309366130423e+00
2.469637867366557771e+00
2.469637867366557771e+00
2.469637867366557771e+00
2.469637867366557771e+00
2.463450178533280521e+00
2.463450178533280521e+00
2.463450178533280521e+00
2.483138279366435608e+00
2.483138279366435608e+00
2.483138279366435608e+00
2.529452192754905848e+00
2.529452192754905848e+00
2.529452192754905848e+00
2.529452192754905848e+00
2.616267342143010044e+00
2.616267342143010044e+00
2.616267342143010044e+00
2.586453932309945802e+00
2.586453932309945802e+00
2.586453932309945802e+00
2.586453932309945802e+00
2.692019653920102229e+00
2.692019653920102229e+00
2.692019653920102229e+00
2.619454939420759132e+00
2.619454939420759132e+00
2.619454939420759132e+00
2.619454939420759132e+00
2.542202581865901756e+00
2.542202581865901756e+00
2.542202581865901756e+00
2.395385601367229444e+00
2.395385601367229444e+00
2.395385601367229444e+00
2.340071413312173831e+00
2.340071413312173831e+00
2.340071413312173831e+00
2.340071413312173831e+00
2.398385692922757606e+00
2.398385692922757606e+00
2.398385692922757606e+00
2.501326334421826836e+00
2.501326334421826836e+00
2.501326334421826836e+00
2.511826654866176511e+00
2.511826654866176511e+00
2.511826654866176511e+00
2.511826654866176511e+00
2.519701895199438546e+00
2.519701895199438546e+00
2.519701895199438546e+00
2.467950315866573430e+00
2.467950315866573430e+00
2.467950315866573430e+00
2.467950315866573430e+00
2.394073061311685624e+00
2.394073061311685624e+00
2.394073061311685624e+00
2.453699880977813219e+00
2.453699880977813219e+00
2.453699880977813219e+00
2.453699880977813219e+00
2.544265144810327506e+00
2.544265144810327506e+00
2.544265144810327506e+00
2.529639698477126331e+00
2.529639698477126331e+00
2.529639698477126331e+00
2.642518143253883789e+00
2.642518143253883789e+00
2.642518143253883789e+00
2.642518143253883789e+00
2.636142948698385613e+00
2.636142948698385613e+00
2.636142948698385613e+00
2.463262672811060039e+00
2.463262672811060039e+00
2.463262672811060039e+00
2.463262672811060039e+00
2.537327433088168327e+00
2.537327433088168327e+00
2.537327433088168327e+00
2.464200201422162451e+00
2.464200201422162451e+00
2.464200201422162451e+00
2.500201300088503942e+00
2.500201300088503942e+00
2.500201300088503942e+00
2.500201300088503942e+00
2.603516953032014136e+00
2.603516953032014136e+00
2.603516953032014136e+00
2.557578051087984861e+00
2.557578051087984861e+00
2.557578051087984861e+00
2.557578051087984861e+00
2.554952970976897664e+00
2.554952970976897664e+00
2.554952970976897664e+00
2.546702719199194664e+00
2.546702719199194664e+00
2.546702719199194664e+00
2.571078463087863142e+00
2.571078463087863142e+00
2.571078463087863142e+00
2.571078463087863142e+00
2.458200018311105683e+00
2.458200018311105683e+00
2.458200018311105683e+00
2.500388805810724424e+00
2.500388805810724424e+00
2.500388805810724424e+00
2.500388805810724424e+00
2.537889950254829774e+00
2.537889950254829774e+00
2.537889950254829774e+00
2.523639515366069563e+00
2.523639515366069563e+00
2.523639515366069563e+00
2.473012970366527341e+00
2.473012970366527341e+00
2.473012970366527341e+00
2.473012970366527341e+00
2.551202856532486685e+00
2.551202856532486685e+00
2.551202856532486685e+00
2.488950956755272337e+00
2.488950956755272337e+00
2.488950956755272337e+00
2.367634754478591397e+00
2.367634754478591397e+00
2.367634754478591397e+00
2.367634754478591397e+00
2.440011963255714900e+00
2.440011963255714900e+00
2.440011963255714900e+00
2.505076448866237371e+00
2.505076448866237371e+00
2.505076448866237371e+00
2.505076448866237371e+00
2.533952330088198757e+00
2.533952330088198757e+00
2.533952330088198757e+00
2.512764183477279367e+00
2.512764183477279367e+00
2.512764183477279367e+00
2.564328257087923557e+00
2.564328257087923557e+00
2.564328257087923557e+00
2.564328257087923557e+00
2.458762535477767130e+00
2.458762535477767130e+00
2.458762535477767130e+00
2.428949125644703777e+00
2.428949125644703777e+00
2.428949125644703777e+00
2.428949125644703777e+00
2.479388164922025517e+00
2.479388164922025517e+00
2.479388164922025517e+00
2.612892239143040030e+00
2.612892239143040030e+00
2.612892239143040030e+00
2.640455580309458039e+00
2.640455580309458039e+00
2.640455580309458039e+00
2.640455580309458039e+00
2.636892971587267542e+00
2.636892971587267542e+00
2.636892971587267542e+00
2.553077913754691952e+00
2.553077913754691952e+00
2.553077913754691952e+00
2.553077913754691952e+00
2.444699606311227846e+00
2.444699606311227846e+00
2.444699606311227846e+00
2.524577043977172419e+00
2.524577043977172419e+00
2.524577043977172419e+00
2.524577043977172419e+00
2.418448805200354101e+00
2.418448805200354101e+00
2.418448805200354101e+00
2.337446333201086635e+00
2.337446333201086635e+00
2.337446333201086635e+00
2.403823358867152926e+00
2.403823358867152926e+00
2.403823358867152926e+00
2.403823358867152926e+00
2.412823633533738299e+00
2.412823633533738299e+00
2.412823633533738299e+00
2.394448072756126589e+00
2.394448072756126589e+00
2.394448072756126589e+00
2.394448072756126589e+00
2.639893063142796148e+00
2.639893063142796148e+00
2.639893063142796148e+00
2.625267616809594973e+00
2.625267616809594973e+00
2.625267616809594973e+00
2.548015259254738041e+00
2.548015259254738041e+00
2.548015259254738041e+00
2.548015259254738041e+00
2.574453566087832268e+00
2.574453566087832268e+00
2.574453566087832268e+00
2.618892422254097241e+00
2.618892422254097241e+00
2.618892422254097241e+00
2.618892422254097241e+00
2.419948850978118404e+00
2.419948850978118404e+00
2.419948850978118404e+00
2.410761070589312105e+00
2.410761070589312105e+00
2.410761070589312105e+00
2.626392651142918311e+00
2.626392651142918311e+00
2.626392651142918311e+00
2.626392651142918311e+00
2.645143223364970542e+00
2.645143223364970542e+00
2.645143223364970542e+00
2.467575304422132465e+00
2.467575304422132465e+00
2.467575304422132465e+00
2.467575304422132465e+00
2.413011139255958781e+00
2.413011139255958781e+00
2.413011139255958781e+00
2.452574846644489881e+00
2.452574846644489881e+00
2.452574846644489881e+00
2.372322397534104788e+00
2.372322397534104788e+00
2.372322397534104788e+00
2.372322397534104788e+00
2.355821893978697901e+00
2.355821893978697901e+00
2.355821893978697901e+00
2.592266609698782531e+00
2.592266609698782531e+00
2.592266609698782531e+00
2.592266609698782531e+00
2.554577959532456255e+00
2.554577959532456255e+00
2.554577959532456255e+00
2.635017914365062275e+00
2.635017914365062275e+00
2.635017914365062275e+00
2.635017914365062275e+00
2.702144962920011384e+00
2.702144962920011384e+00
2.702144962920011384e+00
2.550827845088045720e+00
2.550827845088045720e+00
2.550827845088045720e+00
2.553452925199133361e+00
2.553452925199133361e+00
2.553452925199133361e+00
2.553452925199133361e+00
2.543702627643666059e+00
2.543702627643666059e+00
2.543702627643666059e+00
2.552515396588030505e+00
2.552515396588030505e+00
2.552515396588030505e+00
2.552515396588030505e+00
2.583266335032197158e+00
2.583266335032197158e+00
2.583266335032197158e+00
2.476950590533158358e+00
2.476950590533158358e+00
2.476950590533158358e+00
2.483513290810876573e+00
2.483513290810876573e+00
2.483513290810876573e+00
2.483513290810876573e+00
2.439261940366832526e+00
2.439261940366832526e+00
2.439261940366832526e+00
2.442824549089022579e+00
2.442824549089022579e+00
2.442824549089022579e+00
2.442824549089022579e+00
2.511264137699515064e+00
2.511264137699515064e+00
2.511264137699515064e+00
2.422761436811426083e+00
2.422761436811426083e+00
2.422761436811426083e+00
2.450887295144505096e+00
2.450887295144505096e+00
2.450887295144505096e+00
2.450887295144505096e+00
2.690894619586779779e+00
2.690894619586779779e+00
2.690894619586779779e+00
2.659768669698171717e+00
2.659768669698171717e+00
2.659768669698171717e+00
2.659768669698171717e+00
2.421073885311441742e+00
2.421073885311441742e+00
2.421073885311441742e+00
2.351696768089846401e+00
2.351696768089846401e+00
2.351696768089846401e+00
2.351696768089846401e+00
2.456887478255561863e+00
2.456887478255561863e+00
2.456887478255561863e+00
2.555140476699118146e+00
2.555140476699118146e+00
2.555140476699118146e+00
2.586453932309945802e+00
2.586453932309945802e+00
2.586453932309945802e+00
2.586453932309945802e+00
2.571828485976745071e+00
2.571828485976745071e+00
2.571828485976745071e+00
2.533952330088198757e+00
2.533952330088198757e+00
2.533952330088198757e+00
2.533952330088198757e+00
2.524014526810510528e+00
2.524014526810510528e+00
2.524014526810510528e+00
2.386385326700643628e+00
2.386385326700643628e+00
2.386385326700643628e+00
2.379635120700704931e+00
2.379635120700704931e+00
2.379635120700704931e+00
2.379635120700704931e+00
2.370447340311899076e+00
2.370447340311899076e+00
2.370447340311899076e+00
2.518576860866115208e+00
2.518576860866115208e+00
2.518576860866115208e+00
2.518576860866115208e+00
2.671956541642506178e+00
2.671956541642506178e+00
2.671956541642506178e+00
2.584578875087740979e+00
2.584578875087740979e+00
2.584578875087740979e+00
2.549890316476943308e+00
2.549890316476943308e+00
2.549890316476943308e+00
2.549890316476943308e+00
2.493263588366343875e+00
2.493263588366343875e+00
2.493263588366343875e+00
2.520639423810540958e+00
2.520639423810540958e+00
2.520639423810540958e+00
2.520639423810540958e+00
2.530202215643787778e+00
2.530202215643787778e+00
2.530202215643787778e+00
2.466075258644368162e+00
2.466075258644368162e+00
2.466075258644368162e+00
2.466075258644368162e+00
2.441324503311258276e+00
2.441324503311258276e+00
2.441324503311258276e+00
2.469825373088778253e+00
2.469825373088778253e+00
2.469825373088778253e+00
2.449012237922299828e+00
2.449012237922299828e+00
2.449012237922299828e+00
2.449012237922299828e+00
2.442637043366802097e+00
2.442637043366802097e+00
2.442637043366802097e+00
2.469450361644337288e+00
2.469450361644337288e+00
2.469450361644337288e+00
2.469450361644337288e+00
2.464387707144383377e+00
2.464387707144383377e+00
2.464387707144383377e+00
2.505638966032898818e+00
2.505638966032898818e+00
2.505638966032898818e+00
2.765896908474990035e+00
2.765896908474990035e+00
2.765896908474990035e+00
2.765896908474990035e+00
2.887775627918332866e+00
2.887775627918332866e+00
2.887775627918332866e+00
2.703457502975554316e+00
2.703457502975554316e+00
2.510139103366191726e+00
2.510139103366191726e+00
2.510139103366191726e+00
2.506013977477339782e+00
2.506013977477339782e+00
2.506013977477339782e+00
2.292069948423719250e+00
2.292069948423719250e+00
2.292069948423719250e+00
2.292069948423719250e+00
2.184441663869136629e+00
2.184441663869136629e+00
2.184441663869136629e+00
2.314570635090182460e+00
2.314570635090182460e+00
2.314570635090182460e+00
2.314570635090182460e+00
2.518576860866115208e+00
2.518576860866115208e+00
2.518576860866115208e+00
2.501513840144047762e+00
2.501513840144047762e+00
2.501513840144047762e+00
2.501513840144047762e+00
2.372322397534104788e+00
2.372322397534104788e+00
2.372322397534104788e+00
2.486138370921964214e+00
2.486138370921964214e+00
2.486138370921964214e+00
2.623205053865169223e+00
2.623205053865169223e+00
2.623205053865169223e+00
2.623205053865169223e+00
2.677581713309121980e+00
2.677581713309121980e+00
2.677581713309121980e+00
2.580641254921109962e+00
2.580641254921109962e+00
2.580641254921109962e+00
2.580641254921109962e+00
2.553827936643574326e+00
2.553827936643574326e+00
2.553827936643574326e+00
2.623017548142948741e+00
2.623017548142948741e+00
2.623017548142948741e+00
2.451637318033387469e+00
2.451637318033387469e+00
2.451637318033387469e+00
2.451637318033387469e+00
2.371947386089663379e+00
2.371947386089663379e+00
2.371947386089663379e+00
2.507889034699545494e+00
2.507889034699545494e+00
2.507889034699545494e+00
2.507889034699545494e+00
2.511451643421735547e+00
2.511451643421735547e+00
2.511451643421735547e+00
2.563390728476821145e+00
2.563390728476821145e+00
2.563390728476821145e+00
2.563390728476821145e+00
2.492701071199682428e+00
2.492701071199682428e+00
2.492701071199682428e+00
2.421261391033662225e+00
2.421261391033662225e+00
2.421261391033662225e+00
2.422948942533646566e+00
2.422948942533646566e+00
2.422948942533646566e+00
2.422948942533646566e+00
2.474700521866512126e+00
2.474700521866512126e+00
2.474700521866512126e+00
2.587016449476607249e+00
2.587016449476607249e+00
2.587016449476607249e+00
2.587016449476607249e+00
2.629767754142887881e+00
2.629767754142887881e+00
2.629767754142887881e+00
2.638955534531693736e+00
2.638955534531693736e+00
2.638955534531693736e+00
2.643643177587206683e+00
2.643643177587206683e+00
2.643643177587206683e+00
2.643643177587206683e+00
2.464762718588824342e+00
2.464762718588824342e+00
2.464762718588824342e+00
2.408886013367107282e+00
2.408886013367107282e+00
2.408886013367107282e+00
2.408886013367107282e+00
2.546327707754753256e+00
2.546327707754753256e+00
2.546327707754753256e+00
2.525889584032716240e+00
2.525889584032716240e+00
2.525889584032716240e+00
2.525889584032716240e+00
2.525889584032716240e+00
2.525889584032716240e+00
2.525889584032716240e+00
2.487263405255287552e+00
2.487263405255287552e+00
2.487263405255287552e+00
2.603141941587572727e+00
2.603141941587572727e+00
2.230568071535386387e+00
2.230568071535386387e+00
2.230568071535386387e+00
2.230568071535386387e+00
2.380947660756248752e+00
2.380947660756248752e+00
2.380947660756248752e+00
2.551390362254707167e+00
2.551390362254707167e+00
2.551390362254707167e+00
2.551390362254707167e+00
2.561515671254616322e+00
2.561515671254616322e+00
2.561515671254616322e+00
2.440761986144596829e+00
2.440761986144596829e+00
2.440761986144596829e+00
2.566765831476790716e+00
2.566765831476790716e+00
2.566765831476790716e+00
2.566765831476790716e+00
2.670081484420300910e+00
2.670081484420300910e+00
2.670081484420300910e+00
2.714145329142124918e+00
2.714145329142124918e+00
2.714145329142124918e+00
2.583266335032197158e+00
2.583266335032197158e+00
2.583266335032197158e+00
2.583266335032197158e+00
2.421261391033662225e+00
2.421261391033662225e+00
2.421261391033662225e+00
2.374009949034089573e+00
2.374009949034089573e+00
2.374009949034089573e+00
2.374009949034089573e+00
2.562453199865718290e+00
2.562453199865718290e+00
2.562453199865718290e+00
2.660331186864833608e+00
2.660331186864833608e+00
2.660331186864833608e+00
2.628080202642903096e+00
2.628080202642903096e+00
2.628080202642903096e+00
2.628080202642903096e+00
2.497201208532975336e+00
2.497201208532975336e+00
2.497201208532975336e+00
2.417886288033692654e+00
2.417886288033692654e+00
2.417886288033692654e+00
2.417886288033692654e+00
2.366884731589709023e+00
2.366884731589709023e+00
2.366884731589709023e+00
2.384135258033997840e+00
2.384135258033997840e+00
2.384135258033997840e+00
2.355071871089815971e+00
2.355071871089815971e+00
2.355071871089815971e+00
2.355071871089815971e+00
2.368947294534135217e+00
2.368947294534135217e+00
2.368947294534135217e+00
2.283632190923795324e+00
2.283632190923795324e+00
2.283632190923795324e+00
2.283632190923795324e+00
2.539952513199255080e+00
2.539952513199255080e+00
2.539952513199255080e+00
2.684894436475722568e+00
2.684894436475722568e+00
2.684894436475722568e+00
2.684894436475722568e+00
2.734770958586382861e+00
2.734770958586382861e+00
2.734770958586382861e+00
2.588704000976592479e+00
2.588704000976592479e+00
2.588704000976592479e+00
2.505638966032898818e+00
2.505638966032898818e+00
2.505638966032898818e+00
2.505638966032898818e+00
2.372884914700766235e+00
2.372884914700766235e+00
2.372884914700766235e+00
2.467575304422132465e+00
2.467575304422132465e+00
2.467575304422132465e+00
2.467575304422132465e+00
2.735895992919706199e+00
2.735895992919706199e+00
2.735895992919706199e+00
2.736271004364147164e+00
2.736271004364147164e+00
2.736271004364147164e+00
2.736271004364147164e+00
2.437574388866847741e+00
2.437574388866847741e+00
2.437574388866847741e+00
2.328446058534500818e+00
2.328446058534500818e+00
2.328446058534500818e+00
2.319445783867915889e+00
2.319445783867915889e+00
2.319445783867915889e+00
2.319445783867915889e+00
2.595079195532090210e+00
2.595079195532090210e+00
2.595079195532090210e+00
2.520639423810540958e+00
2.520639423810540958e+00
2.520639423810540958e+00
2.520639423810540958e+00
2.495513657032990551e+00
2.495513657032990551e+00
2.495513657032990551e+00
2.562828211310159254e+00
2.562828211310159254e+00
2.562828211310159254e+00
2.509201574755088870e+00
2.509201574755088870e+00
2.509201574755088870e+00
2.509201574755088870e+00
2.543702627643666059e+00
2.543702627643666059e+00
2.543702627643666059e+00
2.615329813531907188e+00
2.615329813531907188e+00
2.615329813531907188e+00
2.615329813531907188e+00
2.632205328531754596e+00
2.632205328531754596e+00
2.632205328531754596e+00
2.363509628589739453e+00
2.363509628589739453e+00
2.363509628589739453e+00
2.363509628589739453e+00
2.378510086367381593e+00
2.378510086367381593e+00
2.378510086367381593e+00
2.445074617755668811e+00
2.445074617755668811e+00
2.445074617755668811e+00
2.748271370586260698e+00
2.748271370586260698e+00
2.748271370586260698e+00
2.748271370586260698e+00
2.683019379253517300e+00
2.683019379253517300e+00
2.683019379253517300e+00
2.613829767754142885e+00
2.613829767754142885e+00
2.613829767754142885e+00
2.482575762199774161e+00
2.482575762199774161e+00
2.482575762199774161e+00
2.482575762199774161e+00
2.367259743034150432e+00
2.367259743034150432e+00
2.367259743034150432e+00
2.280444593646046680e+00
2.280444593646046680e+00
2.280444593646046680e+00
2.351321756645405436e+00
2.351321756645405436e+00
2.351321756645405436e+00
2.351321756645405436e+00
2.447699697866756008e+00
2.447699697866756008e+00
2.447699697866756008e+00
2.404198370311593891e+00
2.404198370311593891e+00
2.404198370311593891e+00
2.404198370311593891e+00
2.641580614642780933e+00
2.641580614642780933e+00
2.641580614642780933e+00
2.627892696920682614e+00
2.627892696920682614e+00
2.627892696920682614e+00
2.627892696920682614e+00
2.578578691976683768e+00
2.578578691976683768e+00
2.578578691976683768e+00
2.561890682699057287e+00
2.561890682699057287e+00
2.561890682699057287e+00
2.542390087588122238e+00
2.542390087588122238e+00
2.542390087588122238e+00
2.542390087588122238e+00
2.351509262367625919e+00
2.351509262367625919e+00
2.351509262367625919e+00
2.445824640644550740e+00
2.445824640644550740e+00
2.445824640644550740e+00
2.445824640644550740e+00
2.573516037476729856e+00
2.573516037476729856e+00
2.573516037476729856e+00
2.501888851588488727e+00
2.501888851588488727e+00
2.501888851588488727e+00
2.664081301309244143e+00
2.664081301309244143e+00
2.664081301309244143e+00
2.664081301309244143e+00
2.545390179143650844e+00
2.545390179143650844e+00
2.545390179143650844e+00
2.387697866756187448e+00
2.387697866756187448e+00
2.387697866756187448e+00
2.387697866756187448e+00
2.419948850978118404e+00
2.419948850978118404e+00
2.419948850978118404e+00
2.434574297311319135e+00
2.434574297311319135e+00
2.434574297311319135e+00
2.434574297311319135e+00
2.537702444532609292e+00
2.537702444532609292e+00
2.537702444532609292e+00
2.789335123752556100e+00
2.789335123752556100e+00
2.789335123752556100e+00
2.721833063753166471e+00
2.721833063753166471e+00
2.721833063753166471e+00
2.721833063753166471e+00
2.437011871700186294e+00
2.437011871700186294e+00
2.437011871700186294e+00
2.337446333201086635e+00
2.337446333201086635e+00
2.337446333201086635e+00
2.337446333201086635e+00
2.209379924924466998e+00
2.209379924924466998e+00
2.209379924924466998e+00
2.352821802423169739e+00
2.352821802423169739e+00
2.352821802423169739e+00
2.509764091921750762e+00
2.509764091921750762e+00
2.509764091921750762e+00
2.509764091921750762e+00
2.728208258308664202e+00
2.728208258308664202e+00
2.728208258308664202e+00
2.673831598864711445e+00
2.673831598864711445e+00
2.673831598864711445e+00
2.673831598864711445e+00
2.529452192754905848e+00
2.529452192754905848e+00
2.529452192754905848e+00
2.443574571977904952e+00
2.443574571977904952e+00
2.443574571977904952e+00
2.443574571977904952e+00
2.378697592089602519e+00
2.378697592089602519e+00
2.378697592089602519e+00
2.476200567644276429e+00
2.476200567644276429e+00
2.476200567644276429e+00
2.459887569811090469e+00
2.459887569811090469e+00
2.459887569811090469e+00
2.459887569811090469e+00
2.678706747642445318e+00
2.678706747642445318e+00
2.678706747642445318e+00
2.568078371532334536e+00
2.568078371532334536e+00
2.568078371532334536e+00
2.568078371532334536e+00
2.587391460921048658e+00
2.587391460921048658e+00
2.587391460921048658e+00
2.565828302865687860e+00
2.565828302865687860e+00
2.565828302865687860e+00
2.471137913144322074e+00
2.471137913144322074e+00
2.471137913144322074e+00
2.471137913144322074e+00
2.555140476699118146e+00
2.555140476699118146e+00
2.555140476699118146e+00
2.594141666920987799e+00
2.594141666920987799e+00
2.594141666920987799e+00
2.594141666920987799e+00
2.441136997589037794e+00
2.441136997589037794e+00
2.441136997589037794e+00
2.476763084810937876e+00
2.476763084810937876e+00
2.476763084810937876e+00
2.355821893978697901e+00
2.355821893978697901e+00
2.355821893978697901e+00
2.355821893978697901e+00
2.584391369365520497e+00
2.584391369365520497e+00
2.584391369365520497e+00
2.516326792199468976e+00
2.516326792199468976e+00
2.516326792199468976e+00
2.516326792199468976e+00
2.428574114200262368e+00
2.428574114200262368e+00
2.428574114200262368e+00
2.377760063478499664e+00
2.377760063478499664e+00
2.377760063478499664e+00
2.377760063478499664e+00
2.528139652699362028e+00
2.528139652699362028e+00
2.528139652699362028e+00
2.248193609424115724e+00
2.248193609424115724e+00
2.248193609424115724e+00
2.445449629200109776e+00
2.445449629200109776e+00
2.445449629200109776e+00
2.445449629200109776e+00
2.803773064363536793e+00
2.803773064363536793e+00
2.803773064363536793e+00
2.912151371807001343e+00
2.912151371807001343e+00
2.912151371807001343e+00
2.912151371807001343e+00
2.849149449140904178e+00
2.849149449140904178e+00
2.849149449140904178e+00
2.574641071810052750e+00
2.574641071810052750e+00
2.574641071810052750e+00
2.382822717978454019e+00
2.382822717978454019e+00
2.382822717978454019e+00
2.382822717978454019e+00
2.350196722312082542e+00
2.350196722312082542e+00
2.350196722312082542e+00
2.294695028534806447e+00
2.294695028534806447e+00
2.294695028534806447e+00
2.294695028534806447e+00
2.559265602587969646e+00
2.559265602587969646e+00
2.559265602587969646e+00
2.198129581591235393e+00
2.198129581591235393e+00
2.198129581591235393e+00
2.198129581591235393e+00
2.212380016479995160e+00
2.212380016479995160e+00
2.212380016479995160e+00
2.660518692587054090e+00
2.660518692587054090e+00
2.660518692587054090e+00
2.652643452253792056e+00
2.652643452253792056e+00
2.652643452253792056e+00
2.652643452253792056e+00
2.418261299478133619e+00
2.418261299478133619e+00
2.418261299478133619e+00
2.428949125644703777e+00
2.428949125644703777e+00
2.428949125644703777e+00
2.428949125644703777e+00
2.554202948088015290e+00
2.554202948088015290e+00
2.554202948088015290e+00
2.496638691366313889e+00
2.496638691366313889e+00
2.496638691366313889e+00
2.763459334086123320e+00
2.763459334086123320e+00
2.763459334086123320e+00
2.763459334086123320e+00
2.680956816309091550e+00
2.680956816309091550e+00
2.680956816309091550e+00
2.691644642475661264e+00
2.691644642475661264e+00
2.691644642475661264e+00
2.691644642475661264e+00
2.577641163365581356e+00
2.577641163365581356e+00
2.577641163365581356e+00
2.403635853144932444e+00
2.403635853144932444e+00
2.403635853144932444e+00
2.403635853144932444e+00
2.248381115146336207e+00
2.248381115146336207e+00
2.248381115146336207e+00
2.465137730033265306e+00
2.465137730033265306e+00
2.465137730033265306e+00
2.633705374309518454e+00
2.633705374309518454e+00
2.633705374309518454e+00
2.633705374309518454e+00
2.606892056031983707e+00
2.606892056031983707e+00
2.606892056031983707e+00
2.492326059755241463e+00
2.492326059755241463e+00
2.492326059755241463e+00
2.492326059755241463e+00
2.366509720145268059e+00
2.366509720145268059e+00
2.366509720145268059e+00
2.345509079256569152e+00
2.345509079256569152e+00
2.345509079256569152e+00
2.512764183477279367e+00
2.512764183477279367e+00
2.512764183477279367e+00
2.512764183477279367e+00
2.461200109866634289e+00
2.461200109866634289e+00
2.461200109866634289e+00
2.311383037812433372e+00
2.311383037812433372e+00
2.311383037812433372e+00
2.399323221533860018e+00
2.399323221533860018e+00
2.399323221533860018e+00
2.399323221533860018e+00
2.473575487533188788e+00
2.473575487533188788e+00
2.473575487533188788e+00
2.801335489974669635e+00
2.801335489974669635e+00
2.801335489974669635e+00
2.801335489974669635e+00
2.629955259865108363e+00
2.629955259865108363e+00
2.629955259865108363e+00
2.516701803643909940e+00
2.516701803643909940e+00
2.516701803643909940e+00
2.516701803643909940e+00
2.376447523422955843e+00
2.376447523422955843e+00
2.376447523422955843e+00
2.533952330088198757e+00
2.533952330088198757e+00
2.533952330088198757e+00
2.513514206366161297e+00
2.513514206366161297e+00
2.513514206366161297e+00
2.513514206366161297e+00
2.461762627033295736e+00
2.461762627033295736e+00
2.461762627033295736e+00
2.591329081087679675e+00
2.591329081087679675e+00
2.591329081087679675e+00
2.554952970976897664e+00
2.554952970976897664e+00
2.554952970976897664e+00
2.554952970976897664e+00
2.286444776757103448e+00
2.286444776757103448e+00
2.286444776757103448e+00
2.499076265755180604e+00
2.499076265755180604e+00
2.499076265755180604e+00
2.499076265755180604e+00
2.564140751365703075e+00
2.564140751365703075e+00
2.564140751365703075e+00
2.572953520310068409e+00
2.572953520310068409e+00
2.572953520310068409e+00
2.572953520310068409e+00
2.427261574144718992e+00
2.427261574144718992e+00
2.427261574144718992e+00
2.379822626422925413e+00
2.379822626422925413e+00
2.379822626422925413e+00
2.567703360087893572e+00
2.567703360087893572e+00
2.567703360087893572e+00
2.567703360087893572e+00
2.519701895199438546e+00
2.519701895199438546e+00
2.519701895199438546e+00
2.709832697531052492e+00
2.709832697531052492e+00
2.709832697531052492e+00
2.709832697531052492e+00
2.560953154087954431e+00
2.560953154087954431e+00
2.560953154087954431e+00
2.576328623310037536e+00
2.576328623310037536e+00
2.576328623310037536e+00
2.481263222144230340e+00
2.481263222144230340e+00
2.481263222144230340e+00
2.481263222144230340e+00
2.346259102145451525e+00
2.346259102145451525e+00
2.346259102145451525e+00
2.439636951811273491e+00
2.439636951811273491e+00
2.439636951811273491e+00
2.439636951811273491e+00
2.471887936033204003e+00
2.471887936033204003e+00
2.471887936033204003e+00
2.573516037476729856e+00
2.573516037476729856e+00
2.573516037476729856e+00
2.631267799920652184e+00
2.631267799920652184e+00
2.631267799920652184e+00
2.631267799920652184e+00
2.706457594531082922e+00
2.706457594531082922e+00
2.706457594531082922e+00
2.597891781365397890e+00
2.597891781365397890e+00
2.597891781365397890e+00
2.597891781365397890e+00
2.482575762199774161e+00
2.482575762199774161e+00
2.482575762199774161e+00
2.493638599810785283e+00
2.493638599810785283e+00
2.493638599810785283e+00
2.493638599810785283e+00
2.371572374645222414e+00
2.371572374645222414e+00
2.371572374645222414e+00
2.413386150700399746e+00
2.413386150700399746e+00
2.413386150700399746e+00
2.551765373699148576e+00
2.551765373699148576e+00
2.551765373699148576e+00
2.551765373699148576e+00
2.630517777031769810e+00
2.630517777031769810e+00
2.630517777031769810e+00
2.626392651142918311e+00
2.626392651142918311e+00
2.626392651142918311e+00
2.626392651142918311e+00
2.630330271309549328e+00
2.630330271309549328e+00
2.630330271309549328e+00
2.543327616199224650e+00
2.543327616199224650e+00
2.543327616199224650e+00
2.311383037812433372e+00
2.311383037812433372e+00
2.311383037812433372e+00
2.311383037812433372e+00
2.287569811090426342e+00
2.287569811090426342e+00
2.287569811090426342e+00
2.094438917203283790e+00
2.094438917203283790e+00
2.094438917203283790e+00
2.094438917203283790e+00
2.468512833033234433e+00
2.468512833033234433e+00
2.468512833033234433e+00
2.744708761864070645e+00
2.744708761864070645e+00
2.744708761864070645e+00
2.570328440198980768e+00
2.570328440198980768e+00
2.570328440198980768e+00
2.570328440198980768e+00
2.574078554643390859e+00
2.574078554643390859e+00
2.574078554643390859e+00
2.668956450086977572e+00
2.668956450086977572e+00
2.668956450086977572e+00
2.668956450086977572e+00
2.503013885921811621e+00
2.503013885921811621e+00
2.503013885921811621e+00
2.353946836756492633e+00
2.353946836756492633e+00
2.353946836756492633e+00
2.302007751701407035e+00
2.302007751701407035e+00
2.302007751701407035e+00
2.302007751701407035e+00
2.168503677480392078e+00
2.168503677480392078e+00
2.168503677480392078e+00
2.253068758201849597e+00
2.253068758201849597e+00
2.253068758201849597e+00
2.253068758201849597e+00
2.530389721366008260e+00
2.530389721366008260e+00
2.530389721366008260e+00
2.961652882473219783e+00
2.961652882473219783e+00
2.961652882473219783e+00
2.961652882473219783e+00
3.033842585528122804e+00
3.033842585528122804e+00
3.033842585528122804e+00
2.772459608752708693e+00
2.772459608752708693e+00
2.772459608752708693e+00
2.578953703421124732e+00
2.578953703421124732e+00
2.578953703421124732e+00
2.578953703421124732e+00
2.478450636310922661e+00
2.478450636310922661e+00
2.256068849757378203e+00
2.256068849757378203e+00
2.158190862758262885e+00
2.218567705313272853e+00
2.218567705313272853e+00
2.552702902310250987e+00
2.552702902310250987e+00
2.753146519363994127e+00
2.839774163029877840e+00
2.839774163029877840e+00
2.687707022309030691e+00
2.687707022309030691e+00
2.469450361644337288e+00
2.241068391979735619e+00
2.241068391979735619e+00
2.384697775200659287e+00
2.384322763756218322e+00
2.384322763756218322e+00
2.808835718863490705e+00
2.808835718863490705e+00
2.929589403973509754e+00
2.640455580309458039e+00
2.640455580309458039e+00
2.341008941923276243e+00
2.341008941923276243e+00
2.052625141148106458e+00
1.931308938871425740e+00
1.931308938871425740e+00
2.255881344035157721e+00
2.255881344035157721e+00
2.697832331308938958e+00
2.667268898586993231e+00
2.667268898586993231e+00
2.680394299142429659e+00
2.542390087588122238e+00
2.542390087588122238e+00
2.601266884365367460e+00
2.601266884365367460e+00
2.696707296975615620e+00
2.749958922086245039e+00
2.749958922086245039e+00
2.719020477919858347e+00
2.575766106143375644e+00
2.575766106143375644e+00
2.566015808587908342e+00
2.397823175756096159e+00
2.397823175756096159e+00
2.236380748924222672e+00
2.105876766258735877e+00
2.105876766258735877e+00
2.291882442701498768e+00
2.291882442701498768e+00
2.151628162480544670e+00
2.485575853755302767e+00
2.485575853755302767e+00
2.713020294808801580e+00
2.713020294808801580e+00
2.724083132419812703e+00
2.857774712363048142e+00
2.857774712363048142e+00
2.611017181920834762e+00
2.611017181920834762e+00
2.566015808587908342e+00
2.415448713644825496e+00
2.415448713644825496e+00
2.499826288644062977e+00
2.499826288644062977e+00
2.444699606311227846e+00
2.552327890865810023e+00
2.552327890865810023e+00
2.681706839197973480e+00
2.681706839197973480e+00
2.697457319864497993e+00
2.391635486922818910e+00
2.391635486922818910e+00
2.040437269203771997e+00
2.409823541978209693e+00
2.409823541978209693e+00
2.466825281533250092e+00
2.466825281533250092e+00
2.677956724753563389e+00
2.563953245643482592e+00
2.563953245643482592e+00
2.553452925199133361e+00
2.553452925199133361e+00
2.428761619922483295e+00
2.230380565813165905e+00
2.230380565813165905e+00
2.629955259865108363e+00
2.629955259865108363e+00
2.578391186254463285e+00
2.624330088198492561e+00
2.624330088198492561e+00
2.582891323587756194e+00
2.657706106753745967e+00
2.657706106753745967e+00
2.604079470198675583e+00
2.604079470198675583e+00
2.478825647755364070e+00
2.466262764366588645e+00
2.466262764366588645e+00
2.231130588702047834e+00
2.298632648701437464e+00
2.298632648701437464e+00
2.523264503921628599e+00
2.427824091311380439e+00
2.427824091311380439e+00
2.634080385753959863e+00
2.634080385753959863e+00
2.552327890865810023e+00
2.418448805200354101e+00
2.418448805200354101e+00
2.565640797143467378e+00
2.565640797143467378e+00
2.567703360087893572e+00
2.240505874813074172e+00
2.240505874813074172e+00
2.355259376812036454e+00
2.378697592089602519e+00
2.378697592089602519e+00
2.731958372753074737e+00
2.731958372753074737e+00
2.712457777642140133e+00
2.673831598864711445e+00
2.673831598864711445e+00
2.500951322977385871e+00
2.500951322977385871e+00
2.769834528641621496e+00
2.631455305642872666e+00
2.631455305642872666e+00
2.682269356364634927e+00
2.682269356364634927e+00
2.146753013702810797e+00
2.392760521256141804e+00
2.392760521256141804e+00
2.555140476699118146e+00
2.555140476699118146e+00
2.609517136143070459e+00
2.574453566087832268e+00
2.574453566087832268e+00
2.265631641590625023e+00
2.192879421369060555e+00
2.192879421369060555e+00
2.474700521866512126e+00
2.474700521866512126e+00
2.532077272865993045e+00
2.641955626087221898e+00
2.641955626087221898e+00
2.972340708639790385e+00
2.631642811365093149e+00
2.631642811365093149e+00
2.308382946256904766e+00
2.308382946256904766e+00
2.359572008423108880e+00
2.367259743034150432e+00
2.367259743034150432e+00
2.466075258644368162e+00
2.466075258644368162e+00
2.669143955809198054e+00
2.540327524643696488e+00
2.540327524643696488e+00
2.445449629200109776e+00
2.445449629200109776e+00
2.474138004699850679e+00
2.620767479476302064e+00
2.620767479476302064e+00
2.555327982421338628e+00
2.555327982421338628e+00
2.629205236976226434e+00
2.525139561143833866e+00
2.525139561143833866e+00
2.429136631366924259e+00
2.338758873256630455e+00
2.338758873256630455e+00
2.476950590533158358e+00
2.389947935422834124e+00
2.389947935422834124e+00
2.409073519089327764e+00
2.409073519089327764e+00
2.405323404644917229e+00
2.574828577532273233e+00
2.574828577532273233e+00
2.574828577532273233e+00
2.574828577532273233e+00
2.594891689809869728e+00
2.558890591143528681e+00
2.558890591143528681e+00
2.502638874477370656e+00
2.502638874477370656e+00
2.397635670033875677e+00
2.656956083864864038e+00
2.656956083864864038e+00
2.540327524643696488e+00
2.413011139255958781e+00
2.413011139255958781e+00
2.340633930478835278e+00
2.340633930478835278e+00
2.656393566698202147e+00
2.656581072420422629e+00
2.656581072420422629e+00
2.484450819421979428e+00
2.484450819421979428e+00
2.589454023865474408e+00
2.629392742698446916e+00
2.629392742698446916e+00
2.636892971587267542e+00
2.636892971587267542e+00
2.411511093478194478e+00
2.186129215369121415e+00
2.186129215369121415e+00
2.210692464980010374e+00
2.210692464980010374e+00
2.415823725089266905e+00
2.608767113254188974e+00
2.608767113254188974e+00
2.925276772362438216e+00
2.852337046418653266e+00
2.852337046418653266e+00
2.519514389477218064e+00
2.519514389477218064e+00
2.465887752922147680e+00
2.515201757866145638e+00
2.515201757866145638e+00
2.434949308755760100e+00
2.434949308755760100e+00
2.404760887478255782e+00
2.342133976256599581e+00
2.342133976256599581e+00
2.244631000701926116e+00
2.244631000701926116e+00
2.500201300088503942e+00
2.468887844477675397e+00
2.468887844477675397e+00
2.360322031311990809e+00
2.360322031311990809e+00
2.412636127811517817e+00
2.728020752586443720e+00
2.728020752586443720e+00
2.663893795587023661e+00
2.677956724753563389e+00
2.677956724753563389e+00
2.578391186254463285e+00
2.578391186254463285e+00
2.500388805810724424e+00
2.449199743644520311e+00
2.449199743644520311e+00
2.401198278756065729e+00
2.401198278756065729e+00
2.592079103976562049e+00
2.575203588976714197e+00
2.575203588976714197e+00
2.362197088534196077e+00
2.362197088534196077e+00
2.360697042756431774e+00
2.449949766533402684e+00
2.449949766533402684e+00
2.681519333475752997e+00
2.681519333475752997e+00
2.763834345530564285e+00
2.551202856532486685e+00
2.551202856532486685e+00
2.494951139866329104e+00
2.277256996368297592e+00
2.277256996368297592e+00
2.373447431867427682e+00
2.373447431867427682e+00
2.194566972869045340e+00
2.443574571977904952e+00
2.443574571977904952e+00
2.624517593920713043e+00
2.624517593920713043e+00
2.667268898586993231e+00
2.801335489974669635e+00
2.801335489974669635e+00
2.662581255531479840e+00
2.662581255531479840e+00
2.445824640644550740e+00
2.495701162755211033e+00
2.495701162755211033e+00
2.348321665089877275e+00
2.361447065645314147e+00
2.361447065645314147e+00
2.562828211310159254e+00
2.562828211310159254e+00
2.546515213476973738e+00
2.711332743308816795e+00
2.711332743308816795e+00
2.623580065309610188e+00
2.623580065309610188e+00
2.531139744254890633e+00
2.339321390423291458e+00
2.339321390423291458e+00
2.356571916867580274e+00
2.356571916867580274e+00
2.283819696646015807e+00
2.549890316476943308e+00
2.549890316476943308e+00
2.598641804254280263e+00
2.598641804254280263e+00
2.349259193700979687e+00
2.476763084810937876e+00
2.476763084810937876e+00
2.699707388531144225e+00
2.621329996642963955e+00
2.621329996642963955e+00
2.633705374309518454e+00
2.633705374309518454e+00
2.631642811365093149e+00
2.606704550309763224e+00
2.606704550309763224e+00
2.455762443922238969e+00
2.455762443922238969e+00
2.662956266975920805e+00
2.593766655476546834e+00
2.593766655476546834e+00
2.423886471144749422e+00
2.387510361033966966e+00
2.387510361033966966e+00
2.196254524369030126e+00
2.196254524369030126e+00
2.212380016479995160e+00
2.521201940977202849e+00
2.521201940977202849e+00
2.556078005310220558e+00
2.556078005310220558e+00
2.608954618976409012e+00
2.653768486587115394e+00
2.653768486587115394e+00
2.559453108310190128e+00
2.559453108310190128e+00
2.533389812921536866e+00
2.495138645588549586e+00
2.495138645588549586e+00
2.531139744254890633e+00
2.531139744254890633e+00
2.512576677755058441e+00
2.526077089754936722e+00
2.526077089754936722e+00
2.543515121921445576e+00
2.551577867976928093e+00
2.551577867976928093e+00
2.421636402478102745e+00
2.421636402478102745e+00
2.170941251869258792e+00
2.386760338145085036e+00
2.386760338145085036e+00
2.567515854365672645e+00
2.567515854365672645e+00
2.632392834253975078e+00
2.557015533921323414e+00
2.557015533921323414e+00
2.535827387310404024e+00
2.535827387310404024e+00
2.455762443922238969e+00
2.670081484420300910e+00
2.670081484420300910e+00
2.645893246253852915e+00
2.645893246253852915e+00
2.484075807977538464e+00
2.433074251533554833e+00
2.433074251533554833e+00
2.283257179479354360e+00
2.362384594256416559e+00
2.362384594256416559e+00
2.484075807977538464e+00
2.484075807977538464e+00
2.634642902920621310e+00
2.659018646809289788e+00
2.659018646809289788e+00
2.407573473311563461e+00
2.407573473311563461e+00
2.700457411420026599e+00
2.699519882808923743e+00
2.699519882808923743e+00
2.654143498031556359e+00
2.740958647419660110e+00
2.740958647419660110e+00
2.520639423810540958e+00
2.520639423810540958e+00
2.310070497756889552e+00
2.292069948423719250e+00
2.292069948423719250e+00
2.219505233924375265e+00
2.219505233924375265e+00
2.262819055757316900e+00
2.490638508255257122e+00
2.490638508255257122e+00
2.551202856532486685e+00
2.551202856532486685e+00
2.534702352977080686e+00
2.439449446089053009e+00
2.439449446089053009e+00
2.642518143253883789e+00
2.642518143253883789e+00
2.859462263863032927e+00
2.602391918698690798e+00
2.602391918698690798e+00
2.481450727866450823e+00
2.481450727866450823e+00
2.727833246864223238e+00
2.558890591143528681e+00
2.558890591143528681e+00
2.281007110812707683e+00
2.244068483535264225e+00
2.244068483535264225e+00
2.372322397534104788e+00
2.372322397534104788e+00
2.459887569811090469e+00
2.598829309976500745e+00
2.598829309976500745e+00
2.624705099642933526e+00
2.624705099642933526e+00
2.504888943144016888e+00
2.510889126255073656e+00
2.510889126255073656e+00
2.603141941587572727e+00
2.603141941587572727e+00
2.375509994811853431e+00
2.302570268868068482e+00
2.302570268868068482e+00
2.555890499588000075e+00
2.704582537308877654e+00
2.704582537308877654e+00
2.673644093142490963e+00
2.673644093142490963e+00
2.574266060365611786e+00
2.464387707144383377e+00
2.464387707144383377e+00
2.457637501144443792e+00
2.457637501144443792e+00
2.181629078035828950e+00
2.410198553422650658e+00
2.410198553422650658e+00
2.569953428754539804e+00
2.569953428754539804e+00
2.498513748588519157e+00
2.661081209753715537e+00
2.661081209753715537e+00
2.630517777031769810e+00
2.630517777031769810e+00
2.614579790643025259e+00
2.490263496810816157e+00
2.490263496810816157e+00
2.433261757255775315e+00
2.338383861812189490e+00
2.338383861812189490e+00
2.502451368755150174e+00
2.502451368755150174e+00
2.499451277199621568e+00
2.490263496810816157e+00
2.490263496810816157e+00
2.601641895809808869e+00
2.601641895809808869e+00
2.634830408642841792e+00
2.440761986144596829e+00
2.440761986144596829e+00
2.338196356089969008e+00
2.338196356089969008e+00
2.459700064088869986e+00
2.684706930753502085e+00
2.684706930753502085e+00
2.683019379253517300e+00
2.612704733420819547e+00
2.612704733420819547e+00
2.621892513809625402e+00
2.621892513809625402e+00
2.544265144810327506e+00
2.433824274422437206e+00
2.433824274422437206e+00
2.470387890255439700e+00
2.470387890255439700e+00
2.388822901089510786e+00
2.227755485702078264e+00
2.227755485702078264e+00
2.545577684865871326e+00
2.545577684865871326e+00
2.551765373699148576e+00
2.676644184698019568e+00
2.676644184698019568e+00
2.540702536088137453e+00
2.540702536088137453e+00
2.514076723532822744e+00
2.494201116977446731e+00
2.494201116977446731e+00
2.347759147923215384e+00
2.307820429090243319e+00
2.307820429090243319e+00
2.526827112643818651e+00
2.526827112643818651e+00
2.531702261421552080e+00
2.585703909421063873e+00
2.585703909421063873e+00
2.699519882808923743e+00
2.699519882808923743e+00
2.645143223364970542e+00
2.402323313089388623e+00
2.402323313089388623e+00
2.356946928312021239e+00
2.356946928312021239e+00
2.429699148533585706e+00
2.473950498977630197e+00
2.473950498977630197e+00
2.507701528977324568e+00
2.507701528977324568e+00
2.641580614642780933e+00
2.610829676198614280e+00
2.610829676198614280e+00
2.581016266365550926e+00
2.512576677755058441e+00
2.512576677755058441e+00
2.484263313699758946e+00
2.484263313699758946e+00
2.537139927365947845e+00
2.499451277199621568e+00
2.499451277199621568e+00
2.567140842921231680e+00
2.567140842921231680e+00
2.530202215643787778e+00
2.359384502700888397e+00
2.359384502700888397e+00
2.411323587755973996e+00
2.411323587755973996e+00
2.465512741477706271e+00
2.401948301644947659e+00
2.401948301644947659e+00
2.389760429700613198e+00
2.389760429700613198e+00
2.412636127811517817e+00
2.494388622699667213e+00
2.494388622699667213e+00
2.700644917142247081e+00
2.850274483474227072e+00
2.850274483474227072e+00
2.758584185308389891e+00
2.758584185308389891e+00
2.562265694143497807e+00
2.551577867976928093e+00
2.551577867976928093e+00
2.453137363811151772e+00
2.453137363811151772e+00
2.316258186590166801e+00
2.390510452589495571e+00
2.390510452589495571e+00
2.377947569200720146e+00
2.377947569200720146e+00
2.475638050477614982e+00
2.538077455977050256e+00
2.538077455977050256e+00
2.416198736533707869e+00
2.659018646809289788e+00
2.659018646809289788e+00
2.724083132419812703e+00
2.724083132419812703e+00
2.602204412976470316e+00
2.523264503921628599e+00
2.523264503921628599e+00
2.392198004089480357e+00
2.392198004089480357e+00
2.279694570757164307e+00
2.204879787591174090e+00
2.204879787591174090e+00
2.313633106479079604e+00
2.313633106479079604e+00
2.552140385143589540e+00
2.625080111087374490e+00
2.625080111087374490e+00
2.687519516586810209e+00
2.687519516586810209e+00
2.559828119754631537e+00
2.597516769920956925e+00
2.597516769920956925e+00
2.534889858699301168e+00
2.549140293588061379e+00
2.549140293588061379e+00
2.473950498977630197e+00
2.473950498977630197e+00
2.497201208532975336e+00
2.529639698477126331e+00
2.529639698477126331e+00
2.583078829309976676e+00
2.583078829309976676e+00
2.544827661976988953e+00
2.668206427198095643e+00
2.668206427198095643e+00
2.544077639088107023e+00
2.307445417645802355e+00
2.307445417645802355e+00
2.235630726035340299e+00
2.235630726035340299e+00
2.454824915311136557e+00
2.419573839533677440e+00
2.419573839533677440e+00
2.513326700643940814e+00
2.513326700643940814e+00
2.602766930143131763e+00
2.596016724143193066e+00
2.596016724143193066e+00
2.702707480086672831e+00
2.702707480086672831e+00
2.603141941587572727e+00
2.487263405255287552e+00
2.487263405255287552e+00
2.526639606921598169e+00
2.526639606921598169e+00
2.427449079866939474e+00
2.452574846644489881e+00
2.452574846644489881e+00
2.554015442365794808e+00
2.544827661976988953e+00
2.544827661976988953e+00
2.484638325144199911e+00
2.484638325144199911e+00
2.433261757255775315e+00
2.413573656422620228e+00
2.413573656422620228e+00
2.539389996032593633e+00
2.539389996032593633e+00
2.752208990752891715e+00
2.624142582476271635e+00
2.624142582476271635e+00
2.528702169866023475e+00
2.528702169866023475e+00
2.430824182866909045e+00
2.303132786034730373e+00
2.303132786034730373e+00
2.468887844477675397e+00
2.468887844477675397e+00
2.499451277199621568e+00
2.529264687032685366e+00
2.529264687032685366e+00
2.545952696310312291e+00
2.488013428144169481e+00
2.488013428144169481e+00
2.416011230811487387e+00
2.416011230811487387e+00
2.504326425977354997e+00
2.434011780144657688e+00
2.434011780144657688e+00
2.533764824365978274e+00
2.533764824365978274e+00
2.483513290810876573e+00
2.409073519089327764e+00
2.409073519089327764e+00
2.544640156254768470e+00
2.544640156254768470e+00
2.346634113589892490e+00
2.673831598864711445e+00
2.673831598864711445e+00
2.757084139530625588e+00
2.561703176976836804e+00
2.561703176976836804e+00
2.607454573198645154e+00
2.607454573198645154e+00
2.505263954588457853e+00
2.420323862422559369e+00
2.420323862422559369e+00
2.188754295480208611e+00
2.188754295480208611e+00
2.370634846034120002e+00
2.585891415143284355e+00
2.585891415143284355e+00
2.613079744865260956e+00
2.583266335032197158e+00
2.583266335032197158e+00
2.540140018921475562e+00
2.540140018921475562e+00
2.670268990142521393e+00
2.599204321420941710e+00
2.599204321420941710e+00
2.617204870754112456e+00
2.617204870754112456e+00
2.602391918698690798e+00
2.447324686422315043e+00
2.447324686422315043e+00
2.267131687368389326e+00
2.267131687368389326e+00
2.344571550645466296e+00
2.376447523422955843e+00
2.376447523422955843e+00
2.404198370311593891e+00
2.404198370311593891e+00
2.636892971587267542e+00
2.719770500808740721e+00
2.719770500808740721e+00
2.705707571642200993e+00
2.705707571642200993e+00
2.611767204809717136e+00
2.516701803643909940e+00
2.516701803643909940e+00
2.556828028199102931e+00
2.611954710531937618e+00
2.611954710531937618e+00
2.540515030365916971e+00
2.540515030365916971e+00
2.392198004089480357e+00
2.325445966978973100e+00
2.325445966978973100e+00
2.344009033478804849e+00
2.344009033478804849e+00
2.444887112033448329e+00
2.460637592699972398e+00
2.460637592699972398e+00
2.456324961088900860e+00
2.456324961088900860e+00
2.428574114200262368e+00
2.534514847254860204e+00
2.534514847254860204e+00
2.640643086031678521e+00
2.640643086031678521e+00
2.714145329142124918e+00
2.630330271309549328e+00
2.630330271309549328e+00
2.566953337199011198e+00
2.418261299478133619e+00
2.418261299478133619e+00
2.428761619922483295e+00
2.428761619922483295e+00
2.366322214423047576e+00
2.258881435590685438e+00
2.258881435590685438e+00
2.514639240699484635e+00
2.514639240699484635e+00
2.543702627643666059e+00
2.569390911587878357e+00
2.569390911587878357e+00
2.597516769920956925e+00
2.541265053254798900e+00
2.541265053254798900e+00
2.576141117587817053e+00
2.576141117587817053e+00
2.472825464644306859e+00
2.507326517532883603e+00
2.507326517532883603e+00
2.654331003753776841e+00
2.654331003753776841e+00
2.449574755088961275e+00
2.357509445478682686e+00
2.357509445478682686e+00
2.569015900143436948e+00
2.569015900143436948e+00
2.645143223364970542e+00
2.578953703421124732e+00
2.578953703421124732e+00
2.515014252143925599e+00
2.515014252143925599e+00
2.515764275032807085e+00
2.392010498367259874e+00
2.392010498367259874e+00
2.414886196478164049e+00
2.414886196478164049e+00
2.459887569811090469e+00
2.611767204809717136e+00
2.611767204809717136e+00
2.385260292367321178e+00
2.405885921811578676e+00
2.405885921811578676e+00
2.479575670644245999e+00
2.479575670644245999e+00
2.645893246253852915e+00
2.594329172643208281e+00
2.594329172643208281e+00
2.498326242866298674e+00
2.498326242866298674e+00
2.428949125644703777e+00
2.529827204199346813e+00
2.529827204199346813e+00
2.528702169866023475e+00
2.528702169866023475e+00
2.503201391644032547e+00
2.462700155644398592e+00
2.462700155644398592e+00
2.568453382976775501e+00
2.568453382976775501e+00
2.488763451033051854e+00
2.507514023255104085e+00
2.507514023255104085e+00
2.575203588976714197e+00
2.726708212530899900e+00
2.726708212530899900e+00
2.509201574755088870e+00
2.509201574755088870e+00
2.431386700033570492e+00
2.437011871700186294e+00
2.437011871700186294e+00
2.366322214423047576e+00
2.366322214423047576e+00
2.488575945310831372e+00
2.663331278420362214e+00
2.663331278420362214e+00
2.616079836420789118e+00
2.616079836420789118e+00
2.427074068422498510e+00
2.428011597033600921e+00
2.428011597033600921e+00
2.403260841700491479e+00
2.403260841700491479e+00
2.464762718588824342e+00
2.576141117587817053e+00
2.576141117587817053e+00
2.588328989532151070e+00
2.676831690420240051e+00
2.676831690420240051e+00
2.576703634754478500e+00
2.576703634754478500e+00
2.405510910367137711e+00
2.375509994811853431e+00
2.375509994811853431e+00
2.424261482589190386e+00
2.424261482589190386e+00
2.547265236365856111e+00
2.340258919034394314e+00
2.340258919034394314e+00
2.364259651478621826e+00
2.364259651478621826e+00
2.386760338145085036e+00
2.506764000366222156e+00
2.506764000366222156e+00
2.683019379253517300e+00
2.683019379253517300e+00
2.715645374919888777e+00
2.668956450086977572e+00
2.668956450086977572e+00
2.687519516586810209e+00
2.601454390087587942e+00
2.601454390087587942e+00
2.480138187810907002e+00
2.480138187810907002e+00
2.363509628589739453e+00
2.406635944700461049e+00
2.406635944700461049e+00
2.373259926145207199e+00
2.373259926145207199e+00
2.467575304422132465e+00
2.503388897366253030e+00
2.503388897366253030e+00
2.724083132419812703e+00
2.724083132419812703e+00
2.634830408642841792e+00
2.508264046143986459e+00
2.508264046143986459e+00
2.546702719199194664e+00
2.472450453199865894e+00
2.472450453199865894e+00
2.382260200811792572e+00
2.382260200811792572e+00
2.494576128421887695e+00
2.487450910977508034e+00
2.487450910977508034e+00
2.486888393810846587e+00
2.486888393810846587e+00
2.559640614032411055e+00
2.656393566698202147e+00
2.656393566698202147e+00
2.379635120700704931e+00
2.340821436201055761e+00
2.340821436201055761e+00
2.474513016144291644e+00
2.503388897366253030e+00
2.503388897366253030e+00
2.597891781365397890e+00
2.539765007477034597e+00
2.539765007477034597e+00
2.544265144810327506e+00
2.544265144810327506e+00
2.553452925199133361e+00
2.547827753532517558e+00
2.547827753532517558e+00
2.565265785699026413e+00
2.621142490920743473e+00
2.621142490920743473e+00
2.567140842921231680e+00
2.567140842921231680e+00
2.351696768089846401e+00
2.131752555925168657e+00
2.131752555925168657e+00
2.311758049256874337e+00
2.311758049256874337e+00
2.627705191198462131e+00
2.601079378643146978e+00
2.601079378643146978e+00
2.506764000366222156e+00
2.506764000366222156e+00
2.524577043977172419e+00
2.613267250587481438e+00
2.613267250587481438e+00
2.531889767143772563e+00
2.490638508255257122e+00
2.490638508255257122e+00
2.666143864253669893e+00
2.666143864253669893e+00
2.570703451643421733e+00
2.453137363811151772e+00
2.453137363811151772e+00
2.390885464033936536e+00
2.390885464033936536e+00
2.540327524643696488e+00
2.501888851588488727e+00
2.501888851588488727e+00
2.599391827143162192e+00
2.599391827143162192e+00
2.597516769920956925e+00
2.460262581255531433e+00
2.460262581255531433e+00
2.328821069978942226e+00
2.334071230201117064e+00
2.334071230201117064e+00
2.525889584032716240e+00
2.525889584032716240e+00
2.595641712698752102e+00
2.650393383587145824e+00
2.650393383587145824e+00
2.598641804254280263e+00
2.507326517532883603e+00
2.507326517532883603e+00
2.557578051087984861e+00
2.569203405865657430e+00
2.569203405865657430e+00
2.522139469588305261e+00
2.522139469588305261e+00
2.396323129978331856e+00
2.480138187810907002e+00
2.480138187810907002e+00
2.368197271645252844e+00
2.464012695699941968e+00
2.464012695699941968e+00
2.552327890865810023e+00
2.552327890865810023e+00
2.466825281533250092e+00
2.474888027588732609e+00
2.474888027588732609e+00
2.525327066866054349e+00
2.525327066866054349e+00
2.564140751365703075e+00
2.529827204199346813e+00
2.529827204199346813e+00
2.569015900143436948e+00
2.569015900143436948e+00
2.547265236365856111e+00
2.485200842310861358e+00
2.485200842310861358e+00
2.411136082033753514e+00
2.517639332255012796e+00
2.517639332255012796e+00
2.413761162144840711e+00
2.413761162144840711e+00
2.497576219977416301e+00
2.575391094698934680e+00
2.575391094698934680e+00
2.592454115421003014e+00
2.592454115421003014e+00
2.517076815088350905e+00
2.505076448866237371e+00
2.505076448866237371e+00
2.506764000366222156e+00
2.506764000366222156e+00
2.526264595477157204e+00
2.470575395977660182e+00
2.470575395977660182e+00
2.499638782921842051e+00
2.573703543198950339e+00
2.573703543198950339e+00
2.595454206976531619e+00
2.595454206976531619e+00
2.476388073366496911e+00
2.422948942533646566e+00
2.422948942533646566e+00
2.473200476088747823e+00
2.473200476088747823e+00
2.459887569811090469e+00
2.517264320810571387e+00
2.517264320810571387e+00
2.465512741477706271e+00
2.465512741477706271e+00
2.566390820032349751e+00
2.603704458754234619e+00
2.603704458754234619e+00
2.553452925199133361e+00
2.553452925199133361e+00
2.600704367198706013e+00
2.621705008087404920e+00
2.621705008087404920e+00
2.594704184087649246e+00
2.423323953978087530e+00
2.423323953978087530e+00
2.308570451979125249e+00
2.308570451979125249e+00
2.288882351145970162e+00
2.469825373088778253e+00
2.469825373088778253e+00
2.577078646198919465e+00
2.508076540421765976e+00
2.508076540421765976e+00
2.414136173589282119e+00
2.414136173589282119e+00
2.477700613422040732e+00
2.619829950865200097e+00
2.619829950865200097e+00
2.584578875087740979e+00
2.584578875087740979e+00
2.616642353587451009e+00
2.633705374309518454e+00
2.633705374309518454e+00
2.545765190588091809e+00
2.545765190588091809e+00
2.506013977477339782e+00
2.388635395367290304e+00
2.388635395367290304e+00
2.415448713644825496e+00
2.449012237922299828e+00
2.449012237922299828e+00
2.477700613422040732e+00
2.477700613422040732e+00
2.521951963866084778e+00
2.475450544755394056e+00
2.475450544755394056e+00
2.478263130588702179e+00
2.478263130588702179e+00
2.513139194921720332e+00
2.529639698477126331e+00
2.529639698477126331e+00
2.593766655476546834e+00
2.593766655476546834e+00
2.709082674642170563e+00
2.664456312753685108e+00
2.664456312753685108e+00
2.611954710531937618e+00
2.611954710531937618e+00
2.485200842310861358e+00
2.362384594256416559e+00
2.362384594256416559e+00
2.394073061311685624e+00
2.221942808313242423e+00
2.221942808313242423e+00
2.425949034089175171e+00
2.425949034089175171e+00
2.541265053254798900e+00
2.602579424420911280e+00
2.602579424420911280e+00
2.520451918088320475e+00
2.520451918088320475e+00
2.489325968199713301e+00
2.485575853755302767e+00
2.485575853755302767e+00
2.530014709921567295e+00
2.530014709921567295e+00
2.642330637531663307e+00
2.731020844141972326e+00
2.731020844141972326e+00
2.579891232032227588e+00
2.412261116367076408e+00
2.412261116367076408e+00
2.450324777977843649e+00
2.450324777977843649e+00
2.542952604754783685e+00
2.459325052644428578e+00
2.459325052644428578e+00
2.441324503311258276e+00
2.441324503311258276e+00
2.551765373699148576e+00
2.414886196478164049e+00
2.414886196478164049e+00
2.405135898922696747e+00
2.601829401532029351e+00
2.601829401532029351e+00
2.579891232032227588e+00
2.579891232032227588e+00
2.513514206366161297e+00
2.494201116977446731e+00
2.494201116977446731e+00
2.360884548478652700e+00
2.360884548478652700e+00
2.315695669423505798e+00
2.585516403698843391e+00
2.585516403698843391e+00
2.606892056031983707e+00
2.606892056031983707e+00
2.598266792809838854e+00
2.568078371532334536e+00
2.568078371532334536e+00
2.515951780755027567e+00
2.515951780755027567e+00
2.524202032532731454e+00
2.505263954588457853e+00
2.505263954588457853e+00
2.466450270088809127e+00
2.466450270088809127e+00
2.491951048310800498e+00
2.509764091921750762e+00
2.509764091921750762e+00
2.427261574144718992e+00
2.508264046143986459e+00
2.508264046143986459e+00
2.599954344309823639e+00
2.599954344309823639e+00
2.582516312143315229e+00
2.563015717032380181e+00
2.563015717032380181e+00
2.531327249977111116e+00
2.531327249977111116e+00
2.528514664143802992e+00
2.493076082644123392e+00
2.493076082644123392e+00
2.419761345255897922e+00
2.419761345255897922e+00
2.391260475478377501e+00
2.499451277199621568e+00
2.499451277199621568e+00
2.475825556199835464e+00
2.475825556199835464e+00
2.535452375865963059e+00
2.499451277199621568e+00
2.499451277199621568e+00
2.506388988921781191e+00
2.473200476088747823e+00
2.473200476088747823e+00
2.568453382976775501e+00
2.568453382976775501e+00
2.626580156865138793e+00
2.567140842921231680e+00
2.567140842921231680e+00
2.532827295754875419e+00
2.532827295754875419e+00
2.588704000976592479e+00
2.556453016754661967e+00
2.556453016754661967e+00
2.520076906643879511e+00
2.443387066255684470e+00
2.443387066255684470e+00
2.373447431867427682e+00
2.373447431867427682e+00
2.434199285866878171e+00
2.498888760032960121e+00
2.498888760032960121e+00
2.495701162755211033e+00
2.495701162755211033e+00
2.443199560533463544e+00
2.547077730643635629e+00
2.547077730643635629e+00
2.576891140476698983e+00
2.576891140476698983e+00
2.531702261421552080e+00
2.546515213476973738e+00
2.546515213476973738e+00
2.514076723532822744e+00
2.472637958922086376e+00
2.472637958922086376e+00
2.461950132755516218e+00
2.461950132755516218e+00
2.467200292977691056e+00
2.430261665700247153e+00
2.430261665700247153e+00
2.374759971922971058e+00
2.374759971922971058e+00
2.471700430310983521e+00
2.555515488143559111e+00
2.555515488143559111e+00
2.665768852809228928e+00
2.665768852809228928e+00
2.704020020142216207e+00
2.619829950865200097e+00
2.619829950865200097e+00
2.558703085421308199e+00
2.558703085421308199e+00
2.455762443922238969e+00
2.367634754478591397e+00
2.367634754478591397e+00
2.437949400311288706e+00
2.506951506088442638e+00
2.506951506088442638e+00
2.440199468977935382e+00
2.440199468977935382e+00
2.421448896755882263e+00
2.512764183477279367e+00
2.512764183477279367e+00
2.526452101199377687e+00
2.526452101199377687e+00
2.532264778588213971e+00
2.515764275032807085e+00
2.515764275032807085e+00
2.566953337199011198e+00
2.566953337199011198e+00
2.697457319864497993e+00
2.638205511642811363e+00
2.638205511642811363e+00
2.549327799310281861e+00
2.549327799310281861e+00
2.433261757255775315e+00
2.430824182866909045e+00
2.430824182866909045e+00
2.435324320200201509e+00
2.460825098422192880e+00
2.460825098422192880e+00
2.459137546922208095e+00
2.459137546922208095e+00
2.532264778588213971e+00
2.548952787865840897e+00
2.548952787865840897e+00
2.514264229255043226e+00
2.514264229255043226e+00
2.490451002533036640e+00
2.437761894589068223e+00
2.437761894589068223e+00
2.531327249977111116e+00
2.531327249977111116e+00
2.558890591143528681e+00
2.612704733420819547e+00
2.612704733420819547e+00
2.587016449476607249e+00
2.540702536088137453e+00
2.540702536088137453e+00
2.530389721366008260e+00
2.530389721366008260e+00
2.483888302255317981e+00
2.400260750144962874e+00
2.400260750144962874e+00
2.419011322367015993e+00
2.419011322367015993e+00
2.413011139255958781e+00
2.422573931089205601e+00
2.422573931089205601e+00
2.477513107699820250e+00
2.477513107699820250e+00
2.551015350810266202e+00
2.656581072420422629e+00
2.656581072420422629e+00
2.620204962309641061e+00
2.583641346476638123e+00
2.583641346476638123e+00
2.521014435254982367e+00
2.521014435254982367e+00
2.483700796533097499e+00
2.488950956755272337e+00
2.488950956755272337e+00
2.498513748588519157e+00
2.498513748588519157e+00
2.509201574755088870e+00
2.559078096865749163e+00
2.559078096865749163e+00
2.542390087588122238e+00
2.542390087588122238e+00
2.460075075533310951e+00
2.440949491866817311e+00
2.440949491866817311e+00
2.431011688589129527e+00
2.431011688589129527e+00
2.458012512588885201e+00
2.416386242255928352e+00
2.416386242255928352e+00
2.483513290810876573e+00
2.483513290810876573e+00
2.582141300698873820e+00
2.589079012421033443e+00
2.589079012421033443e+00
2.585516403698843391e+00
2.560015625476852019e+00
2.560015625476852019e+00
2.543702627643666059e+00
2.543702627643666059e+00
2.498138737144077748e+00
2.492701071199682428e+00
2.492701071199682428e+00
2.492138554033020981e+00
2.428761619922483295e+00
2.395573107089449927e+00
2.395573107089449927e+00
2.503951414532914033e+00
2.503951414532914033e+00
2.458200018311105683e+00
2.549702810754722826e+00
2.549702810754722826e+00
2.634830408642841792e+00
2.634830408642841792e+00
2.572953520310068409e+00
2.526264595477157204e+00
2.526264595477157204e+00
2.400635761589403838e+00
2.400635761589403838e+00
2.425761528366954689e+00
2.600516861476485531e+00
2.600516861476485531e+00
2.608767113254188974e+00
2.511639149143956029e+00
2.511639149143956029e+00
2.474700521866512126e+00
2.474700521866512126e+00
2.449199743644520311e+00
2.491576036866359534e+00
2.491576036866359534e+00
2.502826380199591139e+00
2.502826380199591139e+00
2.399885738700521909e+00
2.536577410199285953e+00
2.536577410199285953e+00
2.550827845088045720e+00
2.550827845088045720e+00
2.497388714255195818e+00
2.585328897976622908e+00
2.585328897976622908e+00
2.592079103976562049e+00
2.592079103976562049e+00
2.506951506088442638e+00
2.471512924588763038e+00
2.471512924588763038e+00
2.494013611255226248e+00
2.496826197088534371e+00
2.496826197088534371e+00
2.451262306588946061e+00
2.451262306588946061e+00
2.420323862422559369e+00
2.453137363811151772e+00
2.453137363811151772e+00
2.509014069032868388e+00
2.509014069032868388e+00
2.586266426587725320e+00
2.657706106753745967e+00
2.657706106753745967e+00
2.612704733420819547e+00
2.485388348033082284e+00
2.485388348033082284e+00
2.503951414532914033e+00
2.597891781365397890e+00
2.597891781365397890e+00
2.596766747032074996e+00
2.596766747032074996e+00
2.450887295144505096e+00
2.383760246589556875e+00
2.383760246589556875e+00
2.394073061311685624e+00
2.394073061311685624e+00
2.356946928312021239e+00
2.460075075533310951e+00
2.460075075533310951e+00
2.582328806421094747e+00
2.600704367198706013e+00
2.600704367198706013e+00
2.596579241309854513e+00
2.596579241309854513e+00
2.575766106143375644e+00
2.519139378032776655e+00
2.519139378032776655e+00
2.483138279366435608e+00
2.483138279366435608e+00
2.494013611255226248e+00
2.522701986754967152e+00
2.522701986754967152e+00
2.606329538865321815e+00
2.510326609088412209e+00
2.510326609088412209e+00
2.450137272255623166e+00
2.450137272255623166e+00
2.430824182866909045e+00
2.483138279366435608e+00
2.483138279366435608e+00
2.450324777977843649e+00
2.450324777977843649e+00
2.488200933866389963e+00
2.537327433088168327e+00
2.537327433088168327e+00
2.487825922421948999e+00
2.583828852198858606e+00
2.583828852198858606e+00
2.576516129032258018e+00
2.576516129032258018e+00
2.626392651142918311e+00
2.619829950865200097e+00
2.619829950865200097e+00
2.551765373699148576e+00
2.551765373699148576e+00
2.440761986144596829e+00
2.403635853144932444e+00
2.403635853144932444e+00
2.489325968199713301e+00
2.489325968199713301e+00
2.531889767143772563e+00
2.467012787255470574e+00
2.467012787255470574e+00
2.452574846644489881e+00
2.467012787255470574e+00
2.467012787255470574e+00
2.478638142033143144e+00
2.478638142033143144e+00
2.413386150700399746e+00
2.530389721366008260e+00
2.530389721366008260e+00
2.545577684865871326e+00
2.545577684865871326e+00
2.520451918088320475e+00
2.537327433088168327e+00
2.537327433088168327e+00
2.538264961699270739e+00
2.496826197088534371e+00
2.496826197088534371e+00
2.513139194921720332e+00
2.513139194921720332e+00
2.510326609088412209e+00
2.487450910977508034e+00
2.487450910977508034e+00
2.459137546922208095e+00
2.459137546922208095e+00
2.499451277199621568e+00
2.554015442365794808e+00
2.554015442365794808e+00
2.576141117587817053e+00
2.528702169866023475e+00
2.528702169866023475e+00
2.575391094698934680e+00
2.575391094698934680e+00
2.550827845088045720e+00
2.455387432477798004e+00
2.455387432477798004e+00
2.420511368144779851e+00
2.420511368144779851e+00
2.501701345866268245e+00
2.512951689199499850e+00
2.512951689199499850e+00
2.563578234199041628e+00
2.563578234199041628e+00
2.538452467421491221e+00
2.377947569200720146e+00
2.377947569200720146e+00
2.355634388256477418e+00
2.355634388256477418e+00
2.479388164922025517e+00
2.511451643421735547e+00
2.511451643421735547e+00
2.603516953032014136e+00
2.575203588976714197e+00
2.575203588976714197e+00
2.524014526810510528e+00
2.524014526810510528e+00
2.548202764976958523e+00
2.538077455977050256e+00
2.538077455977050256e+00
2.536764915921506436e+00
2.536764915921506436e+00
2.506576494644001674e+00
2.527577135532700581e+00
2.527577135532700581e+00
2.509014069032868388e+00
2.509014069032868388e+00
2.503388897366253030e+00
2.455949949644459451e+00
2.455949949644459451e+00
2.437386883144627259e+00
2.437386883144627259e+00
2.479013153477584552e+00
2.524389538254951937e+00
2.524389538254951937e+00
2.565640797143467378e+00
2.575578600421155162e+00
2.575578600421155162e+00
2.539952513199255080e+00
2.539952513199255080e+00
2.536764915921506436e+00
2.515389263588366120e+00
2.515389263588366120e+00
2.511264137699515064e+00
2.511264137699515064e+00
2.528327158421582510e+00
2.532639790032654936e+00
2.532639790032654936e+00
2.533764824365978274e+00
2.533764824365978274e+00
2.474888027588732609e+00
2.430636677144688562e+00
2.430636677144688562e+00
2.381135166478469234e+00
2.437761894589068223e+00
2.437761894589068223e+00
2.457074983977782345e+00
2.457074983977782345e+00
2.530764732810449669e+00
2.616642353587451009e+00
2.616642353587451009e+00
2.600329355754265048e+00
2.600329355754265048e+00
2.556078005310220558e+00
2.520264412366099993e+00
2.520264412366099993e+00
2.520639423810540958e+00
2.520639423810540958e+00
2.527014618366038690e+00
2.434761803033539618e+00
2.434761803033539618e+00
2.454074892422254184e+00
2.454074892422254184e+00
2.438324411755729670e+00
2.477138096255378841e+00
2.477138096255378841e+00
2.539202490310373150e+00
2.589266518143253926e+00
2.589266518143253926e+00
2.626205145420697828e+00
2.626205145420697828e+00
2.625267616809594973e+00
2.528702169866023475e+00
2.528702169866023475e+00
2.518576860866115208e+00
2.518576860866115208e+00
2.523264503921628599e+00
2.440949491866817311e+00
2.440949491866817311e+00
2.308945463423566213e+00
2.308945463423566213e+00
2.402885830256050514e+00
2.439261940366832526e+00
2.439261940366832526e+00
2.464950224311044824e+00
2.464950224311044824e+00
2.506388988921781191e+00
2.471137913144322074e+00
2.471137913144322074e+00
2.554952970976897664e+00
2.620767479476302064e+00
2.620767479476302064e+00
2.613079744865260956e+00
2.613079744865260956e+00
2.595829218420972584e+00
2.571828485976745071e+00
2.571828485976745071e+00
2.532639790032654936e+00
2.532639790032654936e+00
2.476388073366496911e+00
2.444887112033448329e+00
2.444887112033448329e+00
2.460075075533310951e+00
2.460075075533310951e+00
2.471700430310983521e+00
2.423886471144749422e+00
2.423886471144749422e+00
2.433824274422437206e+00
2.488013428144169481e+00
2.488013428144169481e+00
2.568078371532334536e+00
2.568078371532334536e+00
2.561515671254616322e+00
2.522701986754967152e+00
2.522701986754967152e+00
2.522701986754967152e+00
2.522701986754967152e+00
2.562828211310159254e+00
2.506201483199560265e+00
2.506201483199560265e+00
2.491388531144139051e+00
2.491388531144139051e+00
2.532452284310434454e+00
2.520826929532761884e+00
2.520826929532761884e+00
2.539577501754814115e+00
2.473200476088747823e+00
2.473200476088747823e+00
2.420136356700338887e+00
2.420136356700338887e+00
2.421261391033662225e+00
2.422761436811426083e+00
2.422761436811426083e+00
2.476950590533158358e+00
2.476950590533158358e+00
2.501888851588488727e+00
2.599954344309823639e+00
2.599954344309823639e+00
2.612892239143040030e+00
2.612892239143040030e+00
2.594141666920987799e+00
2.581203772087771409e+00
2.581203772087771409e+00
2.599204321420941710e+00
2.599204321420941710e+00
2.542577593310342721e+00
2.465325235755485789e+00
2.465325235755485789e+00
2.443949583422345917e+00
2.443949583422345917e+00
2.412261116367076408e+00
2.422011413922543710e+00
2.422011413922543710e+00
2.436636860255744885e+00
2.454262398144474666e+00
2.454262398144474666e+00
2.511826654866176511e+00
2.511826654866176511e+00
2.562265694143497807e+00
2.591891598254341122e+00
2.591891598254341122e+00
2.568078371532334536e+00
2.568078371532334536e+00
2.545952696310312291e+00
2.556640522476882449e+00
2.556640522476882449e+00
2.495888668477431516e+00
2.495888668477431516e+00
2.464950224311044824e+00
2.433636768700216724e+00
2.433636768700216724e+00
2.494763634144108178e+00
2.494763634144108178e+00
2.521201940977202849e+00
2.500951322977385871e+00
2.500951322977385871e+00
2.466825281533250092e+00
2.489138462477492819e+00
2.489138462477492819e+00
2.483888302255317981e+00
2.483888302255317981e+00
2.502451368755150174e+00
2.521389446699423331e+00
2.521389446699423331e+00
2.553452925199133361e+00
2.553452925199133361e+00
2.589266518143253926e+00
2.530389721366008260e+00
2.530389721366008260e+00
2.534139835810419239e+00
2.534139835810419239e+00
2.483138279366435608e+00
2.465700247199926753e+00
2.465700247199926753e+00
2.489888485366374749e+00
2.499826288644062977e+00
2.499826288644062977e+00
2.478075624866481697e+00
2.478075624866481697e+00
2.473012970366527341e+00
2.521201940977202849e+00
2.521201940977202849e+00
2.577641163365581356e+00
2.577641163365581356e+00
2.527014618366038690e+00
2.584016357921079532e+00
2.584016357921079532e+00
2.576891140476698983e+00
2.576891140476698983e+00
2.507514023255104085e+00
2.432886745811334794e+00
2.432886745811334794e+00
2.439261940366832526e+00
2.439261940366832526e+00
2.456512466811120898e+00
2.444512100589007364e+00
2.444512100589007364e+00
2.494576128421887695e+00
2.490638508255257122e+00
2.490638508255257122e+00
2.442637043366802097e+00
2.442637043366802097e+00
2.494013611255226248e+00
2.527389629810480098e+00
2.527389629810480098e+00
2.544827661976988953e+00
2.544827661976988953e+00
2.558515579699087716e+00
2.583078829309976676e+00
2.583078829309976676e+00
2.562453199865718290e+00
2.562453199865718290e+00
2.541265053254798900e+00
2.540702536088137453e+00
2.540702536088137453e+00
2.519514389477218064e+00
2.484075807977538464e+00
2.484075807977538464e+00
2.490263496810816157e+00
2.490263496810816157e+00
2.482763267921994643e+00
2.441512009033478758e+00
2.441512009033478758e+00
2.432699240089114312e+00
2.483700796533097499e+00
2.483700796533097499e+00
2.500763817255165389e+00
2.500763817255165389e+00
2.555140476699118146e+00
2.586078920865504838e+00
2.586078920865504838e+00
2.596579241309854513e+00
2.596579241309854513e+00
2.518389355143894726e+00
2.478450636310922661e+00
2.478450636310922661e+00
2.464012695699941968e+00
2.491013519699698087e+00
2.491013519699698087e+00
2.524014526810510528e+00
2.524014526810510528e+00
2.545952696310312291e+00
2.527014618366038690e+00
2.527014618366038690e+00
2.464200201422162451e+00
2.464200201422162451e+00
2.436636860255744885e+00
2.474888027588732609e+00
2.474888027588732609e+00
2.470387890255439700e+00
2.470387890255439700e+00
2.501888851588488727e+00
2.533389812921536866e+00
2.533389812921536866e+00
2.556640522476882449e+00
2.556640522476882449e+00
2.551765373699148576e+00
2.524014526810510528e+00
2.524014526810510528e+00
2.505076448866237371e+00
2.542765099032563203e+00
2.542765099032563203e+00
2.512576677755058441e+00
2.512576677755058441e+00
2.522701986754967152e+00
2.511076631977294138e+00
2.511076631977294138e+00
2.437574388866847741e+00
2.437574388866847741e+00
2.398385692922757606e+00
2.469075350199895880e+00
2.469075350199895880e+00
2.528139652699362028e+00
2.528139652699362028e+00
2.594141666920987799e+00
2.582328806421094747e+00
2.582328806421094747e+00
2.561890682699057287e+00
2.561890682699057287e+00
2.514451734977264152e+00
2.506388988921781191e+00
2.506388988921781191e+00
2.526639606921598169e+00
2.504888943144016888e+00
2.504888943144016888e+00
2.532077272865993045e+00
2.532077272865993045e+00
2.500763817255165389e+00
2.446387157811212187e+00
2.446387157811212187e+00
2.398573198644978088e+00
2.398573198644978088e+00
2.392948026978362286e+00
2.455949949644459451e+00
2.455949949644459451e+00
2.504513931699575480e+00
2.504513931699575480e+00
2.578766197698904250e+00
2.614579790643025259e+00
2.614579790643025259e+00
2.515201757866145638e+00
2.515201757866145638e+00
2.527764641254921063e+00
2.537327433088168327e+00
2.537327433088168327e+00
2.549140293588061379e+00
2.520076906643879511e+00
2.520076906643879511e+00
2.489138462477492819e+00
2.489138462477492819e+00
2.490451002533036640e+00
2.460637592699972398e+00
2.460637592699972398e+00
2.448262215033417899e+00
2.448262215033417899e+00
2.475450544755394056e+00
2.509951597643971244e+00
2.509951597643971244e+00
2.509576586199530279e+00
2.533577318643757348e+00
2.533577318643757348e+00
2.577641163365581356e+00
2.577641163365581356e+00
2.573141026032288892e+00
2.584766380809961461e+00
2.584766380809961461e+00
2.612329721976378583e+00
2.612329721976378583e+00
2.535827387310404024e+00
2.473387981810968306e+00
2.473387981810968306e+00
2.440011963255714900e+00
2.440011963255714900e+00
2.402885830256050514e+00
2.369134800256355700e+00
2.369134800256355700e+00
2.419386333811456957e+00
2.419386333811456957e+00
2.488763451033051854e+00
2.518576860866115208e+00
2.518576860866115208e+00
2.543702627643666059e+00
2.543702627643666059e+00
2.604079470198675583e+00
2.620579973754082026e+00
2.620579973754082026e+00
2.583453840754417641e+00
2.539389996032593633e+00
2.539389996032593633e+00
2.504138920255134515e+00
2.504138920255134515e+00
2.497201208532975336e+00
2.446762169255653596e+00
2.446762169255653596e+00
2.452762352366710363e+00
2.452762352366710363e+00
2.486513382366405178e+00
2.481263222144230340e+00
2.481263222144230340e+00
2.477513107699820250e+00
2.502263863032929692e+00
2.502263863032929692e+00
2.535077364421521651e+00
2.535077364421521651e+00
2.523639515366069563e+00
2.555890499588000075e+00
2.555890499588000075e+00
2.585516403698843391e+00
2.585516403698843391e+00
2.530014709921567295e+00
2.514076723532822744e+00
2.514076723532822744e+00
2.500763817255165389e+00
2.482950773644215126e+00
2.482950773644215126e+00
2.438511917477950597e+00
2.438511917477950597e+00
2.458012512588885201e+00
2.470387890255439700e+00
2.470387890255439700e+00
2.471325418866542556e+00
2.471325418866542556e+00
2.490451002533036640e+00
2.529077181310464884e+00
2.529077181310464884e+00
2.565453291421246895e+00
2.565453291421246895e+00
2.569578417310098839e+00
2.571265968810083624e+00
2.571265968810083624e+00
2.541640064699239865e+00
2.541640064699239865e+00
2.515014252143925599e+00
2.487638416699728516e+00
2.487638416699728516e+00
2.529452192754905848e+00
2.529452192754905848e+00
2.516514297921689458e+00
2.461012604144413807e+00
2.461012604144413807e+00
2.466075258644368162e+00
2.467575304422132465e+00
2.467575304422132465e+00
2.462325144199957183e+00
2.462325144199957183e+00
2.443387066255684470e+00
2.509576586199530279e+00
2.509576586199530279e+00
2.517076815088350905e+00
2.517076815088350905e+00
2.534139835810419239e+00
2.557203039643543896e+00
2.557203039643543896e+00
2.560765648365733949e+00
2.560765648365733949e+00
2.545765190588091809e+00
2.541640064699239865e+00
2.541640064699239865e+00
2.516889309366130423e+00
2.516889309366130423e+00
2.504888943144016888e+00
2.493076082644123392e+00
2.493076082644123392e+00
2.478263130588702179e+00
2.436636860255744885e+00
2.436636860255744885e+00
2.457637501144443792e+00
2.457637501144443792e+00
2.510514114810632691e+00
2.530952238532670151e+00
2.530952238532670151e+00
2.533014801477095901e+00
2.533014801477095901e+00
2.546890224921415147e+00
2.551202856532486685e+00
2.551202856532486685e+00
2.530389721366008260e+00
2.530389721366008260e+00
2.516139286477248493e+00
2.524389538254951937e+00
2.524389538254951937e+00
2.519889400921659028e+00
2.510514114810632691e+00
2.510514114810632691e+00
2.499638782921842051e+00
2.499638782921842051e+00
2.481263222144230340e+00
2.434761803033539618e+00
2.434761803033539618e+00
2.449762260811182202e+00
2.449762260811182202e+00
2.518014343699453761e+00
2.477325601977599767e+00
2.477325601977599767e+00
2.485388348033082284e+00
2.485388348033082284e+00
2.591516586809900158e+00
2.529264687032685366e+00
2.529264687032685366e+00
2.543890133365886541e+00
2.547452742088076594e+00
2.547452742088076594e+00
2.572578508865627445e+00
2.572578508865627445e+00
2.546702719199194664e+00
2.462325144199957183e+00
2.462325144199957183e+00
2.470950407422101591e+00
2.470950407422101591e+00
2.456887478255561863e+00
2.424448988311410869e+00
2.424448988311410869e+00
2.436824365977965812e+00
2.436824365977965812e+00
2.465512741477706271e+00
2.547265236365856111e+00
2.547265236365856111e+00
2.557203039643543896e+00
2.557203039643543896e+00
2.584766380809961461e+00
2.585328897976622908e+00
2.585328897976622908e+00
2.530014709921567295e+00
2.503576403088473068e+00
2.503576403088473068e+00
2.497576219977416301e+00
2.497576219977416301e+00
2.518576860866115208e+00
2.472262947477644968e+00
2.472262947477644968e+00
2.466075258644368162e+00
2.466075258644368162e+00
2.472075441755424485e+00
2.471887936033204003e+00
2.471887936033204003e+00
2.500763817255165389e+00
2.500388805810724424e+00
2.500388805810724424e+00
2.569203405865657430e+00
2.569203405865657430e+00
2.559640614032411055e+00
2.553265419476912879e+00
2.553265419476912879e+00
2.574266060365611786e+00
2.574266060365611786e+00
2.532639790032654936e+00
2.458950041199987613e+00
2.458950041199987613e+00
2.454449903866695148e+00
2.473950498977630197e+00
2.473950498977630197e+00
2.509764091921750762e+00
2.509764091921750762e+00
2.486700888088625661e+00
2.431761711478011456e+00
2.431761711478011456e+00
2.438324411755729670e+00
2.438324411755729670e+00
2.521576952421643814e+00
2.556453016754661967e+00
2.556453016754661967e+00
2.537139927365947845e+00
2.537139927365947845e+00
2.564515762810144484e+00
2.567703360087893572e+00
2.567703360087893572e+00
2.550827845088045720e+00
2.550827845088045720e+00
2.494201116977446731e+00
2.446762169255653596e+00
2.446762169255653596e+00
2.476013061922055947e+00
2.476013061922055947e+00
2.480513199255348411e+00
2.470950407422101591e+00
2.470950407422101591e+00
2.477888119144261214e+00
2.459325052644428578e+00
2.459325052644428578e+00
2.488575945310831372e+00
2.488575945310831372e+00
2.540702536088137453e+00
2.547077730643635629e+00
2.547077730643635629e+00
2.546140202032532773e+00
2.546140202032532773e+00
2.593391644032105425e+00
2.575578600421155162e+00
2.575578600421155162e+00
2.508639057588427423e+00
2.508639057588427423e+00
2.514076723532822744e+00
2.482763267921994643e+00
2.482763267921994643e+00
2.486513382366405178e+00
2.486513382366405178e+00
2.494763634144108178e+00
2.476013061922055947e+00
2.476013061922055947e+00
2.467575304422132465e+00
2.451637318033387469e+00
2.451637318033387469e+00
2.504326425977354997e+00
2.504326425977354997e+00
2.533389812921536866e+00
2.486138370921964214e+00
2.486138370921964214e+00
2.490826013977477604e+00
2.490826013977477604e+00
2.554202948088015290e+00
2.591329081087679675e+00
2.591329081087679675e+00
2.558703085421308199e+00
2.558703085421308199e+00
2.550452833643604755e+00
2.539765007477034597e+00
2.539765007477034597e+00
2.500201300088503942e+00
2.500201300088503942e+00
2.450699789422284613e+00
2.462887661366619074e+00
2.462887661366619074e+00
2.443387066255684470e+00
2.426886562700277583e+00
2.426886562700277583e+00
2.488575945310831372e+00
2.488575945310831372e+00
2.519326883754997581e+00
2.525327066866054349e+00
2.525327066866054349e+00
2.572015991698965554e+00
2.572015991698965554e+00
2.595454206976531619e+00
2.561703176976836804e+00
2.561703176976836804e+00
2.530389721366008260e+00
2.530389721366008260e+00
2.477700613422040732e+00
2.452199835200048916e+00
2.452199835200048916e+00
2.473575487533188788e+00
2.473575487533188788e+00
2.451449812311166987e+00
2.502451368755150174e+00
2.502451368755150174e+00
2.420698873867000778e+00
2.447324686422315043e+00
2.447324686422315043e+00
2.527577135532700581e+00
2.527577135532700581e+00
2.547265236365856111e+00
2.550827845088045720e+00
2.550827845088045720e+00
2.586266426587725320e+00
2.586266426587725320e+00
2.582141300698873820e+00
2.546140202032532773e+00
2.546140202032532773e+00
2.526639606921598169e+00
2.526639606921598169e+00
2.516139286477248493e+00
2.500388805810724424e+00
2.500388805810724424e+00
2.475075533310953091e+00
2.473387981810968306e+00
2.473387981810968306e+00
2.468512833033234433e+00
2.468512833033234433e+00
2.452762352366710363e+00
2.472262947477644968e+00
2.472262947477644968e+00
2.513139194921720332e+00
2.527014618366038690e+00
2.512576677755058441e+00
2.512576677755058441e+00
2.572953520310068409e+00
2.572953520310068409e+00
2.559828119754631537e+00
2.530764732810449669e+00
2.530764732810449669e+00
2.502826380199591139e+00
2.502826380199591139e+00
2.488388439588610446e+00
2.501326334421826836e+00
2.501326334421826836e+00
2.491388531144139051e+00
2.491388531144139051e+00
2.493638599810785283e+00
2.474138004699850679e+00
2.474138004699850679e+00
2.436261848811303921e+00
2.436261848811303921e+00
2.480325693533127485e+00
2.534889858699301168e+00
2.534889858699301168e+00
2.527014618366038690e+00
2.556265511032441040e+00
2.556265511032441040e+00
2.567140842921231680e+00
2.567140842921231680e+00
2.546140202032532773e+00
2.530952238532670151e+00
2.530952238532670151e+00
2.545015167699209435e+00
2.545015167699209435e+00
2.508451551866206941e+00
2.473200476088747823e+00
2.473200476088747823e+00
2.435886837366862956e+00
2.435886837366862956e+00
2.416948759422589799e+00
2.415448713644825496e+00
2.415448713644825496e+00
2.435511825922421991e+00
2.435511825922421991e+00
2.469637867366557771e+00
2.545765190588091809e+00
2.545765190588091809e+00
2.578766197698904250e+00
2.621329996642963955e+00
2.621329996642963955e+00
2.607267067476424671e+00
2.607267067476424671e+00
2.564890774254585448e+00
2.536014893032624506e+00
2.536014893032624506e+00
2.522139469588305261e+00
2.498326242866298674e+00
2.498326242866298674e+00
2.474138004699850679e+00
2.456512466811120898e+00
2.456512466811120898e+00
2.418823816644795066e+00
2.418823816644795066e+00
2.398948210089419053e+00
2.445824640644550740e+00
2.445824640644550740e+00
2.513889217810602261e+00
2.513889217810602261e+00
2.551202856532486685e+00
2.572578508865627445e+00
2.572578508865627445e+00
2.600891872920926495e+00
2.600891872920926495e+00
2.573141026032288892e+00
2.543515121921445576e+00
2.543515121921445576e+00
2.514826746421705117e+00
2.500201300088503942e+00
2.500201300088503942e+00
2.493451094088564801e+00
2.493451094088564801e+00
2.468887844477675397e+00
2.442262031922361132e+00
2.442262031922361132e+00
2.437949400311288706e+00
2.437949400311288706e+00
2.415823725089266905e+00
2.452574846644489881e+00
2.452574846644489881e+00
2.532452284310434454e+00
2.570515945921201251e+00
2.570515945921201251e+00
2.590954069643238711e+00
2.590954069643238711e+00
2.569765923032319321e+00
2.556453016754661967e+00
2.556453016754661967e+00
2.523264503921628599e+00
2.523264503921628599e+00
2.490263496810816157e+00
2.455387432477798004e+00
2.455387432477798004e+00
2.468325327311013950e+00
2.468325327311013950e+00
2.495326151310770069e+00
2.486888393810846587e+00
2.486888393810846587e+00
2.479763176366466482e+00
2.468325327311013950e+00
2.468325327311013950e+00
2.493076082644123392e+00
2.493076082644123392e+00
2.515389263588366120e+00
2.516514297921689458e+00
2.516514297921689458e+00
2.551015350810266202e+00
2.551015350810266202e+00
2.590954069643238711e+00
2.559453108310190128e+00
2.559453108310190128e+00
2.526639606921598169e+00
2.526639606921598169e+00
2.511639149143956029e+00
2.509576586199530279e+00
2.509576586199530279e+00
2.519514389477218064e+00
2.520639423810540958e+00
2.520639423810540958e+00
2.488763451033051854e+00
2.488763451033051854e+00
2.451449812311166987e+00
2.425011505478072316e+00
2.425011505478072316e+00
2.482388256477553679e+00
2.519701895199438546e+00
2.519701895199438546e+00
2.547077730643635629e+00
2.547077730643635629e+00
2.552140385143589540e+00
2.516326792199468976e+00
2.516326792199468976e+00
2.475263039033173573e+00
2.478263130588702179e+00
2.478263130588702179e+00
2.508264046143986459e+00
