2.210129947813348927e+00
2.210129947813348927e+00
2.210129947813348927e+00
2.248943632312997654e+00
2.248943632312997654e+00
2.248943632312997654e+00
2.314570635090182460e+00
2.314570635090182460e+00
2.314570635090182460e+00
2.314570635090182460e+00
2.343821527756584366e+00
2.343821527756584366e+00
2.343821527756584366e+00
2.381885189367351607e+00
2.381885189367351607e+00
2.381885189367351607e+00
2.427449079866939474e+00
2.427449079866939474e+00
2.427449079866939474e+00
2.427449079866939474e+00
2.384322763756218322e+00
2.384322763756218322e+00
2.384322763756218322e+00
2.386385326700643628e+00
2.386385326700643628e+00
2.386385326700643628e+00
2.386385326700643628e+00
2.397635670033875677e+00
2.397635670033875677e+00
2.397635670033875677e+00
2.285507248146000592e+00
2.285507248146000592e+00
2.285507248146000592e+00
2.247818597979674760e+00
2.247818597979674760e+00
2.247818597979674760e+00
2.206192327646717910e+00
2.206192327646717910e+00
2.206192327646717910e+00
2.206192327646717910e+00
2.167191137424848257e+00
2.167191137424848257e+00
2.167191137424848257e+00
2.190066835535752432e+00
2.190066835535752432e+00
2.190066835535752432e+00
2.207879879146702695e+00
2.207879879146702695e+00
2.207879879146702695e+00
2.207879879146702695e+00
2.261131504257332114e+00
2.261131504257332114e+00
2.261131504257332114e+00
2.322258369701224012e+00
2.322258369701224012e+00
2.322258369701224012e+00
2.322258369701224012e+00
2.351884273812066883e+00
2.351884273812066883e+00
2.351884273812066883e+00
2.402510818811609106e+00
2.402510818811609106e+00
2.402510818811609106e+00
2.416948759422589799e+00
2.416948759422589799e+00
2.416948759422589799e+00
2.416948759422589799e+00
2.379447614978484449e+00
2.379447614978484449e+00
2.379447614978484449e+00
2.422573931089205601e+00
2.422573931089205601e+00
2.422573931089205601e+00
2.383385235145115466e+00
2.383385235145115466e+00
2.383385235145115466e+00
2.383385235145115466e+00
2.276131962034974254e+00
2.276131962034974254e+00
2.276131962034974254e+00
2.244631000701926116e+00
2.244631000701926116e+00
2.244631000701926116e+00
2.184254158146916147e+00
2.184254158146916147e+00
2.184254158146916147e+00
2.184254158146916147e+00
2.165878597369304437e+00
2.165878597369304437e+00
2.195504501480147752e+00
2.195504501480147752e+00
2.195504501480147752e+00
2.218380199591051927e+00
2.218380199591051927e+00
2.218380199591051927e+00
2.283069673757133433e+00
2.283069673757133433e+00
2.283069673757133433e+00
2.342133976256599581e+00
2.342133976256599581e+00
2.342133976256599581e+00
2.342133976256599581e+00
2.361072054200873183e+00
2.361072054200873183e+00
2.361072054200873183e+00
2.422011413922543710e+00
2.422011413922543710e+00
2.422011413922543710e+00
2.405135898922696747e+00
2.405135898922696747e+00
2.405135898922696747e+00
2.405135898922696747e+00
2.366884731589709023e+00
2.366884731589709023e+00
2.366884731589709023e+00
2.427074068422498510e+00
2.427074068422498510e+00
2.427074068422498510e+00
2.344946562089907705e+00
2.344946562089907705e+00
2.344946562089907705e+00
2.344946562089907705e+00
2.266381664479506952e+00
2.266381664479506952e+00
2.266381664479506952e+00
2.233380657368694511e+00
2.233380657368694511e+00
2.233380657368694511e+00
2.171316263313699757e+00
2.171316263313699757e+00
2.171316263313699757e+00
2.171316263313699757e+00
2.174691366313669327e+00
2.174691366313669327e+00
2.174691366313669327e+00
2.207504867702261730e+00
2.207504867702261730e+00
2.207504867702261730e+00
2.233568163090914993e+00
2.233568163090914993e+00
2.233568163090914993e+00
2.303882808923612302e+00
2.303882808923612302e+00
2.303882808923612302e+00
2.345134067812128187e+00
2.345134067812128187e+00
2.345134067812128187e+00
2.352259285256507848e+00
2.352259285256507848e+00
2.352259285256507848e+00
2.352259285256507848e+00
2.394260567033906106e+00
2.394260567033906106e+00
2.394260567033906106e+00
2.393698049867244659e+00
2.393698049867244659e+00
2.393698049867244659e+00
2.391822992645039392e+00
2.391822992645039392e+00
2.391822992645039392e+00
2.391822992645039392e+00
2.429511642811365224e+00
2.429511642811365224e+00
2.429511642811365224e+00
2.301257728812525105e+00
2.301257728812525105e+00
2.301257728812525105e+00
2.258881435590685438e+00
2.258881435590685438e+00
2.258881435590685438e+00
2.258881435590685438e+00
2.216880153813287624e+00
2.216880153813287624e+00
2.216880153813287624e+00
2.169441206091494490e+00
2.169441206091494490e+00
2.169441206091494490e+00
2.189879329813531950e+00
2.189879329813531950e+00
2.189879329813531950e+00
2.189879329813531950e+00
2.221005279702139568e+00
2.221005279702139568e+00
2.221005279702139568e+00
2.264131595812860720e+00
2.264131595812860720e+00
2.264131595812860720e+00
2.328258552812280335e+00
2.328258552812280335e+00
2.328258552812280335e+00
2.328258552812280335e+00
2.347571642200994901e+00
2.347571642200994901e+00
2.347571642200994901e+00
2.386385326700643628e+00
2.386385326700643628e+00
2.386385326700643628e+00
2.415073702200384531e+00
2.415073702200384531e+00
2.415073702200384531e+00
2.415073702200384531e+00
2.365572191534165203e+00
2.365572191534165203e+00
2.365572191534165203e+00
2.389947935422834124e+00
2.389947935422834124e+00
2.389947935422834124e+00
2.386572832422864110e+00
2.386572832422864110e+00
2.386572832422864110e+00
2.386572832422864110e+00
2.279694570757164307e+00
2.279694570757164307e+00
2.279694570757164307e+00
2.251006195257423848e+00
2.251006195257423848e+00
2.251006195257423848e+00
2.197567064424573946e+00
2.197567064424573946e+00
2.197567064424573946e+00
2.197567064424573946e+00
2.171316263313699757e+00
2.171316263313699757e+00
2.171316263313699757e+00
2.204317270424512643e+00
2.204317270424512643e+00
2.204317270424512643e+00
2.220255256813257638e+00
2.220255256813257638e+00
2.220255256813257638e+00
2.220255256813257638e+00
2.275756950590533290e+00
2.275756950590533290e+00
2.275756950590533290e+00
2.336883816034425188e+00
2.336883816034425188e+00
2.336883816034425188e+00
2.350384228034303025e+00
2.350384228034303025e+00
2.350384228034303025e+00
2.350384228034303025e+00
2.407948484756004870e+00
2.407948484756004870e+00
2.407948484756004870e+00
2.415636219367045978e+00
2.415636219367045978e+00
2.415636219367045978e+00
2.363884640034180418e+00
2.363884640034180418e+00
2.363884640034180418e+00
2.363884640034180418e+00
2.410011047700430176e+00
2.410011047700430176e+00
2.410011047700430176e+00
2.348321665089877275e+00
2.348321665089877275e+00
2.348321665089877275e+00
2.250068666646320992e+00
2.250068666646320992e+00
2.250068666646320992e+00
2.250068666646320992e+00
2.238255806146427940e+00
2.238255806146427940e+00
2.238255806146427940e+00
2.190816858424634361e+00
2.190816858424634361e+00
2.190816858424634361e+00
2.188004272591326682e+00
2.188004272591326682e+00
2.188004272591326682e+00
2.188004272591326682e+00
2.224567888424329176e+00
2.224567888424329176e+00
2.224567888424329176e+00
2.243693472090823260e+00
2.243693472090823260e+00
2.243693472090823260e+00
2.301070223090304623e+00
2.301070223090304623e+00
2.301070223090304623e+00
2.301070223090304623e+00
2.343071504867702437e+00
2.343071504867702437e+00
2.343071504867702437e+00
2.357884456923124095e+00
2.357884456923124095e+00
2.357884456923124095e+00
2.417323770867030763e+00
2.417323770867030763e+00
2.417323770867030763e+00
2.417323770867030763e+00
2.396510635700552783e+00
2.396510635700552783e+00
2.396510635700552783e+00
2.366697225867488541e+00
2.366697225867488541e+00
2.366697225867488541e+00
2.418261299478133619e+00
2.418261299478133619e+00
2.418261299478133619e+00
2.418261299478133619e+00
2.315320657979064389e+00
2.315320657979064389e+00
2.315320657979064389e+00
2.243318460646382295e+00
2.243318460646382295e+00
2.243318460646382295e+00
2.243318460646382295e+00
2.222692831202123909e+00
2.222692831202123909e+00
2.222692831202123909e+00
2.161940977202673420e+00
2.161940977202673420e+00
2.161940977202673420e+00
2.170753746147038310e+00
2.170753746147038310e+00
2.170753746147038310e+00
2.170753746147038310e+00
2.206192327646717910e+00
2.206192327646717910e+00
2.206192327646717910e+00
2.248568620868556689e+00
2.248568620868556689e+00
2.248568620868556689e+00
2.315133152256843907e+00
2.315133152256843907e+00
2.315133152256843907e+00
2.315133152256843907e+00
2.352446790978728330e+00
2.352446790978728330e+00
2.352446790978728330e+00
2.387510361033966966e+00
2.387510361033966966e+00
2.387510361033966966e+00
2.433074251533554833e+00
2.433074251533554833e+00
2.433074251533554833e+00
2.433074251533554833e+00
2.386947843867305519e+00
2.386947843867305519e+00
2.386947843867305519e+00
2.392198004089480357e+00
2.392198004089480357e+00
2.392198004089480357e+00
2.408135990478225352e+00
2.408135990478225352e+00
2.408135990478225352e+00
2.408135990478225352e+00
2.293757499923703591e+00
2.293757499923703591e+00
2.293757499923703591e+00
2.250631183812982439e+00
2.250631183812982439e+00
2.250631183812982439e+00
2.213130039368877089e+00
2.213130039368877089e+00
2.213130039368877089e+00
2.213130039368877089e+00
2.173566331980346433e+00
2.173566331980346433e+00
2.173566331980346433e+00
2.198129581591235393e+00
2.198129581591235393e+00
2.198129581591235393e+00
2.217817682424390480e+00
2.217817682424390480e+00
2.217817682424390480e+00
2.217817682424390480e+00
2.264881618701742649e+00
2.264881618701742649e+00
2.264881618701742649e+00
2.328071047090059853e+00
2.328071047090059853e+00
2.328071047090059853e+00
2.348509170812097757e+00
2.348509170812097757e+00
2.348509170812097757e+00
2.348509170812097757e+00
2.397635670033875677e+00
2.397635670033875677e+00
2.397635670033875677e+00
2.423886471144749422e+00
2.423886471144749422e+00
2.423886471144749422e+00
2.374947477645191540e+00
2.374947477645191540e+00
2.374947477645191540e+00
2.374947477645191540e+00
2.409261024811548246e+00
2.409261024811548246e+00
2.409261024811548246e+00
2.375322489089632505e+00
2.375322489089632505e+00
2.375322489089632505e+00
2.269006744590594149e+00
2.269006744590594149e+00
2.269006744590594149e+00
2.269006744590594149e+00
2.241255897701956545e+00
2.241255897701956545e+00
2.241255897701956545e+00
2.184441663869136629e+00
2.184441663869136629e+00
2.184441663869136629e+00
2.159128391369365740e+00
2.159128391369365740e+00
2.159128391369365740e+00
2.159128391369365740e+00
2.204692281868953607e+00
2.204692281868953607e+00
2.204692281868953607e+00
2.225692922757652514e+00
2.225692922757652514e+00
2.225692922757652514e+00
2.281757133701590057e+00
2.281757133701590057e+00
2.281757133701590057e+00
2.333883724478896582e+00
2.333883724478896582e+00
2.333883724478896582e+00
2.333883724478896582e+00
2.348321665089877275e+00
2.348321665089877275e+00
2.348321665089877275e+00
2.411698599200414961e+00
2.411698599200414961e+00
2.411698599200414961e+00
2.406448438978240567e+00
2.406448438978240567e+00
2.406448438978240567e+00
2.406448438978240567e+00
2.363697134311959935e+00
2.363697134311959935e+00
2.363697134311959935e+00
2.426136539811395654e+00
2.426136539811395654e+00
2.426136539811395654e+00
2.350759239478743989e+00
2.350759239478743989e+00
2.350759239478743989e+00
2.350759239478743989e+00
2.257381389812921579e+00
2.257381389812921579e+00
2.257381389812921579e+00
2.232255623035371173e+00
2.232255623035371173e+00
2.232255623035371173e+00
2.182191595202490397e+00
2.182191595202490397e+00
2.182191595202490397e+00
2.182191595202490397e+00
2.184629169591357556e+00
2.184629169591357556e+00
2.184629169591357556e+00
2.218567705313272853e+00
2.218567705313272853e+00
2.218567705313272853e+00
2.241818414868617992e+00
2.241818414868617992e+00
2.241818414868617992e+00
2.241818414868617992e+00
2.307445417645802355e+00
2.307445417645802355e+00
2.307445417645802355e+00
2.348321665089877275e+00
2.348321665089877275e+00
2.348321665089877275e+00
2.371759880367442896e+00
2.371759880367442896e+00
2.371759880367442896e+00
2.371759880367442896e+00
2.427449079866939474e+00
2.427449079866939474e+00
2.427449079866939474e+00
2.404760887478255782e+00
2.404760887478255782e+00
2.404760887478255782e+00
2.404760887478255782e+00
2.389197912533951751e+00
2.389197912533951751e+00
2.389197912533951751e+00
2.422573931089205601e+00
2.422573931089205601e+00
2.422573931089205601e+00
2.310820520645771925e+00
2.310820520645771925e+00
2.310820520645771925e+00
2.310820520645771925e+00
2.251756218146305777e+00
2.251756218146305777e+00
2.251756218146305777e+00
2.218755211035493335e+00
2.218755211035493335e+00
2.218755211035493335e+00
2.164566057313760616e+00
2.164566057313760616e+00
2.164566057313760616e+00
2.164566057313760616e+00
2.183504135258034218e+00
2.183504135258034218e+00
2.183504135258034218e+00
2.219130222479934300e+00
2.219130222479934300e+00
2.219130222479934300e+00
2.251381206701864812e+00
2.251381206701864812e+00
2.251381206701864812e+00
2.251381206701864812e+00
2.311945554979094819e+00
2.311945554979094819e+00
2.311945554979094819e+00
2.343071504867702437e+00
2.343071504867702437e+00
2.343071504867702437e+00
2.374197454756310055e+00
2.374197454756310055e+00
2.374197454756310055e+00
2.374197454756310055e+00
2.407010956144902014e+00
2.407010956144902014e+00
2.407010956144902014e+00
2.363509628589739453e+00
2.363509628589739453e+00
2.363509628589739453e+00
2.383572740867336393e+00
2.383572740867336393e+00
2.383572740867336393e+00
2.383572740867336393e+00
2.398573198644978088e+00
2.398573198644978088e+00
2.398573198644978088e+00
2.282694662312692468e+00
2.282694662312692468e+00
2.282694662312692468e+00
2.239568346201971760e+00
2.239568346201971760e+00
2.239568346201971760e+00
2.239568346201971760e+00
2.189691824091311467e+00
2.189691824091311467e+00
2.189691824091311467e+00
2.157440839869380955e+00
2.157440839869380955e+00
2.157440839869380955e+00
2.194379467146824858e+00
2.194379467146824858e+00
2.194379467146824858e+00
2.194379467146824858e+00
2.217067659535508550e+00
2.217067659535508550e+00
2.217067659535508550e+00
2.264881618701742649e+00
2.264881618701742649e+00
2.264881618701742649e+00
2.329383587145603673e+00
2.329383587145603673e+00
2.329383587145603673e+00
2.329383587145603673e+00
2.352634296700948813e+00
2.352634296700948813e+00
2.352634296700948813e+00
2.407010956144902014e+00
2.407010956144902014e+00
2.407010956144902014e+00
2.413948667867061193e+00
2.413948667867061193e+00
2.413948667867061193e+00
2.413948667867061193e+00
2.371009857478560967e+00
2.371009857478560967e+00
2.371009857478560967e+00
2.413386150700399746e+00
2.413386150700399746e+00
2.413386150700399746e+00
2.413386150700399746e+00
2.364447157200842309e+00
2.364447157200842309e+00
2.364447157200842309e+00
2.271256813257240381e+00
2.271256813257240381e+00
2.271256813257240381e+00
2.251006195257423848e+00
2.251006195257423848e+00
2.251006195257423848e+00
2.251006195257423848e+00
2.191191869869075770e+00
2.191191869869075770e+00
2.191191869869075770e+00
2.179191503646961792e+00
2.179191503646961792e+00
2.179191503646961792e+00
2.215005096591082356e+00
2.215005096591082356e+00
2.215005096591082356e+00
2.215005096591082356e+00
2.235255714590899334e+00
2.235255714590899334e+00
2.235255714590899334e+00
2.292257454145939732e+00
2.292257454145939732e+00
2.292257454145939732e+00
2.339696401867732423e+00
2.339696401867732423e+00
2.339696401867732423e+00
2.339696401867732423e+00
2.353196813867610704e+00
2.353196813867610704e+00
2.353196813867610704e+00
2.406823450422681532e+00
2.406823450422681532e+00
2.406823450422681532e+00
2.391447981200597983e+00
2.391447981200597983e+00
2.391447981200597983e+00
2.391447981200597983e+00
2.358821985534226506e+00
2.358821985534226506e+00
2.358821985534226506e+00
2.410011047700430176e+00
2.410011047700430176e+00
2.410011047700430176e+00
2.318320749534592551e+00
2.318320749534592551e+00
2.318320749534592551e+00
2.318320749534592551e+00
2.244818506424146598e+00
2.244818506424146598e+00
2.244818506424146598e+00
2.224380382702108694e+00
2.224380382702108694e+00
2.224380382702108694e+00
2.169441206091494490e+00
2.169441206091494490e+00
2.169441206091494490e+00
2.169441206091494490e+00
2.179566515091402756e+00
2.179566515091402756e+00
2.179566515091402756e+00
2.218942716757713818e+00
2.218942716757713818e+00
2.218942716757713818e+00
2.252693746757408633e+00
2.252693746757408633e+00
2.252693746757408633e+00
2.252693746757408633e+00
2.318883266701254442e+00
2.318883266701254442e+00
2.318883266701254442e+00
2.352071779534287366e+00
2.352071779534287366e+00
2.352071779534287366e+00
2.373447431867427682e+00
2.373447431867427682e+00
2.373447431867427682e+00
2.373447431867427682e+00
2.427261574144718992e+00
2.427261574144718992e+00
2.427261574144718992e+00
2.385635303811762142e+00
2.385635303811762142e+00
2.385635303811762142e+00
2.384322763756218322e+00
2.384322763756218322e+00
2.384322763756218322e+00
2.384322763756218322e+00
2.406635944700461049e+00
2.406635944700461049e+00
2.406635944700461049e+00
2.297132602923673161e+00
2.297132602923673161e+00
2.297132602923673161e+00
2.297132602923673161e+00
2.248756126590777171e+00
2.248756126590777171e+00
2.248756126590777171e+00
2.209192419202246516e+00
2.209192419202246516e+00
2.209192419202246516e+00
2.160628437147130043e+00
2.160628437147130043e+00
2.160628437147130043e+00
2.186879238258003344e+00
2.186879238258003344e+00
2.186879238258003344e+00
2.186879238258003344e+00
2.209754936368907963e+00
2.209754936368907963e+00
2.209754936368907963e+00
2.255881344035157721e+00
2.255881344035157721e+00
2.255881344035157721e+00
2.322445875423444495e+00
2.322445875423444495e+00
2.322445875423444495e+00
2.322445875423444495e+00
2.344384044923245813e+00
2.344384044923245813e+00
2.344384044923245813e+00
2.397260658589434712e+00
2.397260658589434712e+00
2.397260658589434712e+00
2.421823908200323228e+00
2.421823908200323228e+00
2.421823908200323228e+00
2.421823908200323228e+00
2.375885006256294396e+00
2.375885006256294396e+00
2.375885006256294396e+00
2.403073335978270997e+00
2.403073335978270997e+00
2.403073335978270997e+00
2.388072878200628413e+00
2.388072878200628413e+00
2.388072878200628413e+00
2.388072878200628413e+00
2.280819605090487201e+00
2.280819605090487201e+00
2.280819605090487201e+00
2.251381206701864812e+00
2.251381206701864812e+00
2.251381206701864812e+00
2.185941709646900932e+00
2.185941709646900932e+00
2.185941709646900932e+00
2.185941709646900932e+00
2.156315805536057617e+00
2.156315805536057617e+00
2.156315805536057617e+00
2.200567155980101663e+00
2.200567155980101663e+00
2.200567155980101663e+00
2.223255348368785356e+00
2.223255348368785356e+00
2.223255348368785356e+00
2.223255348368785356e+00
2.279132053590502860e+00
2.279132053590502860e+00
2.279132053590502860e+00
2.334821253089998994e+00
2.334821253089998994e+00
2.334821253089998994e+00
2.353196813867610704e+00
2.353196813867610704e+00
2.353196813867610704e+00
2.353196813867610704e+00
2.407198461867122496e+00
2.407198461867122496e+00
2.407198461867122496e+00
2.404385876033814373e+00
2.404385876033814373e+00
2.404385876033814373e+00
2.365572191534165203e+00
2.365572191534165203e+00
2.365572191534165203e+00
2.365572191534165203e+00
2.417136265144810281e+00
2.417136265144810281e+00
2.417136265144810281e+00
2.353759331034272151e+00
2.353759331034272151e+00
2.353759331034272151e+00
2.269569261757255596e+00
2.269569261757255596e+00
2.269569261757255596e+00
2.269569261757255596e+00
2.237505783257545566e+00
2.237505783257545566e+00
2.237505783257545566e+00
2.178816492202520827e+00
2.178816492202520827e+00
2.178816492202520827e+00
2.170941251869258792e+00
2.170941251869258792e+00
2.170941251869258792e+00
2.170941251869258792e+00
2.209379924924466998e+00
2.209379924924466998e+00
2.209379924924466998e+00
2.233943174535355514e+00
2.233943174535355514e+00
2.233943174535355514e+00
2.296195074312570750e+00
2.296195074312570750e+00
2.296195074312570750e+00
2.296195074312570750e+00
2.338008850367748082e+00
2.338008850367748082e+00
2.338008850367748082e+00
2.360134525589770327e+00
2.360134525589770327e+00
2.360134525589770327e+00
2.416386242255928352e+00
2.416386242255928352e+00
2.416386242255928352e+00
2.416386242255928352e+00
2.387697866756187448e+00
2.387697866756187448e+00
2.387697866756187448e+00
2.372509903256325270e+00
2.372509903256325270e+00
2.372509903256325270e+00
2.372509903256325270e+00
2.419011322367015993e+00
2.419011322367015993e+00
2.419011322367015993e+00
2.310445509201330516e+00
2.310445509201330516e+00
2.310445509201330516e+00
2.244443494979705633e+00
2.244443494979705633e+00
2.244443494979705633e+00
2.244443494979705633e+00
2.214255073702200427e+00
2.214255073702200427e+00
2.214255073702200427e+00
2.163628528702658205e+00
2.163628528702658205e+00
2.163628528702658205e+00
2.188004272591326682e+00
2.188004272591326682e+00
2.188004272591326682e+00
2.188004272591326682e+00
2.219130222479934300e+00
2.219130222479934300e+00
2.219130222479934300e+00
2.257568895535142062e+00
2.257568895535142062e+00
2.257568895535142062e+00
2.304445326090273749e+00
2.304445326090273749e+00
2.304445326090273749e+00
2.304445326090273749e+00
2.342696493423261028e+00
2.342696493423261028e+00
2.342696493423261028e+00
2.378510086367381593e+00
2.378510086367381593e+00
2.378510086367381593e+00
2.425574022644734207e+00
2.425574022644734207e+00
2.425574022644734207e+00
2.425574022644734207e+00
2.377760063478499664e+00
2.377760063478499664e+00
2.377760063478499664e+00
2.387885372478407930e+00
2.387885372478407930e+00
2.387885372478407930e+00
2.399135715811639535e+00
2.399135715811639535e+00
2.399135715811639535e+00
2.399135715811639535e+00
2.284382213812677254e+00
2.284382213812677254e+00
2.284382213812677254e+00
2.245006012146367080e+00
2.245006012146367080e+00
2.245006012146367080e+00
2.195129490035706787e+00
2.195129490035706787e+00
2.195129490035706787e+00
2.195129490035706787e+00
2.159690908536027187e+00
2.159690908536027187e+00
2.159690908536027187e+00
2.199442121646778769e+00
2.199442121646778769e+00
2.199442121646778769e+00
2.225880428479872997e+00
2.225880428479872997e+00
2.225880428479872997e+00
2.225880428479872997e+00
2.275006927701650916e+00
2.275006927701650916e+00
2.275006927701650916e+00
2.335571275978881367e+00
2.335571275978881367e+00
2.335571275978881367e+00
2.353571825312051669e+00
2.353571825312051669e+00
2.353571825312051669e+00
2.353571825312051669e+00
2.404385876033814373e+00
2.404385876033814373e+00
2.404385876033814373e+00
2.421448896755882263e+00
2.421448896755882263e+00
2.421448896755882263e+00
2.373259926145207199e+00
2.373259926145207199e+00
2.373259926145207199e+00
2.373259926145207199e+00
2.414698690755943566e+00
2.414698690755943566e+00
2.414698690755943566e+00
2.369322305978576182e+00
2.369322305978576182e+00
2.369322305978576182e+00
2.263569078646198829e+00
2.263569078646198829e+00
2.263569078646198829e+00
2.263569078646198829e+00
2.236943266090884119e+00
2.236943266090884119e+00
2.236943266090884119e+00
2.177878963591417971e+00
2.177878963591417971e+00
2.177878963591417971e+00
2.164566057313760616e+00
2.164566057313760616e+00
2.164566057313760616e+00
2.164566057313760616e+00
2.202629718924527857e+00
2.202629718924527857e+00
2.202629718924527857e+00
2.224192876979888212e+00
2.224192876979888212e+00
2.224192876979888212e+00
2.286069765312662039e+00
2.286069765312662039e+00
2.286069765312662039e+00
2.286069765312662039e+00
2.338758873256630455e+00
2.338758873256630455e+00
2.338758873256630455e+00
2.353009308145390222e+00
2.353009308145390222e+00
2.353009308145390222e+00
2.410573564867091623e+00
2.410573564867091623e+00
2.410573564867091623e+00
2.410573564867091623e+00
2.392385509811700839e+00
2.392385509811700839e+00
2.392385509811700839e+00
2.357884456923124095e+00
2.357884456923124095e+00
2.357884456923124095e+00
2.413386150700399746e+00
2.413386150700399746e+00
2.413386150700399746e+00
2.413386150700399746e+00
2.338758873256630455e+00
2.338758873256630455e+00
2.338758873256630455e+00
2.258881435590685438e+00
2.258881435590685438e+00
2.258881435590685438e+00
2.230755577257606870e+00
2.230755577257606870e+00
2.230755577257606870e+00
2.230755577257606870e+00
2.175066377758110736e+00
2.175066377758110736e+00
2.175066377758110736e+00
2.179191503646961792e+00
2.179191503646961792e+00
2.179191503646961792e+00
2.215755119479964730e+00
2.215755119479964730e+00
2.215755119479964730e+00
2.215755119479964730e+00
2.251006195257423848e+00
2.251006195257423848e+00
2.251006195257423848e+00
2.317383220923490139e+00
2.317383220923490139e+00
2.317383220923490139e+00
2.354509353923154524e+00
2.354509353923154524e+00
2.354509353923154524e+00
2.368197271645252844e+00
2.368197271645252844e+00
2.368197271645252844e+00
2.368197271645252844e+00
2.420136356700338887e+00
2.420136356700338887e+00
2.420136356700338887e+00
2.377572557756279181e+00
2.377572557756279181e+00
2.377572557756279181e+00
2.369322305978576182e+00
2.369322305978576182e+00
2.369322305978576182e+00
2.369322305978576182e+00
2.411323587755973996e+00
2.411323587755973996e+00
2.411323587755973996e+00
2.299382671590319838e+00
2.299382671590319838e+00
2.299382671590319838e+00
2.239568346201971760e+00
2.239568346201971760e+00
2.239568346201971760e+00
2.239568346201971760e+00
2.199442121646778769e+00
2.199442121646778769e+00
2.199442121646778769e+00
2.158753379924924776e+00
2.158753379924924776e+00
2.158753379924924776e+00
2.185379192480239485e+00
2.185379192480239485e+00
2.185379192480239485e+00
2.185379192480239485e+00
2.211254982146671821e+00
2.211254982146671821e+00
2.211254982146671821e+00
2.258881435590685438e+00
2.258881435590685438e+00
2.258881435590685438e+00
2.314758140812402942e+00
2.314758140812402942e+00
2.314758140812402942e+00
2.314758140812402942e+00
2.347384136478774419e+00
2.347384136478774419e+00
2.347384136478774419e+00
2.400635761589403838e+00
2.400635761589403838e+00
2.400635761589403838e+00
2.433449262977995797e+00
2.433449262977995797e+00
2.433449262977995797e+00
2.433449262977995797e+00
2.386760338145085036e+00
2.386760338145085036e+00
2.386760338145085036e+00
2.405510910367137711e+00
2.405510910367137711e+00
2.405510910367137711e+00
2.385447798089541660e+00
2.385447798089541660e+00
2.385447798089541660e+00
2.385447798089541660e+00
2.274819421979430434e+00
2.274819421979430434e+00
2.274819421979430434e+00
2.247256080813012868e+00
2.247256080813012868e+00
2.247256080813012868e+00
2.192691915646840073e+00
2.192691915646840073e+00
2.192691915646840073e+00
2.192691915646840073e+00
2.169441206091494490e+00
2.169441206091494490e+00
2.169441206091494490e+00
2.202067201757865966e+00
2.202067201757865966e+00
2.202067201757865966e+00
2.214630085146641392e+00
2.214630085146641392e+00
2.214630085146641392e+00
2.214630085146641392e+00
2.276881984923856628e+00
2.276881984923856628e+00
2.276881984923856628e+00
2.327321024201178368e+00
2.327321024201178368e+00
2.327321024201178368e+00
2.341196447645496725e+00
2.341196447645496725e+00
2.341196447645496725e+00
2.341196447645496725e+00
2.400448255867183356e+00
2.400448255867183356e+00
2.400448255867183356e+00
2.404010864589373409e+00
2.404010864589373409e+00
2.404010864589373409e+00
2.365384685811944721e+00
2.365384685811944721e+00
2.365384685811944721e+00
2.365384685811944721e+00
2.420886379589221260e+00
2.420886379589221260e+00
2.420886379589221260e+00
2.354134342478713116e+00
2.354134342478713116e+00
2.354134342478713116e+00
2.262069032868434526e+00
2.262069032868434526e+00
2.262069032868434526e+00
2.262069032868434526e+00
2.234693197424237443e+00
2.234693197424237443e+00
2.234693197424237443e+00
2.169253700369274007e+00
2.169253700369274007e+00
2.169253700369274007e+00
2.160440931424909561e+00
2.160440931424909561e+00
2.160440931424909561e+00
2.160440931424909561e+00
2.202629718924527857e+00
2.202629718924527857e+00
2.202629718924527857e+00
2.234693197424237443e+00
2.234693197424237443e+00
2.234693197424237443e+00
2.297507614368114126e+00
2.297507614368114126e+00
2.297507614368114126e+00
2.341571459089938134e+00
2.341571459089938134e+00
2.341571459089938134e+00
2.341571459089938134e+00
2.363134617145298488e+00
2.363134617145298488e+00
2.363134617145298488e+00
2.418073793755913137e+00
2.418073793755913137e+00
2.418073793755913137e+00
2.400635761589403838e+00
2.400635761589403838e+00
2.400635761589403838e+00
2.400635761589403838e+00
2.380197637867366822e+00
2.380197637867366822e+00
2.380197637867366822e+00
2.421636402478102745e+00
2.421636402478102745e+00
2.421636402478102745e+00
2.323195898312326424e+00
2.323195898312326424e+00
2.323195898312326424e+00
2.323195898312326424e+00
2.248568620868556689e+00
2.248568620868556689e+00
2.248568620868556689e+00
2.215942625202185212e+00
2.215942625202185212e+00
2.215942625202185212e+00
2.161003448591571008e+00
2.161003448591571008e+00
2.161003448591571008e+00
2.161003448591571008e+00
2.172066286202582130e+00
2.172066286202582130e+00
2.172066286202582130e+00
2.193066927091281038e+00
2.193066927091281038e+00
2.193066927091281038e+00
2.237130771813104602e+00
2.237130771813104602e+00
2.237130771813104602e+00
2.237130771813104602e+00
2.303882808923612302e+00
2.303882808923612302e+00
2.303882808923612302e+00
2.348509170812097757e+00
2.348509170812097757e+00
2.348509170812097757e+00
2.348509170812097757e+00
2.384697775200659287e+00
2.384697775200659287e+00
2.384697775200659287e+00
2.431386700033570492e+00
2.431386700033570492e+00
2.431386700033570492e+00
2.393698049867244659e+00
2.393698049867244659e+00
2.393698049867244659e+00
2.393698049867244659e+00
2.396323129978331856e+00
2.396323129978331856e+00
2.396323129978331856e+00
2.403823358867152926e+00
2.403823358867152926e+00
2.403823358867152926e+00
2.295070039979247412e+00
2.295070039979247412e+00
2.295070039979247412e+00
2.295070039979247412e+00
2.255881344035157721e+00
2.255881344035157721e+00
2.255881344035157721e+00
2.212755027924436124e+00
2.212755027924436124e+00
2.212755027924436124e+00
2.168316171758171151e+00
2.168316171758171151e+00
2.168316171758171151e+00
2.168316171758171151e+00
2.196817041535691573e+00
2.196817041535691573e+00
2.196817041535691573e+00
2.224567888424329176e+00
2.224567888424329176e+00
2.224567888424329176e+00
2.269569261757255596e+00
2.269569261757255596e+00
2.269569261757255596e+00
2.269569261757255596e+00
2.324508438367870244e+00
2.324508438367870244e+00
2.324508438367870244e+00
2.341383953367717208e+00
2.341383953367717208e+00
2.341383953367717208e+00
2.390135441145054607e+00
2.390135441145054607e+00
2.390135441145054607e+00
2.390135441145054607e+00
2.407010956144902014e+00
2.407010956144902014e+00
2.407010956144902014e+00
2.360697042756431774e+00
2.360697042756431774e+00
2.360697042756431774e+00
2.400260750144962874e+00
2.400260750144962874e+00
2.400260750144962874e+00
2.400260750144962874e+00
2.368384777367473326e+00
2.368384777367473326e+00
2.368384777367473326e+00
2.261506515701773079e+00
2.261506515701773079e+00
2.261506515701773079e+00
2.234505691702016961e+00
2.234505691702016961e+00
2.234505691702016961e+00
2.234505691702016961e+00
2.186316721091342341e+00
2.186316721091342341e+00
2.186316721091342341e+00
2.166441114535965884e+00
2.166441114535965884e+00
2.166441114535965884e+00
2.199629627368999252e+00
2.199629627368999252e+00
2.199629627368999252e+00
2.199629627368999252e+00
2.224005371257667729e+00
2.224005371257667729e+00
2.224005371257667729e+00
2.277069490646077110e+00
2.277069490646077110e+00
2.277069490646077110e+00
2.329008575701162709e+00
2.329008575701162709e+00
2.329008575701162709e+00
2.348509170812097757e+00
2.348509170812097757e+00
2.348509170812097757e+00
2.348509170812097757e+00
2.423136448255867048e+00
2.423136448255867048e+00
2.423136448255867048e+00
2.421823908200323228e+00
2.421823908200323228e+00
2.421823908200323228e+00
2.376072511978514878e+00
2.376072511978514878e+00
2.376072511978514878e+00
2.376072511978514878e+00
2.417136265144810281e+00
2.417136265144810281e+00
2.417136265144810281e+00
2.328071047090059853e+00
2.328071047090059853e+00
2.328071047090059853e+00
2.248943632312997654e+00
2.248943632312997654e+00
2.248943632312997654e+00
2.248943632312997654e+00
2.224005371257667729e+00
2.224005371257667729e+00
2.224005371257667729e+00
2.165878597369304437e+00
2.165878597369304437e+00
2.165878597369304437e+00
2.170003723258155937e+00
2.170003723258155937e+00
2.170003723258155937e+00
2.170003723258155937e+00
2.204504776146733125e+00
2.204504776146733125e+00
2.204504776146733125e+00
2.242380932035279439e+00
2.242380932035279439e+00
2.242380932035279439e+00
2.310070497756889552e+00
2.310070497756889552e+00
2.310070497756889552e+00
2.310070497756889552e+00
2.345321573534348669e+00
2.345321573534348669e+00
2.345321573534348669e+00
2.362197088534196077e+00
2.362197088534196077e+00
2.362197088534196077e+00
2.415636219367045978e+00
2.415636219367045978e+00
2.415636219367045978e+00
2.415636219367045978e+00
2.380385143589587305e+00
2.380385143589587305e+00
2.380385143589587305e+00
2.369134800256355700e+00
2.369134800256355700e+00
2.369134800256355700e+00
2.415261207922605013e+00
2.415261207922605013e+00
2.415261207922605013e+00
2.415261207922605013e+00
2.307445417645802355e+00
2.307445417645802355e+00
2.307445417645802355e+00
2.261319009979552597e+00
2.261319009979552597e+00
2.261319009979552597e+00
2.226630451368755370e+00
2.226630451368755370e+00
2.226630451368755370e+00
2.226630451368755370e+00
2.175066377758110736e+00
2.175066377758110736e+00
2.175066377758110736e+00
2.189504318369090985e+00
2.189504318369090985e+00
2.189504318369090985e+00
2.212755027924436124e+00
2.212755027924436124e+00
2.212755027924436124e+00
2.212755027924436124e+00
2.256068849757378203e+00
2.256068849757378203e+00
2.256068849757378203e+00
2.321320841090121156e+00
2.321320841090121156e+00
2.321320841090121156e+00
2.343821527756584366e+00
2.343821527756584366e+00
2.343821527756584366e+00
2.343821527756584366e+00
2.379635120700704931e+00
2.379635120700704931e+00
2.379635120700704931e+00
2.410198553422650658e+00
2.410198553422650658e+00
2.410198553422650658e+00
2.363322122867518971e+00
2.363322122867518971e+00
2.363322122867518971e+00
2.363322122867518971e+00
2.386572832422864110e+00
2.386572832422864110e+00
2.386572832422864110e+00
2.385635303811762142e+00
2.385635303811762142e+00
2.385635303811762142e+00
2.273506881923887057e+00
2.273506881923887057e+00
2.273506881923887057e+00
2.273506881923887057e+00
2.242380932035279439e+00
2.242380932035279439e+00
2.242380932035279439e+00
2.197379558702353020e+00
2.197379558702353020e+00
2.197379558702353020e+00
2.171128757591479275e+00
2.171128757591479275e+00
2.171128757591479275e+00
2.171128757591479275e+00
2.204317270424512643e+00
2.204317270424512643e+00
2.204317270424512643e+00
2.222317819757682944e+00
2.222317819757682944e+00
2.222317819757682944e+00
2.279882076479384789e+00
2.279882076479384789e+00
2.279882076479384789e+00
2.279882076479384789e+00
2.333508713034455617e+00
2.333508713034455617e+00
2.333508713034455617e+00
2.345321573534348669e+00
2.345321573534348669e+00
2.345321573534348669e+00
2.405135898922696747e+00
2.405135898922696747e+00
2.405135898922696747e+00
2.405135898922696747e+00
2.412073610644855925e+00
2.412073610644855925e+00
2.412073610644855925e+00
2.364072145756401344e+00
2.364072145756401344e+00
2.364072145756401344e+00
2.364072145756401344e+00
2.408135990478225352e+00
2.408135990478225352e+00
2.408135990478225352e+00
2.354321848200934042e+00
2.354321848200934042e+00
2.354321848200934042e+00
2.256256355479598685e+00
2.256256355479598685e+00
2.256256355479598685e+00
2.256256355479598685e+00
2.234693197424237443e+00
2.234693197424237443e+00
2.234693197424237443e+00
2.178628986480300345e+00
2.178628986480300345e+00
2.178628986480300345e+00
2.171503769035920239e+00
2.171503769035920239e+00
2.171503769035920239e+00
2.171503769035920239e+00
2.221567796868801015e+00
2.221567796868801015e+00
2.221567796868801015e+00
2.238818323313089387e+00
2.238818323313089387e+00
2.238818323313089387e+00
2.298257637256996500e+00
2.298257637256996500e+00
2.298257637256996500e+00
2.298257637256996500e+00
2.336883816034425188e+00
2.336883816034425188e+00
2.336883816034425188e+00
2.353571825312051669e+00
2.353571825312051669e+00
2.353571825312051669e+00
2.412448622089296890e+00
2.412448622089296890e+00
2.412448622089296890e+00
2.412448622089296890e+00
2.397635670033875677e+00
2.397635670033875677e+00
2.397635670033875677e+00
2.365009674367503756e+00
2.365009674367503756e+00
2.365009674367503756e+00
2.417511276589251690e+00
2.417511276589251690e+00
2.417511276589251690e+00
2.417511276589251690e+00
2.321695852534562121e+00
2.321695852534562121e+00
2.321695852534562121e+00
2.257193884090700653e+00
2.257193884090700653e+00
2.257193884090700653e+00
2.224755394146549659e+00
2.224755394146549659e+00
2.224755394146549659e+00
2.224755394146549659e+00
2.166253608813745402e+00
2.166253608813745402e+00
2.166253608813745402e+00
2.174128849147007880e+00
2.174128849147007880e+00
2.174128849147007880e+00
2.209379924924466998e+00
2.209379924924466998e+00
2.209379924924466998e+00
2.209379924924466998e+00
2.246131046479689974e+00
2.246131046479689974e+00
2.246131046479689974e+00
2.304445326090273749e+00
2.304445326090273749e+00
2.304445326090273749e+00
2.336696310312204705e+00
2.336696310312204705e+00
2.336696310312204705e+00
2.336696310312204705e+00
2.363884640034180418e+00
2.363884640034180418e+00
2.363884640034180418e+00
2.417511276589251690e+00
2.417511276589251690e+00
2.417511276589251690e+00
2.380572649311807787e+00
2.380572649311807787e+00
2.380572649311807787e+00
2.380572649311807787e+00
2.380197637867366822e+00
2.380197637867366822e+00
2.380197637867366822e+00
2.401010773033844803e+00
2.401010773033844803e+00
2.401010773033844803e+00
2.292069948423719250e+00
2.292069948423719250e+00
2.292069948423719250e+00
2.292069948423719250e+00
2.257381389812921579e+00
2.257381389812921579e+00
2.257381389812921579e+00
2.226255439924313961e+00
2.226255439924313961e+00
2.226255439924313961e+00
2.170566240424817828e+00
2.170566240424817828e+00
2.170566240424817828e+00
2.170566240424817828e+00
2.193816949980162967e+00
2.193816949980162967e+00
2.193816949980162967e+00
2.215942625202185212e+00
2.215942625202185212e+00
2.215942625202185212e+00
2.263006561479537382e+00
2.263006561479537382e+00
2.263006561479537382e+00
2.263006561479537382e+00
2.322445875423444495e+00
2.322445875423444495e+00
2.322445875423444495e+00
2.338383861812189490e+00
2.338383861812189490e+00
2.338383861812189490e+00
2.392198004089480357e+00
2.392198004089480357e+00
2.392198004089480357e+00
2.422011413922543710e+00
2.422011413922543710e+00
2.422011413922543710e+00
2.422011413922543710e+00
2.370072328867458111e+00
2.370072328867458111e+00
2.370072328867458111e+00
2.405510910367137711e+00
2.405510910367137711e+00
2.405510910367137711e+00
2.379447614978484449e+00
2.379447614978484449e+00
2.379447614978484449e+00
2.379447614978484449e+00
2.275381939146092325e+00
2.275381939146092325e+00
2.275381939146092325e+00
2.241818414868617992e+00
2.241818414868617992e+00
2.241818414868617992e+00
2.189129306924649576e+00
2.189129306924649576e+00
2.189129306924649576e+00
2.189129306924649576e+00
2.164378551591540134e+00
2.164378551591540134e+00
2.164378551591540134e+00
2.198129581591235393e+00
2.198129581591235393e+00
2.198129581591235393e+00
2.214817590868861874e+00
2.214817590868861874e+00
2.214817590868861874e+00
2.214817590868861874e+00
2.267131687368389326e+00
2.267131687368389326e+00
2.267131687368389326e+00
2.319258278145695407e+00
2.319258278145695407e+00
2.319258278145695407e+00
2.338758873256630455e+00
2.338758873256630455e+00
2.338758873256630455e+00
2.338758873256630455e+00
2.401760795922727176e+00
2.401760795922727176e+00
2.401760795922727176e+00
2.408698507644886799e+00
2.408698507644886799e+00
2.408698507644886799e+00
2.373072420422986717e+00
2.373072420422986717e+00
2.373072420422986717e+00
2.373072420422986717e+00
2.425011505478072316e+00
2.425011505478072316e+00
2.425011505478072316e+00
2.342321481978820064e+00
2.342321481978820064e+00
2.342321481978820064e+00
2.342321481978820064e+00
2.254943815424054865e+00
2.254943815424054865e+00
2.254943815424054865e+00
2.241818414868617992e+00
2.241818414868617992e+00
2.241818414868617992e+00
2.185941709646900932e+00
2.185941709646900932e+00
2.185941709646900932e+00
2.185941709646900932e+00
2.186691732535783306e+00
2.186691732535783306e+00
2.186691732535783306e+00
2.225692922757652514e+00
2.225692922757652514e+00
2.225692922757652514e+00
2.247818597979674760e+00
2.247818597979674760e+00
2.247818597979674760e+00
2.247818597979674760e+00
2.308382946256904766e+00
2.308382946256904766e+00
2.308382946256904766e+00
2.343071504867702437e+00
2.343071504867702437e+00
2.343071504867702437e+00
2.360322031311990809e+00
2.360322031311990809e+00
2.360322031311990809e+00
2.360322031311990809e+00
2.417698782311472172e+00
2.417698782311472172e+00
2.417698782311472172e+00
2.389760429700613198e+00
2.389760429700613198e+00
2.389760429700613198e+00
2.366697225867488541e+00
2.366697225867488541e+00
2.366697225867488541e+00
2.366697225867488541e+00
2.415073702200384531e+00
2.415073702200384531e+00
2.415073702200384531e+00
2.303132786034730373e+00
2.303132786034730373e+00
2.303132786034730373e+00
2.243318460646382295e+00
2.243318460646382295e+00
2.243318460646382295e+00
2.243318460646382295e+00
2.215755119479964730e+00
2.215755119479964730e+00
2.215755119479964730e+00
2.165503585924863472e+00
2.165503585924863472e+00
2.177691457869197489e+00
2.177691457869197489e+00
2.205629810480056463e+00
2.205629810480056463e+00
2.239380840479750834e+00
2.239380840479750834e+00
2.310445509201330516e+00
2.310445509201330516e+00
2.337258827478866152e+00
2.337258827478866152e+00
2.337258827478866152e+00
2.377385052034058699e+00
2.377385052034058699e+00
2.420698873867000778e+00
2.420698873867000778e+00
2.374759971922971058e+00
2.374759971922971058e+00
2.392010498367259874e+00
2.392010498367259874e+00
2.403448347422711961e+00
2.403448347422711961e+00
2.290757408368175430e+00
2.290757408368175430e+00
2.254381298257393418e+00
2.254381298257393418e+00
2.206379833368938392e+00
2.206379833368938392e+00
2.206379833368938392e+00
2.173753837702566916e+00
2.173753837702566916e+00
2.203004730368968822e+00
2.203004730368968822e+00
2.214067567979979945e+00
2.214067567979979945e+00
2.266569170201727434e+00
2.266569170201727434e+00
2.324883449812311209e+00
2.324883449812311209e+00
2.337446333201086635e+00
2.337446333201086635e+00
2.390510452589495571e+00
2.390510452589495571e+00
2.401760795922727176e+00
2.401760795922727176e+00
2.401760795922727176e+00
2.356759422589800756e+00
2.356759422589800756e+00
2.407948484756004870e+00
2.407948484756004870e+00
2.367822260200811879e+00
2.367822260200811879e+00
2.271444318979460864e+00
2.271444318979460864e+00
2.243880977813043742e+00
2.243880977813043742e+00
2.182566606646931362e+00
2.182566606646931362e+00
2.168316171758171151e+00
2.168316171758171151e+00
2.211817499313333268e+00
2.211817499313333268e+00
2.232818140202032620e+00
2.232818140202032620e+00
2.232818140202032620e+00
2.294132511368144556e+00
2.294132511368144556e+00
2.336508804589983779e+00
2.336508804589983779e+00
2.347009125034333454e+00
2.347009125034333454e+00
2.404385876033814373e+00
2.404385876033814373e+00
2.388260383922848895e+00
2.388260383922848895e+00
2.356196905423139309e+00
2.356196905423139309e+00
2.413761162144840711e+00
2.413761162144840711e+00
2.328446058534500818e+00
2.328446058534500818e+00
2.328446058534500818e+00
2.249506149479659545e+00
2.249506149479659545e+00
2.228693014313181120e+00
2.228693014313181120e+00
2.174691366313669327e+00
2.174691366313669327e+00
2.177691457869197489e+00
2.177691457869197489e+00
2.219317728202154782e+00
2.219317728202154782e+00
2.252131229590746742e+00
2.252131229590746742e+00
2.314758140812402942e+00
2.314758140812402942e+00
2.342321481978820064e+00
2.342321481978820064e+00
2.363697134311959935e+00
2.363697134311959935e+00
2.411698599200414961e+00
2.411698599200414961e+00
2.377760063478499664e+00
2.377760063478499664e+00
2.377760063478499664e+00
2.373634937589648164e+00
2.373634937589648164e+00
2.396698141422773265e+00
2.396698141422773265e+00
2.287194799645985377e+00
2.287194799645985377e+00
2.250443678090761956e+00
2.250443678090761956e+00
2.218380199591051927e+00
2.218380199591051927e+00
2.169628711813714972e+00
2.169628711813714972e+00
2.192504409924619146e+00
2.192504409924619146e+00
2.211817499313333268e+00
2.211817499313333268e+00
2.211817499313333268e+00
2.259631458479567812e+00
2.259631458479567812e+00
2.326571001312295994e+00
2.326571001312295994e+00
2.346634113589892490e+00
2.346634113589892490e+00
2.386572832422864110e+00
2.386572832422864110e+00
2.411511093478194478e+00
2.411511093478194478e+00
2.364072145756401344e+00
2.364072145756401344e+00
2.399135715811639535e+00
2.399135715811639535e+00
2.375509994811853431e+00
2.375509994811853431e+00
2.375509994811853431e+00
2.263569078646198829e+00
2.263569078646198829e+00
2.236755760368663637e+00
2.236755760368663637e+00
2.184441663869136629e+00
2.184441663869136629e+00
2.158565874202703849e+00
2.158565874202703849e+00
2.197379558702353020e+00
2.197379558702353020e+00
2.213692556535538980e+00
2.213692556535538980e+00
2.273506881923887057e+00
2.273506881923887057e+00
2.320008301034577336e+00
2.320008301034577336e+00
2.320008301034577336e+00
2.342133976256599581e+00
2.342133976256599581e+00
2.411136082033753514e+00
2.411136082033753514e+00
2.409261024811548246e+00
2.409261024811548246e+00
2.357696951200903612e+00
2.357696951200903612e+00
2.417698782311472172e+00
2.417698782311472172e+00
2.362197088534196077e+00
2.362197088534196077e+00
2.273319376201666131e+00
2.273319376201666131e+00
2.240318369090853690e+00
2.240318369090853690e+00
2.178253975035859380e+00
2.178253975035859380e+00
2.163441022980437278e+00
2.163441022980437278e+00
2.163441022980437278e+00
2.199817133091219734e+00
2.199817133091219734e+00
2.227567979979857782e+00
2.227567979979857782e+00
2.300132694479201767e+00
2.300132694479201767e+00
2.357134434034241721e+00
2.357134434034241721e+00
2.374947477645191540e+00
2.374947477645191540e+00
2.431949217200232383e+00
2.431949217200232383e+00
2.396323129978331856e+00
2.396323129978331856e+00
2.370259834589678594e+00
2.370259834589678594e+00
2.415261207922605013e+00
2.415261207922605013e+00
2.303695303201391820e+00
2.303695303201391820e+00
2.303695303201391820e+00
2.243505966368602778e+00
2.243505966368602778e+00
2.213880062257759462e+00
2.213880062257759462e+00
2.162878505813776275e+00
2.162878505813776275e+00
2.182941618091372327e+00
2.182941618091372327e+00
2.220630268257698603e+00
2.220630268257698603e+00
2.255693838312936794e+00
2.255693838312936794e+00
2.319820795312356854e+00
2.319820795312356854e+00
2.349259193700979687e+00
2.349259193700979687e+00
2.349259193700979687e+00
2.377760063478499664e+00
2.377760063478499664e+00
2.416948759422589799e+00
2.416948759422589799e+00
2.377197546311838217e+00
2.377197546311838217e+00
2.380197637867366822e+00
2.380197637867366822e+00
2.397260658589434712e+00
2.397260658589434712e+00
2.290944914090395912e+00
2.290944914090395912e+00
2.249506149479659545e+00
2.249506149479659545e+00
2.205254799035615054e+00
2.205254799035615054e+00
2.205254799035615054e+00
2.165878597369304437e+00
2.165878597369304437e+00
2.192691915646840073e+00
2.192691915646840073e+00
2.218192693868831444e+00
2.218192693868831444e+00
2.277819513534959039e+00
2.277819513534959039e+00
2.340633930478835278e+00
2.340633930478835278e+00
2.356009399700918827e+00
2.356009399700918827e+00
2.403823358867152926e+00
2.403823358867152926e+00
2.416386242255928352e+00
2.416386242255928352e+00
2.416386242255928352e+00
2.370634846034120002e+00
2.370634846034120002e+00
2.411886104922635443e+00
2.411886104922635443e+00
2.369697317423017147e+00
2.369697317423017147e+00
2.259256447035126847e+00
2.259256447035126847e+00
2.236193243202001746e+00
2.236193243202001746e+00
2.175628894924771739e+00
2.175628894924771739e+00
2.148628070925016065e+00
2.148628070925016065e+00
2.186504226813562823e+00
2.186504226813562823e+00
2.203004730368968822e+00
2.203004730368968822e+00
2.203004730368968822e+00
2.263756584368419311e+00
2.263756584368419311e+00
2.317945738090151586e+00
2.317945738090151586e+00
2.336508804589983779e+00
2.336508804589983779e+00
2.396135624256111374e+00
2.396135624256111374e+00
2.390885464033936536e+00
2.390885464033936536e+00
2.363697134311959935e+00
2.363697134311959935e+00
2.420886379589221260e+00
2.420886379589221260e+00
2.346446607867672007e+00
2.346446607867672007e+00
2.268631733146153184e+00
2.268631733146153184e+00
2.240318369090853690e+00
2.240318369090853690e+00
2.240318369090853690e+00
2.180504043702505612e+00
2.180504043702505612e+00
2.180691549424726094e+00
2.180691549424726094e+00
2.213692556535538980e+00
2.213692556535538980e+00
2.239193334757530351e+00
2.239193334757530351e+00
2.299195165868098911e+00
2.299195165868098911e+00
2.337258827478866152e+00
2.337258827478866152e+00
2.353759331034272151e+00
2.353759331034272151e+00
2.405323404644917229e+00
2.405323404644917229e+00
2.405323404644917229e+00
2.367072237311929506e+00
2.367072237311929506e+00
2.360884548478652700e+00
2.360884548478652700e+00
2.394823084200567997e+00
2.394823084200567997e+00
2.285319742423780109e+00
2.285319742423780109e+00
2.240130863368633207e+00
2.240130863368633207e+00
2.212005005035553751e+00
2.212005005035553751e+00
2.166628620258186366e+00
2.166628620258186366e+00
2.195129490035706787e+00
2.195129490035706787e+00
2.223255348368785356e+00
2.223255348368785356e+00
2.223255348368785356e+00
2.267694204535050773e+00
2.267694204535050773e+00
2.334633747367778511e+00
2.334633747367778511e+00
2.351134250923184954e+00
2.351134250923184954e+00
2.386572832422864110e+00
2.386572832422864110e+00
2.419386333811456957e+00
2.419386333811456957e+00
2.370447340311899076e+00
2.370447340311899076e+00
2.398760704367198571e+00
2.398760704367198571e+00
2.390322946867275089e+00
2.390322946867275089e+00
2.390322946867275089e+00
2.278382030701620931e+00
2.278382030701620931e+00
2.242005920590838475e+00
2.242005920590838475e+00
2.189129306924649576e+00
2.189129306924649576e+00
2.159878414258247670e+00
2.159878414258247670e+00
2.201129673146763555e+00
2.201129673146763555e+00
2.224192876979888212e+00
2.224192876979888212e+00
2.279132053590502860e+00
2.279132053590502860e+00
2.330321115756706529e+00
2.330321115756706529e+00
2.341571459089938134e+00
2.341571459089938134e+00
2.341571459089938134e+00
2.400448255867183356e+00
2.400448255867183356e+00
2.406635944700461049e+00
2.406635944700461049e+00
2.360322031311990809e+00
2.360322031311990809e+00
2.411136082033753514e+00
2.411136082033753514e+00
2.357134434034241721e+00
2.357134434034241721e+00
2.257568895535142062e+00
2.257568895535142062e+00
2.237130771813104602e+00
2.237130771813104602e+00
2.182566606646931362e+00
2.182566606646931362e+00
2.175628894924771739e+00
2.175628894924771739e+00
2.175628894924771739e+00
2.217255165257729033e+00
2.217255165257729033e+00
2.238818323313089387e+00
2.238818323313089387e+00
2.296945097201452679e+00
2.296945097201452679e+00
2.338383861812189490e+00
2.338383861812189490e+00
2.356009399700918827e+00
2.356009399700918827e+00
2.407948484756004870e+00
2.407948484756004870e+00
2.385822809533982625e+00
2.385822809533982625e+00
2.361447065645314147e+00
2.361447065645314147e+00
2.361447065645314147e+00
2.415636219367045978e+00
2.415636219367045978e+00
2.318133243812372069e+00
2.318133243812372069e+00
2.251943723868526259e+00
2.251943723868526259e+00
2.221755302591021497e+00
2.221755302591021497e+00
2.164003540147099169e+00
2.164003540147099169e+00
2.170378734702597345e+00
2.170378734702597345e+00
2.205442304757835537e+00
2.205442304757835537e+00
2.240693380535294654e+00
2.240693380535294654e+00
2.304445326090273749e+00
2.304445326090273749e+00
2.304445326090273749e+00
2.337446333201086635e+00
2.337446333201086635e+00
2.370447340311899076e+00
2.370447340311899076e+00
2.419198828089236475e+00
2.419198828089236475e+00
2.377385052034058699e+00
2.377385052034058699e+00
2.382447706534013054e+00
2.382447706534013054e+00
2.405323404644917229e+00
2.405323404644917229e+00
2.290194891201513983e+00
2.290194891201513983e+00
2.248006103701895242e+00
2.248006103701895242e+00
2.248006103701895242e+00
2.205442304757835537e+00
2.205442304757835537e+00
2.165878597369304437e+00
2.165878597369304437e+00
2.194379467146824858e+00
2.194379467146824858e+00
2.219880245368816230e+00
2.219880245368816230e+00
2.270131778923917043e+00
2.270131778923917043e+00
2.329758598590044638e+00
2.329758598590044638e+00
2.340821436201055761e+00
2.340821436201055761e+00
2.386760338145085036e+00
2.386760338145085036e+00
2.411698599200414961e+00
2.411698599200414961e+00
2.411698599200414961e+00
2.370072328867458111e+00
2.370072328867458111e+00
2.402698324533829588e+00
2.402698324533829588e+00
2.376447523422955843e+00
2.376447523422955843e+00
2.269756767479476078e+00
2.269756767479476078e+00
2.239943357646412725e+00
2.239943357646412725e+00
2.180879055146946577e+00
2.180879055146946577e+00
2.157440839869380955e+00
2.157440839869380955e+00
2.194566972869045340e+00
2.194566972869045340e+00
2.213692556535538980e+00
2.213692556535538980e+00
2.213692556535538980e+00
2.273881893368328022e+00
2.273881893368328022e+00
2.330696127201147494e+00
2.330696127201147494e+00
2.350196722312082542e+00
2.350196722312082542e+00
2.416948759422589799e+00
2.416948759422589799e+00
2.403260841700491479e+00
2.403260841700491479e+00
2.360884548478652700e+00
2.360884548478652700e+00
2.416761253700369316e+00
2.416761253700369316e+00
2.336508804589983779e+00
2.336508804589983779e+00
2.258881435590685438e+00
2.258881435590685438e+00
2.258881435590685438e+00
2.232068117313150690e+00
2.232068117313150690e+00
2.169066194647053525e+00
2.169066194647053525e+00
2.167378643147068740e+00
2.167378643147068740e+00
2.212755027924436124e+00
2.212755027924436124e+00
2.240693380535294654e+00
2.240693380535294654e+00
2.306320383312479017e+00
2.306320383312479017e+00
2.338008850367748082e+00
2.338008850367748082e+00
2.355821893978697901e+00
2.355821893978697901e+00
2.355821893978697901e+00
2.413386150700399746e+00
2.413386150700399746e+00
2.386385326700643628e+00
2.386385326700643628e+00
2.372322397534104788e+00
2.372322397534104788e+00
2.406448438978240567e+00
2.406448438978240567e+00
2.294882534257026929e+00
2.294882534257026929e+00
2.233005645924253102e+00
2.233005645924253102e+00
2.206379833368938392e+00
2.206379833368938392e+00
2.166253608813745402e+00
2.166253608813745402e+00
2.166253608813745402e+00
2.182379100924710880e+00
2.182379100924710880e+00
2.209754936368907963e+00
2.209754936368907963e+00
2.248006103701895242e+00
2.248006103701895242e+00
2.312320566423536228e+00
2.312320566423536228e+00
2.345696584978789634e+00
2.345696584978789634e+00
2.385260292367321178e+00
2.385260292367321178e+00
2.424448988311410869e+00
2.424448988311410869e+00
2.364634662923062791e+00
2.364634662923062791e+00
2.378322580645161111e+00
2.378322580645161111e+00
2.371759880367442896e+00
2.371759880367442896e+00
2.371759880367442896e+00
2.254568803979613900e+00
2.254568803979613900e+00
2.216880153813287624e+00
2.216880153813287624e+00
2.171316263313699757e+00
2.171316263313699757e+00
2.147690542313913653e+00
2.147690542313913653e+00
2.205067293313394572e+00
2.205067293313394572e+00
2.251006195257423848e+00
2.251006195257423848e+00
2.321695852534562121e+00
2.321695852534562121e+00
2.374759971922971058e+00
2.374759971922971058e+00
2.374759971922971058e+00
2.370072328867458111e+00
2.370072328867458111e+00
2.392760521256141804e+00
2.392760521256141804e+00
2.380010132145145896e+00
2.380010132145145896e+00
2.299757683034760802e+00
2.299757683034760802e+00
2.328446058534500818e+00
2.328446058534500818e+00
2.281757133701590057e+00
2.281757133701590057e+00
2.209379924924466998e+00
2.209379924924466998e+00
2.206754844813379357e+00
2.206754844813379357e+00
2.155940794091616652e+00
2.155940794091616652e+00
2.155940794091616652e+00
2.163816034424878687e+00
2.163816034424878687e+00
2.249693655201880027e+00
2.249693655201880027e+00
2.295257545701467894e+00
2.295257545701467894e+00
2.370634846034120002e+00
2.370634846034120002e+00
2.395760612811670409e+00
2.395760612811670409e+00
2.378322580645161111e+00
2.378322580645161111e+00
2.415823725089266905e+00
2.415823725089266905e+00
2.370072328867458111e+00
2.370072328867458111e+00
2.370072328867458111e+00
2.317570726645710621e+00
2.317570726645710621e+00
2.362572099978637485e+00
2.362572099978637485e+00
2.271069307535019899e+00
2.271069307535019899e+00
2.217630176702169997e+00
2.217630176702169997e+00
2.208254890591143660e+00
2.208254890591143660e+00
2.149003082369457029e+00
2.149003082369457029e+00
2.154440748313852350e+00
2.154440748313852350e+00
2.182754112369151844e+00
2.182754112369151844e+00
2.206754844813379357e+00
2.206754844813379357e+00
2.206754844813379357e+00
2.271631824701681346e+00
2.271631824701681346e+00
2.309882992034669069e+00
2.309882992034669069e+00
2.345696584978789634e+00
2.345696584978789634e+00
2.400823267311624321e+00
2.400823267311624321e+00
2.353009308145390222e+00
2.353009308145390222e+00
2.354696859645375007e+00
2.354696859645375007e+00
2.381135166478469234e+00
2.381135166478469234e+00
2.275006927701650916e+00
2.275006927701650916e+00
2.230005554368724940e+00
2.230005554368724940e+00
2.230005554368724940e+00
2.203942258980071234e+00
2.203942258980071234e+00
2.187254249702444309e+00
2.187254249702444309e+00
2.261694021423993561e+00
2.261694021423993561e+00
2.295257545701467894e+00
2.295257545701467894e+00
2.280819605090487201e+00
2.280819605090487201e+00
2.209192419202246516e+00
2.209192419202246516e+00
2.148628070925016065e+00
2.148628070925016065e+00
2.181629078035828950e+00
2.181629078035828950e+00
2.181629078035828950e+00
2.210504959257789892e+00
2.210504959257789892e+00
2.184629169591357556e+00
2.184629169591357556e+00
2.262069032868434526e+00
2.262069032868434526e+00
2.308570451979125249e+00
2.308570451979125249e+00
2.295820062868129341e+00
2.295820062868129341e+00
2.369884823145237629e+00
2.369884823145237629e+00
2.393323038422803695e+00
2.393323038422803695e+00
2.403260841700491479e+00
2.403260841700491479e+00
2.413198644978179264e+00
2.413198644978179264e+00
2.413198644978179264e+00
2.344196539201025331e+00
2.344196539201025331e+00
2.288882351145970162e+00
2.288882351145970162e+00
2.294507522812585520e+00
2.294507522812585520e+00
2.274069399090548504e+00
2.274069399090548504e+00
2.299382671590319838e+00
2.299382671590319838e+00
2.283069673757133433e+00
2.283069673757133433e+00
2.271256813257240381e+00
2.271256813257240381e+00
2.352821802423169739e+00
2.352821802423169739e+00
2.352821802423169739e+00
2.239380840479750834e+00
2.239380840479750834e+00
2.125189855647450443e+00
2.125189855647450443e+00
2.146753013702810797e+00
2.146753013702810797e+00
2.145627979369487459e+00
2.145627979369487459e+00
2.159503402813806705e+00
2.159503402813806705e+00
2.193441938535722002e+00
2.193441938535722002e+00
2.231130588702047834e+00
2.231130588702047834e+00
2.295257545701467894e+00
2.295257545701467894e+00
2.295257545701467894e+00
2.366884731589709023e+00
2.366884731589709023e+00
2.422198919644764192e+00
2.422198919644764192e+00
2.470762901699881109e+00
2.470762901699881109e+00
2.441699514755699685e+00
2.441699514755699685e+00
2.399510727256080500e+00
2.399510727256080500e+00
2.412073610644855925e+00
2.412073610644855925e+00
2.286819788201544412e+00
2.286819788201544412e+00
2.263194067201757864e+00
2.263194067201757864e+00
2.270881801812799416e+00
2.270881801812799416e+00
2.270881801812799416e+00
2.196629535813471090e+00
2.196629535813471090e+00
2.229818048646504014e+00
2.229818048646504014e+00
2.252693746757408633e+00
2.252693746757408633e+00
2.272569353312784202e+00
2.272569353312784202e+00
2.328633564256721744e+00
2.328633564256721744e+00
2.344196539201025331e+00
2.344196539201025331e+00
2.379260109256263966e+00
2.379260109256263966e+00
2.410011047700430176e+00
2.410011047700430176e+00
2.410011047700430176e+00
2.354134342478713116e+00
2.354134342478713116e+00
2.376072511978514878e+00
2.376072511978514878e+00
2.412261116367076408e+00
2.412261116367076408e+00
2.328258552812280335e+00
2.328258552812280335e+00
2.273506881923887057e+00
2.273506881923887057e+00
2.160815942869350526e+00
2.160815942869350526e+00
2.092001342814417075e+00
2.092001342814417075e+00
2.127814935758537640e+00
2.127814935758537640e+00
2.175628894924771739e+00
2.175628894924771739e+00
2.175628894924771739e+00
2.274256904812768987e+00
2.274256904812768987e+00
2.354884365367595489e+00
2.354884365367595489e+00
2.396885647144993747e+00
2.396885647144993747e+00
2.385072786645100695e+00
2.385072786645100695e+00
2.273506881923887057e+00
2.273506881923887057e+00
2.175253883480330774e+00
2.175253883480330774e+00
2.210129947813348927e+00
2.210129947813348927e+00
2.188004272591326682e+00
2.188004272591326682e+00
2.188004272591326682e+00
2.176753929258095077e+00
2.176753929258095077e+00
2.213317545091097571e+00
2.213317545091097571e+00
2.167753654591509704e+00
2.167753654591509704e+00
2.224755394146549659e+00
2.224755394146549659e+00
2.359196996978667915e+00
2.359196996978667915e+00
2.419573839533677440e+00
2.419573839533677440e+00
2.466262764366588645e+00
2.466262764366588645e+00
2.513326700643940814e+00
2.513326700643940814e+00
2.493263588366343875e+00
2.493263588366343875e+00
2.457825006866664719e+00
2.457825006866664719e+00
2.457825006866664719e+00
2.330883632923367976e+00
2.330883632923367976e+00
2.171691274758141166e+00
2.171691274758141166e+00
2.173753837702566916e+00
2.173753837702566916e+00
2.099689077425458628e+00
2.099689077425458628e+00
2.044374889370403459e+00
2.044374889370403459e+00
2.036312143314920498e+00
2.036312143314920498e+00
2.080938505203405953e+00
2.080938505203405953e+00
2.198504593035676358e+00
2.198504593035676358e+00
2.324695944090090727e+00
2.324695944090090727e+00
2.324695944090090727e+00
2.442449537644581614e+00
2.442449537644581614e+00
2.573141026032288892e+00
2.573141026032288892e+00
2.617954893642994829e+00
2.617954893642994829e+00
2.576141117587817053e+00
2.576141117587817053e+00
2.582516312143315229e+00
2.582516312143315229e+00
2.507701528977324568e+00
2.507701528977324568e+00
2.462325144199957183e+00
2.462325144199957183e+00
2.436074343089083438e+00
2.436074343089083438e+00
2.436074343089083438e+00
2.239005829035309869e+00
2.239005829035309869e+00
2.107376812036500180e+00
2.107376812036500180e+00
2.040062257759331033e+00
2.040062257759331033e+00
1.974247749259926188e+00
1.974247749259926188e+00
2.027124362926114642e+00
2.027124362926114642e+00
2.150690633869442259e+00
2.150690633869442259e+00
2.328446058534500818e+00
2.328446058534500818e+00
2.513889217810602261e+00
2.513889217810602261e+00
2.602579424420911280e+00
2.602579424420911280e+00
2.602579424420911280e+00
2.560578142643513466e+00
2.560578142643513466e+00
2.378697592089602519e+00
2.378697592089602519e+00
2.246881069368571904e+00
2.246881069368571904e+00
2.294320017090365038e+00
2.294320017090365038e+00
2.290569902645954947e+00
2.290569902645954947e+00
2.172253791924802613e+00
2.172253791924802613e+00
2.156690816980498582e+00
2.156690816980498582e+00
2.149940610980559885e+00
2.149940610980559885e+00
2.149940610980559885e+00
2.214067567979979945e+00
2.214067567979979945e+00
2.355071871089815971e+00
2.355071871089815971e+00
2.402323313089388623e+00
2.402323313089388623e+00
2.427261574144718992e+00
2.427261574144718992e+00
2.374384960478530537e+00
2.374384960478530537e+00
2.302195257423627517e+00
2.302195257423627517e+00
2.341383953367717208e+00
2.341383953367717208e+00
2.342508987701040546e+00
2.342508987701040546e+00
2.302195257423627517e+00
2.302195257423627517e+00
2.302195257423627517e+00
2.336696310312204705e+00
2.336696310312204705e+00
2.277069490646077110e+00
2.277069490646077110e+00
2.169253700369274007e+00
2.169253700369274007e+00
2.108876857814264483e+00
2.108876857814264483e+00
2.043812372203741567e+00
2.043812372203741567e+00
1.992248298593096711e+00
1.992248298593096711e+00
2.015874019592883037e+00
2.015874019592883037e+00
2.080375988036744506e+00
2.080375988036744506e+00
2.183504135258034218e+00
2.183504135258034218e+00
2.183504135258034218e+00
2.257943906979583026e+00
2.257943906979583026e+00
2.363884640034180418e+00
2.363884640034180418e+00
2.598454298532059781e+00
2.598454298532059781e+00
2.751646473586229824e+00
2.751646473586229824e+00
2.712082766197699168e+00
2.712082766197699168e+00
2.598079287087618372e+00
2.598079287087618372e+00
2.354509353923154524e+00
2.354509353923154524e+00
2.171128757591479275e+00
2.171128757591479275e+00
2.171128757591479275e+00
2.105126743369853504e+00
2.105126743369853504e+00
2.102314157536546269e+00
2.102314157536546269e+00
2.128002441480758122e+00
2.128002441480758122e+00
2.163253517258217240e+00
2.163253517258217240e+00
2.182191595202490397e+00
2.182191595202490397e+00
2.227567979979857782e+00
2.227567979979857782e+00
2.264319101535081202e+00
2.264319101535081202e+00
2.339508896145511940e+00
2.339508896145511940e+00
2.339508896145511940e+00
2.407198461867122496e+00
2.407198461867122496e+00
2.373259926145207199e+00
2.373259926145207199e+00
2.320758323923459709e+00
2.320758323923459709e+00
2.368197271645252844e+00
2.368197271645252844e+00
2.240130863368633207e+00
2.240130863368633207e+00
2.134377636036255854e+00
2.134377636036255854e+00
2.086563676870021755e+00
2.086563676870021755e+00
2.090313791314432290e+00
2.090313791314432290e+00
2.173378826258125951e+00
2.173378826258125951e+00
2.173378826258125951e+00
2.287757316812646824e+00
2.287757316812646824e+00
2.429324137089144742e+00
2.429324137089144742e+00
2.470012878810998735e+00
2.470012878810998735e+00
2.389010406811731269e+00
2.389010406811731269e+00
2.350196722312082542e+00
2.350196722312082542e+00
2.376635029145176325e+00
2.376635029145176325e+00
2.417511276589251690e+00
2.417511276589251690e+00
2.580828760643330444e+00
2.580828760643330444e+00
2.686019470809045906e+00
2.686019470809045906e+00
2.537514938810388809e+00
2.537514938810388809e+00
2.537514938810388809e+00
2.252881252479629115e+00
2.252881252479629115e+00
1.983623035370952525e+00
1.983623035370952525e+00
1.846931363872188481e+00
1.846931363872188481e+00
1.909370769371623755e+00
1.909370769371623755e+00
2.002373607593005200e+00
2.002373607593005200e+00
2.084126102481154597e+00
2.084126102481154597e+00
2.156315805536057617e+00
2.156315805536057617e+00
2.239005829035309869e+00
2.239005829035309869e+00
2.239005829035309869e+00
2.384135258033997840e+00
2.384135258033997840e+00
2.371759880367442896e+00
2.371759880367442896e+00
2.382260200811792572e+00
2.382260200811792572e+00
2.496451185644092963e+00
2.496451185644092963e+00
2.320195806756797818e+00
2.320195806756797818e+00
2.067250587481307633e+00
2.067250587481307633e+00
1.894932828760643506e+00
1.894932828760643506e+00
1.897182897427289516e+00
1.897182897427289516e+00
2.059562852870265637e+00
2.059562852870265637e+00
2.059562852870265637e+00
2.210129947813348927e+00
2.210129947813348927e+00
2.276319467757194737e+00
2.276319467757194737e+00
2.464950224311044824e+00
2.464950224311044824e+00
2.506388988921781191e+00
2.506388988921781191e+00
2.518951872310556173e+00
2.518951872310556173e+00
2.575203588976714197e+00
2.575203588976714197e+00
2.442262031922361132e+00
2.442262031922361132e+00
2.301070223090304623e+00
2.301070223090304623e+00
2.301070223090304623e+00
2.349821710867641578e+00
2.349821710867641578e+00
2.268631733146153184e+00
2.268631733146153184e+00
2.208442396313364142e+00
2.208442396313364142e+00
2.122002258369701355e+00
2.122002258369701355e+00
2.019061616870632125e+00
2.019061616870632125e+00
2.025061799981688893e+00
2.025061799981688893e+00
2.106626789147617806e+00
2.106626789147617806e+00
2.261881527146214044e+00
2.261881527146214044e+00
2.320570818201239227e+00
2.320570818201239227e+00
2.249318643757439062e+00
2.249318643757439062e+00
2.270319284646137969e+00
2.270319284646137969e+00
2.270319284646137969e+00
2.322633381145664977e+00
2.322633381145664977e+00
2.428199102755821404e+00
2.428199102755821404e+00
2.512014160588396994e+00
2.512014160588396994e+00
2.451637318033387469e+00
2.451637318033387469e+00
2.108126834925382109e+00
2.108126834925382109e+00
1.930933927426984553e+00
1.930933927426984553e+00
1.993935850093081497e+00
1.993935850093081497e+00
2.202442213202307375e+00
2.202442213202307375e+00
2.202442213202307375e+00
2.426324045533616136e+00
2.426324045533616136e+00
2.560953154087954431e+00
2.560953154087954431e+00
2.694832239753410352e+00
2.694832239753410352e+00
2.651143406476027753e+00
2.651143406476027753e+00
2.623392559587389705e+00
2.623392559587389705e+00
2.444512100589007364e+00
2.444512100589007364e+00
2.122377269814142320e+00
2.122377269814142320e+00
2.060125370036927084e+00
2.060125370036927084e+00
2.060125370036927084e+00
2.291507431257057803e+00
2.291507431257057803e+00
2.255506332590716312e+00
2.255506332590716312e+00
2.083938596758934114e+00
2.083938596758934114e+00
2.002748619037446165e+00
2.002748619037446165e+00
1.997685964537492032e+00
1.997685964537492032e+00
2.074000793481246330e+00
2.074000793481246330e+00
2.214630085146641392e+00
2.214630085146641392e+00
2.308757957701345731e+00
2.308757957701345731e+00
2.415073702200384531e+00
2.415073702200384531e+00
2.415073702200384531e+00
2.417886288033692654e+00
2.417886288033692654e+00
2.417511276589251690e+00
2.417511276589251690e+00
2.442824549089022579e+00
2.442824549089022579e+00
2.361822077089755112e+00
2.361822077089755112e+00
2.155565782647175688e+00
2.155565782647175688e+00
2.083751091036713632e+00
2.083751091036713632e+00
2.044562395092623941e+00
2.044562395092623941e+00
2.046999969481490211e+00
2.046999969481490211e+00
2.046999969481490211e+00
2.091626331369976111e+00
2.091626331369976111e+00
2.102501663258766751e+00
2.102501663258766751e+00
2.151065645313883223e+00
2.151065645313883223e+00
2.172816309091464060e+00
2.172816309091464060e+00
2.210692464980010374e+00
2.210692464980010374e+00
2.228130497146519229e+00
2.228130497146519229e+00
2.235443220313119816e+00
2.235443220313119816e+00
2.322445875423444495e+00
2.322445875423444495e+00
2.386760338145085036e+00
2.386760338145085036e+00
2.361259559923093665e+00
2.361259559923093665e+00
2.269756767479476078e+00
2.269756767479476078e+00
2.269756767479476078e+00
2.227005462813196335e+00
2.227005462813196335e+00
2.434949308755760100e+00
2.434949308755760100e+00
2.627517685476241649e+00
2.627517685476241649e+00
2.493076082644123392e+00
2.493076082644123392e+00
2.265444135868404540e+00
2.265444135868404540e+00
2.045312417981505870e+00
2.045312417981505870e+00
1.924183721427045635e+00
1.924183721427045635e+00
1.944246833704641908e+00
1.944246833704641908e+00
1.977997863704336723e+00
1.977997863704336723e+00
1.977997863704336723e+00
1.877682302316354912e+00
1.877682302316354912e+00
1.831930906094546563e+00
1.831930906094546563e+00
1.718677449873348362e+00
1.718677449873348362e+00
1.653800469985045929e+00
1.653800469985045929e+00
2.029749443037202283e+00
2.029749443037202283e+00
2.403448347422711961e+00
2.403448347422711961e+00
2.389572923978392716e+00
2.389572923978392716e+00
2.560765648365733949e+00
2.560765648365733949e+00
2.560765648365733949e+00
2.652080935087130609e+00
2.652080935087130609e+00
2.592079103976562049e+00
2.592079103976562049e+00
2.599391827143162192e+00
2.599391827143162192e+00
2.323758415478988315e+00
2.323758415478988315e+00
2.089376262703329878e+00
2.089376262703329878e+00
2.052812646870326940e+00
2.052812646870326940e+00
2.212755027924436124e+00
2.212755027924436124e+00
2.635955442976165131e+00
2.635955442976165131e+00
2.635955442976165131e+00
2.780897366252632175e+00
2.780897366252632175e+00
2.647768303476058183e+00
2.647768303476058183e+00
2.625080111087374490e+00
2.625080111087374490e+00
2.288132328257088233e+00
2.288132328257088233e+00
1.906745689260536558e+00
1.906745689260536558e+00
1.817680471205786352e+00
1.817680471205786352e+00
1.813930356761375817e+00
1.813930356761375817e+00
1.957934751426740450e+00
1.957934751426740450e+00
1.966185003204443671e+00
1.966185003204443671e+00
1.845993835261085847e+00
1.845993835261085847e+00
1.845993835261085847e+00
1.969185094759971832e+00
1.969185094759971832e+00
2.113376995147556947e+00
2.113376995147556947e+00
2.225880428479872997e+00
2.225880428479872997e+00
2.469262855922116806e+00
2.469262855922116806e+00
2.561890682699057287e+00
2.561890682699057287e+00
2.717145420697653080e+00
2.717145420697653080e+00
2.617767387920773903e+00
2.617767387920773903e+00
2.397635670033875677e+00
2.397635670033875677e+00
2.208067384868923178e+00
2.208067384868923178e+00
2.208067384868923178e+00
2.103814203314310571e+00
2.103814203314310571e+00
2.041749809259315818e+00
2.041749809259315818e+00
2.134752647480697263e+00
2.134752647480697263e+00
2.194379467146824858e+00
2.194379467146824858e+00
2.505826471755119300e+00
2.505826471755119300e+00
2.827961302529984788e+00
2.827961302529984788e+00
2.717145420697653080e+00
2.717145420697653080e+00
2.484638325144199911e+00
2.484638325144199911e+00
2.484638325144199911e+00
2.232068117313150690e+00
2.232068117313150690e+00
2.087126194036683202e+00
2.087126194036683202e+00
2.053375164036988387e+00
2.053375164036988387e+00
1.978185369426557427e+00
1.978185369426557427e+00
1.896245368816187105e+00
1.896245368816187105e+00
2.050000061037018817e+00
2.050000061037018817e+00
2.133815118869594407e+00
2.133815118869594407e+00
2.076438367870113488e+00
2.076438367870113488e+00
2.076438367870113488e+00
2.006123722037415735e+00
2.006123722037415735e+00
1.823118137150181672e+00
1.823118137150181672e+00
1.869994567705313360e+00
1.869994567705313360e+00
2.111314432203131197e+00
2.111314432203131197e+00
2.336508804589983779e+00
2.336508804589983779e+00
2.632955351420636525e+00
2.632955351420636525e+00
2.692957182531205085e+00
2.692957182531205085e+00
2.656206060975981664e+00
2.656206060975981664e+00
2.678331736198004354e+00
2.678331736198004354e+00
2.678331736198004354e+00
2.720520523697622650e+00
2.720520523697622650e+00
2.563765739921262110e+00
2.563765739921262110e+00
2.558890591143528681e+00
2.558890591143528681e+00
2.470387890255439700e+00
2.470387890255439700e+00
2.413761162144840711e+00
2.413761162144840711e+00
2.137752739036225869e+00
2.137752739036225869e+00
1.963747428815576734e+00
1.963747428815576734e+00
1.808117679372539532e+00
1.808117679372539532e+00
1.808117679372539532e+00
1.831743400372325858e+00
1.831743400372325858e+00
2.026749351481673678e+00
2.026749351481673678e+00
2.227380474257637299e+00
2.227380474257637299e+00
2.402885830256050514e+00
2.402885830256050514e+00
2.650205877864925341e+00
2.650205877864925341e+00
2.756896633808405106e+00
2.756896633808405106e+00
2.263006561479537382e+00
2.263006561479537382e+00
1.766866420484023648e+00
1.766866420484023648e+00
1.498545731986449692e+00
1.498545731986449692e+00
1.578048158207953300e+00
1.578048158207953300e+00
1.578048158207953300e+00
1.659050630207220767e+00
1.659050630207220767e+00
1.735177953428754583e+00
1.735177953428754583e+00
2.100814111758781966e+00
2.100814111758781966e+00
2.379260109256263966e+00
2.379260109256263966e+00
2.752771507919553162e+00
2.752771507919553162e+00
3.255661854915005815e+00
3.255661854915005815e+00
3.634798425244911257e+00
3.634798425244911257e+00
3.545545701467940347e+00
3.545545701467940347e+00
3.545545701467940347e+00
3.071718741416669118e+00
3.071718741416669118e+00
2.705520065919980510e+00
2.705520065919980510e+00
2.094438917203283790e+00
2.094438917203283790e+00
1.576173100985747810e+00
1.576173100985747810e+00
1.305977355265968809e+00
1.305977355265968809e+00
1.044781884212775180e+00
1.044781884212775180e+00
7.961492965483565332e-01
7.961492965483565332e-01
9.315284279915768684e-01
9.315284279915768684e-01
1.430106143375957428e+00
1.430106143375957428e+00
1.430106143375957428e+00
2.073250770592364400e+00
2.073250770592364400e+00
2.394073061311685624e+00
2.394073061311685624e+00
2.463262672811060039e+00
2.463262672811060039e+00
2.510889126255073656e+00
2.510889126255073656e+00
2.578203680532242803e+00
2.578203680532242803e+00
2.960902859584337854e+00
2.960902859584337854e+00
3.055593249305703640e+00
3.055593249305703640e+00
2.675144138920255266e+00
2.675144138920255266e+00
2.675144138920255266e+00
2.176941434980315559e+00
2.176941434980315559e+00
2.092001342814417075e+00
2.092001342814417075e+00
2.389947935422834124e+00
2.389947935422834124e+00
2.508076540421765976e+00
2.508076540421765976e+00
2.305570360423596643e+00
2.305570360423596643e+00
2.014561479537339217e+00
2.014561479537339217e+00
1.961684865871150762e+00
1.961684865871150762e+00
1.749053376873073606e+00
1.749053376873073606e+00
1.485607837153233524e+00
1.485607837153233524e+00
1.535671864986114077e+00
1.535671864986114077e+00
1.535671864986114077e+00
1.654362987151707598e+00
1.654362987151707598e+00
2.062000427259132795e+00
2.062000427259132795e+00
2.305382854701376161e+00
2.305382854701376161e+00
2.227192968535416817e+00
2.227192968535416817e+00
2.278382030701620931e+00
2.278382030701620931e+00
2.051875118259224084e+00
2.051875118259224084e+00
2.103814203314310571e+00
2.103814203314310571e+00
2.446762169255653596e+00
2.446762169255653596e+00
2.446762169255653596e+00
2.802835535752433938e+00
2.802835535752433938e+00
2.950777550584429143e+00
2.950777550584429143e+00
2.973465742973113279e+00
2.973465742973113279e+00
2.924339243751335360e+00
2.924339243751335360e+00
2.843149266029847411e+00
2.843149266029847411e+00
2.109251869258705447e+00
2.109251869258705447e+00
1.644237678151799109e+00
1.644237678151799109e+00
1.794804773094882178e+00
1.794804773094882178e+00
1.823305642872402155e+00
1.823305642872402155e+00
1.823305642872402155e+00
1.964872463148899850e+00
1.964872463148899850e+00
2.390510452589495571e+00
2.390510452589495571e+00
2.867337504196294962e+00
2.867337504196294962e+00
2.798897915585802920e+00
2.798897915585802920e+00
2.669893978698080428e+00
2.669893978698080428e+00
2.503951414532914033e+00
2.503951414532914033e+00
2.332571184423352761e+00
2.332571184423352761e+00
2.185191686758019003e+00
2.185191686758019003e+00
2.185191686758019003e+00
2.307257911923581428e+00
2.307257911923581428e+00
2.401948301644947659e+00
2.401948301644947659e+00
2.465137730033265306e+00
2.465137730033265306e+00
2.440011963255714900e+00
2.440011963255714900e+00
2.348696676534318240e+00
2.348696676534318240e+00
2.145440473647266977e+00
2.145440473647266977e+00
2.033312051759392336e+00
2.033312051759392336e+00
1.843931272316659875e+00
1.843931272316659875e+00
2.094813928647724754e+00
2.094813928647724754e+00
2.094813928647724754e+00
2.414886196478164049e+00
2.414886196478164049e+00
2.366509720145268059e+00
2.366509720145268059e+00
2.294695028534806447e+00
2.294695028534806447e+00
2.186129215369121415e+00
2.186129215369121415e+00
2.529452192754905848e+00
2.529452192754905848e+00
2.610454664754173315e+00
2.610454664754173315e+00
2.489888485366374749e+00
2.489888485366374749e+00
2.500763817255165389e+00
2.500763817255165389e+00
2.293569994201483109e+00
2.293569994201483109e+00
1.878057313760796099e+00
1.878057313760796099e+00
1.878057313760796099e+00
1.396167607654042131e+00
1.396167607654042131e+00
1.190473830378124376e+00
1.190473830378124376e+00
1.097658497878963635e+00
1.097658497878963635e+00
1.610299142429883590e+00
1.610299142429883590e+00
2.103439191869869163e+00
2.103439191869869163e+00
2.300320200201422249e+00
2.300320200201422249e+00
2.435136814477980582e+00
2.435136814477980582e+00
2.435136814477980582e+00
2.908588763084810846e+00
2.908588763084810846e+00
3.237473799859615031e+00
3.237473799859615031e+00
3.298038148136845038e+00
3.298038148136845038e+00
3.064781029694509940e+00
3.064781029694509940e+00
2.978528397473067635e+00
2.978528397473067635e+00
2.999716544083987024e+00
2.999716544083987024e+00
2.715270363475447812e+00
2.715270363475447812e+00
2.425199011200292798e+00
2.425199011200292798e+00
2.425199011200292798e+00
2.307820429090243319e+00
2.307820429090243319e+00
1.999373516037476817e+00
1.999373516037476817e+00
1.624549577318643800e+00
1.624549577318643800e+00
1.247850581377605517e+00
1.247850581377605517e+00
1.233412640766625046e+00
1.233412640766625046e+00
1.329228064821314170e+00
1.329228064821314170e+00
1.333728202154606857e+00
1.333728202154606857e+00
1.538109439374981013e+00
1.538109439374981013e+00
1.538109439374981013e+00
2.040624774925992480e+00
2.040624774925992480e+00
2.306320383312479017e+00
2.306320383312479017e+00
2.377197546311838217e+00
2.377197546311838217e+00
2.659581163975951235e+00
2.659581163975951235e+00
2.839211645863215949e+00
2.839211645863215949e+00
2.815585924863429845e+00
2.815585924863429845e+00
2.329196081423383191e+00
2.329196081423383191e+00
1.901495529038361942e+00
1.901495529038361942e+00
2.138502761925107798e+00
2.138502761925107798e+00
2.138502761925107798e+00
2.606329538865321815e+00
2.606329538865321815e+00
2.362384594256416559e+00
2.362384594256416559e+00
1.737615527817621519e+00
1.737615527817621519e+00
1.414543168431653841e+00
1.414543168431653841e+00
1.680613788262581121e+00
1.680613788262581121e+00
2.206754844813379357e+00
2.206754844813379357e+00
2.963152928250984086e+00
2.963152928250984086e+00
3.624110599078341099e+00
3.624110599078341099e+00
3.715988402966399207e+00
3.715988402966399207e+00
3.715988402966399207e+00
3.305538377025666108e+00
3.305538377025666108e+00
2.883087984862819475e+00
2.883087984862819475e+00
2.553452925199133361e+00
2.553452925199133361e+00
2.273131870479445649e+00
2.273131870479445649e+00
2.099501571703238145e+00
2.099501571703238145e+00
1.967310037537766565e+00
1.967310037537766565e+00
2.220630268257698603e+00
2.220630268257698603e+00
2.409636036255989211e+00
2.409636036255989211e+00
2.409636036255989211e+00
2.325820978423414065e+00
2.325820978423414065e+00
2.184441663869136629e+00
2.184441663869136629e+00
2.212942533646656607e+00
2.212942533646656607e+00
2.456887478255561863e+00
2.456887478255561863e+00
2.707395123142185778e+00
2.707395123142185778e+00
2.571453474532304107e+00
2.571453474532304107e+00
2.212380016479995160e+00
2.212380016479995160e+00
1.904683126316110808e+00
1.904683126316110808e+00
1.904683126316110808e+00
1.718677449873348362e+00
1.718677449873348362e+00
1.402167790765099120e+00
1.402167790765099120e+00
5.994557939390240398e-01
5.994557939390240398e-01
1.830055848872340907e-01
1.830055848872340907e-01
3.148221076082644010e-01
3.148221076082644010e-01
1.191598864711447492e+00
1.191598864711447492e+00
2.361259559923093665e+00
2.361259559923093665e+00
3.521544969023713278e+00
3.521544969023713278e+00
3.812553849909970705e+00
3.812553849909970705e+00
3.812553849909970705e+00
3.812553849909970705e+00
3.812553849909970705e+00
3.695737784966582229e+00
3.695737784966582229e+00
2.878400341807306528e+00
2.878400341807306528e+00
2.585141392254402426e+00
2.585141392254402426e+00
2.371947386089663379e+00
2.371947386089663379e+00
2.195316995757927270e+00
2.195316995757927270e+00
1.973685232093264519e+00
1.973685232093264519e+00
2.010061342204047197e+00
2.010061342204047197e+00
2.010061342204047197e+00
1.896807885982848552e+00
1.896807885982848552e+00
1.872432142094180296e+00
1.872432142094180296e+00
1.871682119205298145e+00
1.871682119205298145e+00
1.966185003204443671e+00
1.966185003204443671e+00
2.187066743980223826e+00
2.187066743980223826e+00
2.351321756645405436e+00
2.351321756645405436e+00
2.194379467146824858e+00
2.194379467146824858e+00
1.463107150486770092e+00
1.463107150486770092e+00
1.035969115268410290e+00
1.035969115268410290e+00
1.603548936429944671e+00
1.603548936429944671e+00
1.603548936429944671e+00
2.510514114810632691e+00
2.510514114810632691e+00
2.995778923917356007e+00
2.995778923917356007e+00
3.105094759971922969e+00
3.105094759971922969e+00
2.728770775475325649e+00
2.728770775475325649e+00
2.323945921201208797e+00
2.323945921201208797e+00
2.299382671590319838e+00
2.299382671590319838e+00
2.547077730643635629e+00
2.547077730643635629e+00
2.515951780755027567e+00
2.515951780755027567e+00
2.495701162755211033e+00
2.495701162755211033e+00
2.495701162755211033e+00
2.539765007477034597e+00
2.539765007477034597e+00
2.581391277809991891e+00
2.581391277809991891e+00
2.565265785699026413e+00
2.565265785699026413e+00
2.479950682088686964e+00
2.479950682088686964e+00
2.780709860530411692e+00
2.780709860530411692e+00
2.903338602862636009e+00
2.903338602862636009e+00
3.042655354472487694e+00
3.042655354472487694e+00
2.944964873195593302e+00
2.944964873195593302e+00
2.944964873195593302e+00
2.644768211920529577e+00
2.644768211920529577e+00
2.412823633533738299e+00
2.412823633533738299e+00
2.304070314645832784e+00
2.304070314645832784e+00
1.981372966704306293e+00
1.981372966704306293e+00
1.693926694540238698e+00
1.693926694540238698e+00
1.481857722708822989e+00
1.481857722708822989e+00
1.491795525986510995e+00
1.491795525986510995e+00
1.760678731650746176e+00
1.760678731650746176e+00
2.155378276924954761e+00
2.155378276924954761e+00
2.155378276924954761e+00
2.732333384197515702e+00
2.732333384197515702e+00
2.868275032807397373e+00
2.868275032807397373e+00
2.584016357921079532e+00
2.584016357921079532e+00
1.756928617206335641e+00
1.756928617206335641e+00
1.134409619434187055e+00
1.134409619434187055e+00
1.024156254768517016e+00
1.024156254768517016e+00
1.333540696432386374e+00
1.333540696432386374e+00
1.978372875148777910e+00
1.978372875148777910e+00
2.375322489089632505e+00
2.375322489089632505e+00
2.375322489089632505e+00
2.929401898251289271e+00
2.929401898251289271e+00
3.371352885525070953e+00
3.371352885525070953e+00
3.564483779412213504e+00
3.564483779412213504e+00
3.459480574968718525e+00
3.459480574968718525e+00
2.852524552140873748e+00
2.852524552140873748e+00
2.063687978759117581e+00
2.063687978759117581e+00
1.795367290261543625e+00
1.795367290261543625e+00
1.814867885372478451e+00
1.814867885372478451e+00
1.944059327982421204e+00
1.944059327982421204e+00
1.944059327982421204e+00
2.091251319925535146e+00
2.091251319925535146e+00
2.743583727530747307e+00
2.743583727530747307e+00
3.201097689748832575e+00
3.201097689748832575e+00
3.166784142582476314e+00
3.166784142582476314e+00
2.919651600695821969e+00
2.919651600695821969e+00
2.544640156254768470e+00
2.544640156254768470e+00
2.128752464369640052e+00
2.128752464369640052e+00
2.007061250648518591e+00
2.007061250648518591e+00
1.939746696371349222e+00
1.939746696371349222e+00
1.939746696371349222e+00
1.803617542039246846e+00
1.803617542039246846e+00
1.885745048371837429e+00
1.885745048371837429e+00
2.355259376812036454e+00
2.355259376812036454e+00
2.311008026367992407e+00
2.311008026367992407e+00
1.914808435316019075e+00
1.914808435316019075e+00
1.488232917264320720e+00
1.488232917264320720e+00
1.226287423322244940e+00
1.226287423322244940e+00
1.395792596209601166e+00
1.395792596209601166e+00
1.395792596209601166e+00
1.575610583819086363e+00
1.575610583819086363e+00
1.662800744651631080e+00
1.662800744651631080e+00
1.949309488204596263e+00
1.949309488204596263e+00
2.537889950254829774e+00
2.537889950254829774e+00
3.456667989135410402e+00
3.456667989135410402e+00
3.782365428632465498e+00
3.782365428632465498e+00
3.855117648854029966e+00
3.855117648854029966e+00
3.636673482467116525e+00
3.636673482467116525e+00
3.636673482467116525e+00
2.945339884640034267e+00
2.945339884640034267e+00
2.224942899868770141e+00
2.224942899868770141e+00
1.721490035706656041e+00
1.721490035706656041e+00
1.592861110263374735e+00
1.592861110263374735e+00
1.883119968260750232e+00
1.883119968260750232e+00
2.414886196478164049e+00
2.414886196478164049e+00
2.564140751365703075e+00
2.564140751365703075e+00
2.327133518478957885e+00
2.327133518478957885e+00
2.157253334147160473e+00
2.157253334147160473e+00
2.245756035035248566e+00
2.245756035035248566e+00
2.245756035035248566e+00
2.413198644978179264e+00
2.413198644978179264e+00
2.445074617755668811e+00
2.445074617755668811e+00
2.512764183477279367e+00
2.512764183477279367e+00
2.551015350810266202e+00
2.551015350810266202e+00
2.354696859645375007e+00
2.354696859645375007e+00
2.105689260536515395e+00
2.105689260536515395e+00
1.872807153538621261e+00
1.872807153538621261e+00
1.891745231482894418e+00
1.891745231482894418e+00
1.891745231482894418e+00
2.133065095980712478e+00
2.133065095980712478e+00
2.329571092867824156e+00
2.329571092867824156e+00
2.444887112033448329e+00
2.444887112033448329e+00
2.681331827753532515e+00
2.681331827753532515e+00
2.701207434308908528e+00
2.701207434308908528e+00
2.518951872310556173e+00
2.518951872310556173e+00
2.121064729758598499e+00
2.121064729758598499e+00
1.700489394817957134e+00
1.700489394817957134e+00
1.616111819818720097e+00
1.616111819818720097e+00
1.616111819818720097e+00
1.692239143040253913e+00
1.692239143040253913e+00
1.837368572038941661e+00
1.837368572038941661e+00
2.163816034424878687e+00
2.163816034424878687e+00
2.602579424420911280e+00
2.602579424420911280e+00
2.607642078920865636e+00
2.607642078920865636e+00
2.584578875087740979e+00
2.584578875087740979e+00
2.718832972197637865e+00
2.718832972197637865e+00
2.909901303140354667e+00
2.909901303140354667e+00
2.909901303140354667e+00
2.859649769585253409e+00
2.859649769585253409e+00
2.585328897976622908e+00
2.585328897976622908e+00
2.356196905423139309e+00
2.356196905423139309e+00
1.874869716483047011e+00
1.874869716483047011e+00
1.780554338206121967e+00
1.780554338206121967e+00
2.046624958037049247e+00
2.046624958037049247e+00
1.974622760704367153e+00
1.974622760704367153e+00
2.120502212591937052e+00
2.120502212591937052e+00
2.426511551255836618e+00
2.426511551255836618e+00
2.426511551255836618e+00
2.630892788476211219e+00
2.630892788476211219e+00
2.729333292641987541e+00
2.729333292641987541e+00
2.532452284310434454e+00
2.532452284310434454e+00
2.250256172368541474e+00
2.250256172368541474e+00
2.274819421979430434e+00
2.274819421979430434e+00
2.288882351145970162e+00
2.288882351145970162e+00
2.376822534867396808e+00
2.376822534867396808e+00
2.729333292641987541e+00
2.729333292641987541e+00
2.895088351084933009e+00
2.895088351084933009e+00
2.725208166753136041e+00
2.725208166753136041e+00
2.725208166753136041e+00
2.481263222144230340e+00
2.481263222144230340e+00
2.324320932645649762e+00
2.324320932645649762e+00
2.130815027314065802e+00
2.130815027314065802e+00
2.007436262092959556e+00
2.007436262092959556e+00
2.091813837092196593e+00
2.091813837092196593e+00
2.313633106479079604e+00
2.313633106479079604e+00
2.366884731589709023e+00
2.366884731589709023e+00
2.282319650868251504e+00
2.282319650868251504e+00
2.018874111148411643e+00
2.018874111148411643e+00
2.018874111148411643e+00
1.648550309762871313e+00
1.648550309762871313e+00
1.658863124485000284e+00
1.658863124485000284e+00
2.001998596148564236e+00
2.001998596148564236e+00
2.042312326425977265e+00
2.042312326425977265e+00
2.000311044648579006e+00
2.000311044648579006e+00
2.422011413922543710e+00
2.422011413922543710e+00
2.742833704641865378e+00
2.742833704641865378e+00
2.936714621417890303e+00
2.936714621417890303e+00
2.936714621417890303e+00
2.879337870418408496e+00
2.879337870418408496e+00
2.694269722586748905e+00
2.694269722586748905e+00
2.771522080141606281e+00
2.771522080141606281e+00
2.560390636921292984e+00
2.560390636921292984e+00
2.271444318979460864e+00
2.271444318979460864e+00
2.040437269203771997e+00
2.040437269203771997e+00
1.702176946317941919e+00
1.702176946317941919e+00
2.033874568926053783e+00
2.033874568926053783e+00
2.033874568926053783e+00
2.271631824701681346e+00
2.271631824701681346e+00
2.443949583422345917e+00
2.443949583422345917e+00
2.759334208197271820e+00
2.759334208197271820e+00
2.944214850306710929e+00
2.944214850306710929e+00
2.622267525254066367e+00
2.622267525254066367e+00
2.303695303201391820e+00
2.303695303201391820e+00
2.216505142368846659e+00
2.216505142368846659e+00
2.133065095980712478e+00
2.133065095980712478e+00
1.908058229316080379e+00
1.908058229316080379e+00
1.908058229316080379e+00
1.808492690816980719e+00
1.808492690816980719e+00
1.710614703817865623e+00
1.710614703817865623e+00
1.585360881374553887e+00
1.585360881374553887e+00
1.912933378093814030e+00
1.912933378093814030e+00
2.542765099032563203e+00
2.542765099032563203e+00
2.791772698141422815e+00
2.791772698141422815e+00
2.891525742362742957e+00
2.891525742362742957e+00
2.914776451918088096e+00
2.914776451918088096e+00
2.843336771752067893e+00
2.843336771752067893e+00
2.843336771752067893e+00
2.575016083254493715e+00
2.575016083254493715e+00
2.317570726645710621e+00
2.317570726645710621e+00
2.034624591814935712e+00
2.034624591814935712e+00
1.785992004150517287e+00
1.785992004150517287e+00
2.038187200537125765e+00
2.038187200537125765e+00
2.268069215979491737e+00
2.268069215979491737e+00
2.257006378368480615e+00
2.257006378368480615e+00
2.263194067201757864e+00
2.263194067201757864e+00
2.263194067201757864e+00
2.530764732810449669e+00
2.530764732810449669e+00
2.630705282753990293e+00
2.630705282753990293e+00
2.345134067812128187e+00
2.345134067812128187e+00
2.344384044923245813e+00
2.344384044923245813e+00
2.454824915311136557e+00
2.454824915311136557e+00
2.510514114810632691e+00
2.510514114810632691e+00
2.462137638477736701e+00
2.462137638477736701e+00
2.177691457869197489e+00
2.177691457869197489e+00
2.177691457869197489e+00
1.986248115482039944e+00
1.986248115482039944e+00
2.127064912869655711e+00
2.127064912869655711e+00
2.501701345866268245e+00
2.501701345866268245e+00
2.592266609698782531e+00
2.592266609698782531e+00
2.466637775811029609e+00
2.466637775811029609e+00
2.362009582811975594e+00
2.362009582811975594e+00
2.307445417645802355e+00
2.307445417645802355e+00
2.236568254646443155e+00
2.236568254646443155e+00
2.185379192480239485e+00
2.185379192480239485e+00
2.185379192480239485e+00
2.164941068758201581e+00
2.164941068758201581e+00
2.299195165868098911e+00
2.299195165868098911e+00
2.368197271645252844e+00
2.368197271645252844e+00
2.441512009033478758e+00
2.441512009033478758e+00
2.322445875423444495e+00
2.322445875423444495e+00
2.278757042146061895e+00
2.278757042146061895e+00
2.327321024201178368e+00
2.327321024201178368e+00
2.403448347422711961e+00
2.403448347422711961e+00
2.252693746757408633e+00
2.252693746757408633e+00
2.252693746757408633e+00
2.133065095980712478e+00
2.133065095980712478e+00
2.344571550645466296e+00
2.344571550645466296e+00
2.392198004089480357e+00
2.392198004089480357e+00
2.274819421979430434e+00
2.274819421979430434e+00
2.270131778923917043e+00
2.270131778923917043e+00
2.404198370311593891e+00
2.404198370311593891e+00
2.481263222144230340e+00
2.481263222144230340e+00
2.425011505478072316e+00
2.425011505478072316e+00
2.267694204535050773e+00
2.267694204535050773e+00
2.267694204535050773e+00
2.081876033814508364e+00
2.081876033814508364e+00
2.076250862147892562e+00
2.076250862147892562e+00
2.162315988647114828e+00
2.162315988647114828e+00
2.223255348368785356e+00
2.223255348368785356e+00
2.278382030701620931e+00
2.278382030701620931e+00
2.428199102755821404e+00
2.428199102755821404e+00
2.514826746421705117e+00
2.514826746421705117e+00
2.681519333475752997e+00
2.681519333475752997e+00
2.681519333475752997e+00
2.632580339976195560e+00
2.632580339976195560e+00
2.550827845088045720e+00
2.550827845088045720e+00
2.523264503921628599e+00
2.523264503921628599e+00
2.240693380535294654e+00
2.240693380535294654e+00
2.064438001647999510e+00
2.064438001647999510e+00
2.190441846980193397e+00
2.190441846980193397e+00
2.368197271645252844e+00
2.368197271645252844e+00
2.584203863643300014e+00
2.584203863643300014e+00
2.584203863643300014e+00
2.535827387310404024e+00
2.535827387310404024e+00
2.342696493423261028e+00
2.342696493423261028e+00
2.106814294869838289e+00
2.106814294869838289e+00
1.952122074037903943e+00
1.952122074037903943e+00
2.169066194647053525e+00
2.169066194647053525e+00
2.466637775811029609e+00
2.466637775811029609e+00
2.503763908810693550e+00
2.503763908810693550e+00
2.345509079256569152e+00
2.345509079256569152e+00
2.345509079256569152e+00
2.248756126590777171e+00
2.248756126590777171e+00
1.999186010315256334e+00
1.999186010315256334e+00
1.844681295205542026e+00
1.844681295205542026e+00
1.779991821039460298e+00
1.779991821039460298e+00
1.934309030426953901e+00
1.934309030426953901e+00
2.176191412091433186e+00
2.176191412091433186e+00
2.389572923978392716e+00
2.389572923978392716e+00
2.533202307199316383e+00
2.533202307199316383e+00
2.725395672475356523e+00
2.725395672475356523e+00
2.725395672475356523e+00
2.688644550920133103e+00
2.688644550920133103e+00
2.554390453810235773e+00
2.554390453810235773e+00
2.485013336588640875e+00
2.485013336588640875e+00
2.355446882534256936e+00
2.355446882534256936e+00
2.335946287423322332e+00
2.335946287423322332e+00
2.273881893368328022e+00
2.273881893368328022e+00
2.189504318369090985e+00
2.189504318369090985e+00
2.268444227423932702e+00
2.268444227423932702e+00
2.201692190313425002e+00
2.201692190313425002e+00
2.201692190313425002e+00
2.165316080202642990e+00
2.165316080202642990e+00
2.275006927701650916e+00
2.275006927701650916e+00
2.294132511368144556e+00
2.294132511368144556e+00
2.260756492812891150e+00
2.260756492812891150e+00
2.211067476424451339e+00
2.211067476424451339e+00
2.159878414258247670e+00
2.159878414258247670e+00
2.308382946256904766e+00
2.308382946256904766e+00
2.488575945310831372e+00
2.488575945310831372e+00
2.664268807031464625e+00
2.664268807031464625e+00
2.664268807031464625e+00
2.650768395031586788e+00
2.650768395031586788e+00
2.414323679311502602e+00
2.414323679311502602e+00
2.375509994811853431e+00
2.375509994811853431e+00
2.276881984923856628e+00
2.276881984923856628e+00
2.091813837092196593e+00
2.091813837092196593e+00
2.125002349925229961e+00
2.125002349925229961e+00
2.016061525315103520e+00
2.016061525315103520e+00
2.200004638813440216e+00
2.200004638813440216e+00
2.200004638813440216e+00
2.573703543198950339e+00
2.573703543198950339e+00
2.668206427198095643e+00
2.668206427198095643e+00
2.643268166142765718e+00
2.643268166142765718e+00
2.499451277199621568e+00
2.499451277199621568e+00
2.383572740867336393e+00
2.383572740867336393e+00
2.284194708090456771e+00
2.284194708090456771e+00
2.245943540757469048e+00
2.245943540757469048e+00
2.260381481368449741e+00
2.260381481368449741e+00
2.260381481368449741e+00
2.488950956755272337e+00
2.488950956755272337e+00
2.783522446363719816e+00
2.783522446363719816e+00
2.733645924253059523e+00
2.733645924253059523e+00
2.660893704031495055e+00
2.660893704031495055e+00
2.420886379589221260e+00
2.420886379589221260e+00
2.240130863368633207e+00
2.240130863368633207e+00
2.123314798425245176e+00
2.123314798425245176e+00
2.074938322092349186e+00
2.074938322092349186e+00
2.179566515091402756e+00
2.179566515091402756e+00
2.179566515091402756e+00
2.331633655812249906e+00
2.331633655812249906e+00
2.199817133091219734e+00
2.199817133091219734e+00
2.153503219702749494e+00
2.153503219702749494e+00
2.329196081423383191e+00
2.329196081423383191e+00
2.504326425977354997e+00
2.504326425977354997e+00
2.332008667256691314e+00
2.332008667256691314e+00
2.045687429425947279e+00
2.045687429425947279e+00
2.039312234870449103e+00
2.039312234870449103e+00
2.039312234870449103e+00
2.176941434980315559e+00
2.176941434980315559e+00
2.352071779534287366e+00
2.352071779534287366e+00
2.448074709311197417e+00
2.448074709311197417e+00
2.456512466811120898e+00
2.456512466811120898e+00
2.160253425702688634e+00
2.160253425702688634e+00
2.096313974425489057e+00
2.096313974425489057e+00
2.308757957701345731e+00
2.308757957701345731e+00
2.424448988311410869e+00
2.424448988311410869e+00
2.424448988311410869e+00
2.424636494033631351e+00
2.424636494033631351e+00
2.246881069368571904e+00
2.246881069368571904e+00
1.944059327982421204e+00
1.944059327982421204e+00
1.844868800927762731e+00
1.844868800927762731e+00
1.927746330149235465e+00
1.927746330149235465e+00
2.159503402813806705e+00
2.159503402813806705e+00
2.295070039979247412e+00
2.295070039979247412e+00
2.368384777367473326e+00
2.368384777367473326e+00
2.368384777367473326e+00
2.469450361644337288e+00
2.469450361644337288e+00
2.415073702200384531e+00
2.415073702200384531e+00
2.482950773644215126e+00
2.482950773644215126e+00
2.742833704641865378e+00
2.742833704641865378e+00
2.789147618030335618e+00
2.789147618030335618e+00
2.657893612475966449e+00
2.657893612475966449e+00
2.453324869533372254e+00
2.453324869533372254e+00
2.222317819757682944e+00
2.222317819757682944e+00
2.075313333536790150e+00
2.075313333536790150e+00
2.075313333536790150e+00
2.083376079592272667e+00
2.083376079592272667e+00
2.207317361980041248e+00
2.207317361980041248e+00
2.288132328257088233e+00
2.288132328257088233e+00
2.405698416089358194e+00
2.405698416089358194e+00
2.536014893032624506e+00
2.536014893032624506e+00
2.579891232032227588e+00
2.579891232032227588e+00
2.365759697256386129e+00
2.365759697256386129e+00
2.167753654591509704e+00
2.167753654591509704e+00
2.082251045258949329e+00
2.082251045258949329e+00
2.082251045258949329e+00
1.980435438093203437e+00
1.980435438093203437e+00
2.007811273537400520e+00
2.007811273537400520e+00
2.018311593981750196e+00
2.018311593981750196e+00
2.088063722647786058e+00
2.088063722647786058e+00
2.210129947813348927e+00
2.210129947813348927e+00
2.296757591479232197e+00
2.296757591479232197e+00
2.462887661366619074e+00
2.462887661366619074e+00
2.629955259865108363e+00
2.629955259865108363e+00
2.629955259865108363e+00
2.634080385753959863e+00
2.634080385753959863e+00
2.658643635364848823e+00
2.658643635364848823e+00
2.665206335642567481e+00
2.665206335642567481e+00
2.641393108920560451e+00
2.641393108920560451e+00
2.552327890865810023e+00
2.552327890865810023e+00
2.520639423810540958e+00
2.520639423810540958e+00
2.442824549089022579e+00
2.442824549089022579e+00
2.389010406811731269e+00
2.389010406811731269e+00
2.361634571367534630e+00
2.361634571367534630e+00
2.361634571367534630e+00
2.263944090090640238e+00
2.263944090090640238e+00
2.133252601702932960e+00
2.133252601702932960e+00
2.075125827814569668e+00
2.075125827814569668e+00
2.092001342814417075e+00
2.092001342814417075e+00
2.203942258980071234e+00
2.203942258980071234e+00
2.293569994201483109e+00
2.293569994201483109e+00
2.363134617145298488e+00
2.363134617145298488e+00
2.359384502700888397e+00
2.359384502700888397e+00
2.359384502700888397e+00
2.319633289590136371e+00
2.319633289590136371e+00
2.368384777367473326e+00
2.368384777367473326e+00
2.314383129367961978e+00
2.314383129367961978e+00
2.189691824091311467e+00
2.189691824091311467e+00
2.121814752647480873e+00
2.121814752647480873e+00
2.065000518814661401e+00
2.065000518814661401e+00
2.095376445814386202e+00
2.095376445814386202e+00
2.212567522202215642e+00
2.212567522202215642e+00
2.212567522202215642e+00
2.314195623645741495e+00
2.314195623645741495e+00
2.431199194311350009e+00
2.431199194311350009e+00
2.444137089144566399e+00
2.444137089144566399e+00
2.443387066255684470e+00
2.443387066255684470e+00
2.473012970366527341e+00
2.473012970366527341e+00
2.490638508255257122e+00
2.490638508255257122e+00
2.410761070589312105e+00
2.410761070589312105e+00
2.381697683645130681e+00
2.381697683645130681e+00
2.312320566423536228e+00
2.312320566423536228e+00
2.312320566423536228e+00
2.294132511368144556e+00
2.294132511368144556e+00
2.303882808923612302e+00
2.303882808923612302e+00
2.247818597979674760e+00
2.247818597979674760e+00
2.294507522812585520e+00
2.294507522812585520e+00
2.447699697866756008e+00
2.447699697866756008e+00
2.599954344309823639e+00
2.599954344309823639e+00
2.619267433698538206e+00
2.619267433698538206e+00
2.319445783867915889e+00
2.319445783867915889e+00
2.319445783867915889e+00
2.063125461592455689e+00
2.063125461592455689e+00
2.166628620258186366e+00
2.166628620258186366e+00
2.385260292367321178e+00
2.385260292367321178e+00
2.445637134922330258e+00
2.445637134922330258e+00
2.437949400311288706e+00
2.437949400311288706e+00
2.293007477034821662e+00
2.293007477034821662e+00
2.152378185369426600e+00
2.152378185369426600e+00
2.025811822870570822e+00
2.025811822870570822e+00
2.025811822870570822e+00
2.053000152592547423e+00
2.053000152592547423e+00
2.126314889980773337e+00
2.126314889980773337e+00
2.108876857814264483e+00
2.108876857814264483e+00
2.166816125980407293e+00
2.166816125980407293e+00
2.255318826868495830e+00
2.255318826868495830e+00
2.232818140202032620e+00
2.232818140202032620e+00
2.406635944700461049e+00
2.406635944700461049e+00
2.491201025421918569e+00
2.491201025421918569e+00
2.491201025421918569e+00
2.426886562700277583e+00
2.426886562700277583e+00
2.441887020477920167e+00
2.441887020477920167e+00
2.469075350199895880e+00
2.469075350199895880e+00
2.425386516922513280e+00
2.425386516922513280e+00
2.456887478255561863e+00
2.456887478255561863e+00
2.391072969756157018e+00
2.391072969756157018e+00
2.275006927701650916e+00
2.275006927701650916e+00
2.206004821924497428e+00
2.206004821924497428e+00
2.206004821924497428e+00
2.230193060090945423e+00
2.230193060090945423e+00
2.364822168645283273e+00
2.364822168645283273e+00
2.492326059755241463e+00
2.492326059755241463e+00
2.507701528977324568e+00
2.507701528977324568e+00
2.554577959532456255e+00
2.554577959532456255e+00
2.481263222144230340e+00
2.481263222144230340e+00
2.390135441145054607e+00
2.390135441145054607e+00
2.482575762199774161e+00
2.482575762199774161e+00
2.474325510422071162e+00
2.474325510422071162e+00
2.299007660145878429e+00
2.299007660145878429e+00
2.299007660145878429e+00
2.184629169591357556e+00
2.184629169591357556e+00
2.043812372203741567e+00
2.043812372203741567e+00
1.953622119815668245e+00
1.953622119815668245e+00
1.975372783593249304e+00
1.975372783593249304e+00
2.025999328592791304e+00
2.025999328592791304e+00
2.175066377758110736e+00
2.175066377758110736e+00
2.384322763756218322e+00
2.384322763756218322e+00
2.454074892422254184e+00
2.454074892422254184e+00
2.620204962309641061e+00
2.620204962309641061e+00
2.620204962309641061e+00
2.605392010254219404e+00
2.605392010254219404e+00
2.528139652699362028e+00
2.528139652699362028e+00
2.570328440198980768e+00
2.570328440198980768e+00
2.435324320200201509e+00
2.435324320200201509e+00
2.357509445478682686e+00
2.357509445478682686e+00
2.296945097201452679e+00
2.296945097201452679e+00
2.199442121646778769e+00
2.199442121646778769e+00
2.155565782647175688e+00
2.155565782647175688e+00
2.155565782647175688e+00
2.156315805536057617e+00
2.156315805536057617e+00
2.202067201757865966e+00
2.202067201757865966e+00
2.285319742423780109e+00
2.285319742423780109e+00
2.359384502700888397e+00
2.359384502700888397e+00
2.381322672200689716e+00
2.381322672200689716e+00
2.388447889645069822e+00
2.388447889645069822e+00
2.380572649311807787e+00
2.380572649311807787e+00
2.406260933256020085e+00
2.406260933256020085e+00
2.426511551255836618e+00
2.426511551255836618e+00
2.426511551255836618e+00
2.333883724478896582e+00
2.333883724478896582e+00
2.363884640034180418e+00
2.363884640034180418e+00
2.298070131534776017e+00
2.298070131534776017e+00
2.156128299813837135e+00
2.156128299813837135e+00
2.136815210425123013e+00
2.136815210425123013e+00
2.182379100924710880e+00
2.182379100924710880e+00
2.258318918424023991e+00
2.258318918424023991e+00
2.310070497756889552e+00
2.310070497756889552e+00
2.310070497756889552e+00
2.323758415478988315e+00
2.323758415478988315e+00
2.378135074922940628e+00
2.378135074922940628e+00
2.383572740867336393e+00
2.383572740867336393e+00
2.318320749534592551e+00
2.318320749534592551e+00
2.350009216589862060e+00
2.350009216589862060e+00
2.335383770256660885e+00
2.335383770256660885e+00
2.254006286812952009e+00
2.254006286812952009e+00
2.232068117313150690e+00
2.232068117313150690e+00
2.203004730368968822e+00
2.203004730368968822e+00
2.211629993591112786e+00
2.211629993591112786e+00
2.211629993591112786e+00
2.246693563646351421e+00
2.246693563646351421e+00
2.275381939146092325e+00
2.275381939146092325e+00
2.313070589312418157e+00
2.313070589312418157e+00
2.324133426923429280e+00
2.324133426923429280e+00
2.336883816034425188e+00
2.336883816034425188e+00
2.445449629200109776e+00
2.445449629200109776e+00
2.445824640644550740e+00
2.445824640644550740e+00
2.352071779534287366e+00
2.352071779534287366e+00
2.352071779534287366e+00
2.388260383922848895e+00
2.388260383922848895e+00
2.327133518478957885e+00
2.327133518478957885e+00
2.283819696646015807e+00
2.283819696646015807e+00
2.295632557145908859e+00
2.295632557145908859e+00
2.245568529313028083e+00
2.245568529313028083e+00
2.222317819757682944e+00
2.222317819757682944e+00
2.278944547868282378e+00
2.278944547868282378e+00
2.312133060701315301e+00
2.312133060701315301e+00
2.312133060701315301e+00
2.336321298867763296e+00
2.336321298867763296e+00
2.339508896145511940e+00
2.339508896145511940e+00
2.353571825312051669e+00
2.353571825312051669e+00
2.411886104922635443e+00
2.411886104922635443e+00
2.371384868923001932e+00
2.371384868923001932e+00
2.367822260200811879e+00
2.367822260200811879e+00
2.414511185033723084e+00
2.414511185033723084e+00
2.313070589312418157e+00
2.313070589312418157e+00
2.224942899868770141e+00
2.224942899868770141e+00
2.224942899868770141e+00
2.223442854091006282e+00
2.223442854091006282e+00
2.182191595202490397e+00
2.182191595202490397e+00
2.218755211035493335e+00
2.218755211035493335e+00
2.245381023590808045e+00
2.245381023590808045e+00
2.279319559312723342e+00
2.279319559312723342e+00
2.342696493423261028e+00
2.342696493423261028e+00
2.317945738090151586e+00
2.317945738090151586e+00
2.319820795312356854e+00
2.319820795312356854e+00
2.348134159367656792e+00
2.348134159367656792e+00
2.348134159367656792e+00
2.339321390423291458e+00
2.339321390423291458e+00
2.335946287423322332e+00
2.335946287423322332e+00
2.289444868312631609e+00
2.289444868312631609e+00
2.192504409924619146e+00
2.192504409924619146e+00
2.194191961424603932e+00
2.194191961424603932e+00
2.186316721091342341e+00
2.186316721091342341e+00
2.138127750480666833e+00
2.138127750480666833e+00
2.192504409924619146e+00
2.192504409924619146e+00
2.254006286812952009e+00
2.254006286812952009e+00
2.361072054200873183e+00
2.361072054200873183e+00
2.489138462477492819e+00
2.489138462477492819e+00
2.489138462477492819e+00
2.574078554643390859e+00
2.574078554643390859e+00
2.647955809198278665e+00
2.647955809198278665e+00
2.590954069643238711e+00
2.590954069643238711e+00
2.461575121311075254e+00
2.461575121311075254e+00
2.451449812311166987e+00
2.451449812311166987e+00
2.332758690145573244e+00
2.332758690145573244e+00
2.199254615924558287e+00
2.199254615924558287e+00
2.161940977202673420e+00
2.161940977202673420e+00
2.161940977202673420e+00
2.117502121036408447e+00
2.117502121036408447e+00
2.115627063814203623e+00
2.115627063814203623e+00
2.167566148869289222e+00
2.167566148869289222e+00
2.217630176702169997e+00
2.217630176702169997e+00
2.293945005645924073e+00
2.293945005645924073e+00
2.356384411145359792e+00
2.356384411145359792e+00
2.368197271645252844e+00
2.368197271645252844e+00
2.428386608478041886e+00
2.428386608478041886e+00
2.428386608478041886e+00
2.430074159978026671e+00
2.430074159978026671e+00
2.372134891811884305e+00
2.372134891811884305e+00
2.408511001922666317e+00
2.408511001922666317e+00
2.309507980590228104e+00
2.309507980590228104e+00
2.254381298257393418e+00
2.254381298257393418e+00
2.245756035035248566e+00
2.245756035035248566e+00
2.204692281868953607e+00
2.204692281868953607e+00
2.226255439924313961e+00
2.226255439924313961e+00
2.284007202368236289e+00
2.284007202368236289e+00
2.336696310312204705e+00
2.336696310312204705e+00
2.336696310312204705e+00
2.381510177922910199e+00
2.381510177922910199e+00
2.401385784478286212e+00
2.401385784478286212e+00
2.391447981200597983e+00
2.391447981200597983e+00
2.403823358867152926e+00
2.403823358867152926e+00
2.335571275978881367e+00
2.335571275978881367e+00
2.317383220923490139e+00
2.317383220923490139e+00
2.362384594256416559e+00
2.362384594256416559e+00
2.285507248146000592e+00
2.285507248146000592e+00
2.244255989257484707e+00
2.244255989257484707e+00
2.229443037202063049e+00
2.229443037202063049e+00
2.229443037202063049e+00
2.174316354869228363e+00
2.174316354869228363e+00
2.190066835535752432e+00
2.190066835535752432e+00
2.203379741813409787e+00
2.203379741813409787e+00
2.251381206701864812e+00
2.251381206701864812e+00
2.349821710867641578e+00
2.349821710867641578e+00
2.412823633533738299e+00
2.412823633533738299e+00
2.455199926755577522e+00
2.455199926755577522e+00
2.467762810144352947e+00
2.467762810144352947e+00
2.467762810144352947e+00
2.399698232978301426e+00
2.399698232978301426e+00
2.405135898922696747e+00
2.405135898922696747e+00
2.359572008423108880e+00
2.359572008423108880e+00
2.242193426313058957e+00
2.242193426313058957e+00
2.201317178868984037e+00
2.201317178868984037e+00
2.146940519425031280e+00
2.146940519425031280e+00
2.136065187536240639e+00
2.136065187536240639e+00
2.177878963591417971e+00
2.177878963591417971e+00
2.200567155980101663e+00
2.200567155980101663e+00
2.200567155980101663e+00
2.263756584368419311e+00
2.263756584368419311e+00
2.319445783867915889e+00
2.319445783867915889e+00
2.347571642200994901e+00
2.347571642200994901e+00
2.420698873867000778e+00
2.420698873867000778e+00
2.425761528366954689e+00
2.425761528366954689e+00
2.388072878200628413e+00
2.388072878200628413e+00
2.433824274422437206e+00
2.433824274422437206e+00
2.335946287423322332e+00
2.335946287423322332e+00
2.292257454145939732e+00
2.292257454145939732e+00
2.292257454145939732e+00
2.300132694479201767e+00
2.300132694479201767e+00
2.241068391979735619e+00
2.241068391979735619e+00
2.216317636646626177e+00
2.216317636646626177e+00
2.242755943479720404e+00
2.242755943479720404e+00
2.253068758201849597e+00
2.253068758201849597e+00
2.293569994201483109e+00
2.293569994201483109e+00
2.323945921201208797e+00
2.323945921201208797e+00
2.347571642200994901e+00
2.347571642200994901e+00
2.399885738700521909e+00
2.399885738700521909e+00
2.399885738700521909e+00
2.380572649311807787e+00
2.380572649311807787e+00
2.363322122867518971e+00
2.363322122867518971e+00
2.415073702200384531e+00
2.415073702200384531e+00
2.320570818201239227e+00
2.320570818201239227e+00
2.270881801812799416e+00
2.270881801812799416e+00
2.242943449201941331e+00
2.242943449201941331e+00
2.187629261146885273e+00
2.187629261146885273e+00
2.188941801202429094e+00
2.188941801202429094e+00
2.227942991424298746e+00
2.227942991424298746e+00
2.257943906979583026e+00
2.257943906979583026e+00
2.303695303201391820e+00
2.303695303201391820e+00
2.303695303201391820e+00
2.333508713034455617e+00
2.333508713034455617e+00
2.366697225867488541e+00
2.366697225867488541e+00
2.407385967589342979e+00
2.407385967589342979e+00
2.369322305978576182e+00
2.369322305978576182e+00
2.396135624256111374e+00
2.396135624256111374e+00
2.399323221533860018e+00
2.399323221533860018e+00
2.284007202368236289e+00
2.284007202368236289e+00
2.255131321146275347e+00
2.255131321146275347e+00
2.255131321146275347e+00
2.209567430646687480e+00
2.209567430646687480e+00
2.185754203924680450e+00
2.185754203924680450e+00
2.218192693868831444e+00
2.218192693868831444e+00
2.248756126590777171e+00
2.248756126590777171e+00
2.304632831812494231e+00
2.304632831812494231e+00
2.351134250923184954e+00
2.351134250923184954e+00
2.341008941923276243e+00
2.341008941923276243e+00
2.394073061311685624e+00
2.394073061311685624e+00
2.428199102755821404e+00
2.428199102755821404e+00
2.428199102755821404e+00
2.383760246589556875e+00
2.383760246589556875e+00
2.415636219367045978e+00
2.415636219367045978e+00
2.375509994811853431e+00
2.375509994811853431e+00
2.287757316812646824e+00
2.287757316812646824e+00
2.263569078646198829e+00
2.263569078646198829e+00
2.202442213202307375e+00
2.202442213202307375e+00
2.191566881313516735e+00
2.191566881313516735e+00
2.219505233924375265e+00
2.219505233924375265e+00
2.219505233924375265e+00
2.230943082979827352e+00
2.230943082979827352e+00
2.280444593646046680e+00
2.280444593646046680e+00
2.331258644367808941e+00
2.331258644367808941e+00
2.348884182256538722e+00
2.348884182256538722e+00
2.394823084200567997e+00
2.394823084200567997e+00
2.375134983367412023e+00
2.375134983367412023e+00
2.349259193700979687e+00
2.349259193700979687e+00
2.416198736533707869e+00
2.416198736533707869e+00
2.416198736533707869e+00
2.336883816034425188e+00
2.336883816034425188e+00
2.266756675923947917e+00
2.266756675923947917e+00
2.239943357646412725e+00
2.239943357646412725e+00
2.183129123813593253e+00
2.183129123813593253e+00
2.190629352702413879e+00
2.190629352702413879e+00
2.233193151646474028e+00
2.233193151646474028e+00
2.262256538590655452e+00
2.262256538590655452e+00
2.320758323923459709e+00
2.320758323923459709e+00
2.320758323923459709e+00
2.347009125034333454e+00
2.347009125034333454e+00
2.366509720145268059e+00
2.366509720145268059e+00
2.412636127811517817e+00
2.412636127811517817e+00
2.392010498367259874e+00
2.392010498367259874e+00
2.392573015533921321e+00
2.392573015533921321e+00
2.414698690755943566e+00
2.414698690755943566e+00
2.306507889034699499e+00
2.306507889034699499e+00
2.252693746757408633e+00
2.252693746757408633e+00
2.219505233924375265e+00
2.219505233924375265e+00
2.219505233924375265e+00
2.183316629535813735e+00
2.183316629535813735e+00
2.197379558702353020e+00
2.197379558702353020e+00
2.216130130924405695e+00
2.216130130924405695e+00
2.265444135868404540e+00
2.265444135868404540e+00
2.324508438367870244e+00
2.324508438367870244e+00
2.352634296700948813e+00
2.352634296700948813e+00
2.402510818811609106e+00
2.402510818811609106e+00
2.434761803033539618e+00
2.434761803033539618e+00
2.434761803033539618e+00
2.399135715811639535e+00
2.399135715811639535e+00
2.417323770867030763e+00
2.417323770867030763e+00
2.399510727256080500e+00
2.399510727256080500e+00
2.292632465590380253e+00
2.292632465590380253e+00
2.254943815424054865e+00
2.254943815424054865e+00
2.212942533646656607e+00
2.212942533646656607e+00
2.186879238258003344e+00
2.186879238258003344e+00
2.216692648091067142e+00
2.216692648091067142e+00
2.216692648091067142e+00
2.235255714590899334e+00
2.235255714590899334e+00
2.286444776757103448e+00
2.286444776757103448e+00
2.329946104312265120e+00
2.329946104312265120e+00
2.342133976256599581e+00
2.342133976256599581e+00
2.400073244422742391e+00
2.400073244422742391e+00
2.404198370311593891e+00
2.404198370311593891e+00
2.362009582811975594e+00
2.362009582811975594e+00
2.421823908200323228e+00
2.421823908200323228e+00
2.421823908200323228e+00
2.363697134311959935e+00
2.279882076479384789e+00
2.279882076479384789e+00
2.254381298257393418e+00
2.254381298257393418e+00
2.254381298257393418e+00
2.205629810480056463e+00
2.205629810480056463e+00
2.204692281868953607e+00
2.204692281868953607e+00
2.244631000701926116e+00
2.244631000701926116e+00
2.267319193090609808e+00
2.267319193090609808e+00
2.310070497756889552e+00
2.310070497756889552e+00
2.340633930478835278e+00
2.340633930478835278e+00
2.357134434034241721e+00
2.357134434034241721e+00
2.423886471144749422e+00
2.423886471144749422e+00
2.423886471144749422e+00
2.397260658589434712e+00
2.397260658589434712e+00
2.379635120700704931e+00
2.379635120700704931e+00
2.424823999755851833e+00
2.424823999755851833e+00
2.326946012756737403e+00
2.326946012756737403e+00
2.265256630146183614e+00
2.265256630146183614e+00
2.247068575090792386e+00
2.247068575090792386e+00
2.197754570146794428e+00
2.197754570146794428e+00
2.203004730368968822e+00
2.203004730368968822e+00
2.234130680257575996e+00
2.234130680257575996e+00
2.234130680257575996e+00
2.279132053590502860e+00
2.279132053590502860e+00
2.336696310312204705e+00
2.336696310312204705e+00
2.357884456923124095e+00
2.357884456923124095e+00
2.379260109256263966e+00
2.379260109256263966e+00
2.409448530533769173e+00
2.409448530533769173e+00
2.362947111423078006e+00
2.362947111423078006e+00
2.363322122867518971e+00
2.363322122867518971e+00
2.372134891811884305e+00
2.372134891811884305e+00
2.268444227423932702e+00
2.268444227423932702e+00
2.268444227423932702e+00
2.236005737479781263e+00
2.236005737479781263e+00
2.206192327646717910e+00
2.206192327646717910e+00
2.174878872035889810e+00
2.174878872035889810e+00
2.205629810480056463e+00
2.205629810480056463e+00
2.231505600146489243e+00
2.231505600146489243e+00
2.277069490646077110e+00
2.277069490646077110e+00
2.331071138645588459e+00
2.331071138645588459e+00
2.347009125034333454e+00
2.347009125034333454e+00
2.347009125034333454e+00
2.398573198644978088e+00
2.398573198644978088e+00
2.416573747978148834e+00
2.416573747978148834e+00
2.383760246589556875e+00
2.383760246589556875e+00
2.416761253700369316e+00
2.416761253700369316e+00
2.380197637867366822e+00
2.380197637867366822e+00
2.276131962034974254e+00
2.276131962034974254e+00
2.246881069368571904e+00
2.246881069368571904e+00
