2.201692190313425002e+00
2.201692190313425002e+00
2.169816217535935454e+00
2.169816217535935454e+00
2.169816217535935454e+00
2.212380016479995160e+00
2.212380016479995160e+00
2.212380016479995160e+00
2.212380016479995160e+00
2.234693197424237443e+00
2.234693197424237443e+00
2.234693197424237443e+00
2.283444685201574842e+00
2.283444685201574842e+00
2.283444685201574842e+00
2.341008941923276243e+00
2.341008941923276243e+00
2.341008941923276243e+00
2.341008941923276243e+00
2.352446790978728330e+00
2.352446790978728330e+00
2.352446790978728330e+00
2.405510910367137711e+00
2.405510910367137711e+00
2.405510910367137711e+00
2.405510910367137711e+00
2.407385967589342979e+00
2.407385967589342979e+00
2.407385967589342979e+00
2.358259468367565059e+00
2.358259468367565059e+00
2.358259468367565059e+00
2.416011230811487387e+00
2.416011230811487387e+00
2.416011230811487387e+00
2.416011230811487387e+00
2.359759514145329362e+00
2.359759514145329362e+00
2.359759514145329362e+00
2.260568987090670667e+00
2.260568987090670667e+00
2.260568987090670667e+00
2.239943357646412725e+00
2.239943357646412725e+00
2.239943357646412725e+00
2.239943357646412725e+00
2.181441572313608468e+00
2.181441572313608468e+00
2.181441572313608468e+00
2.170566240424817828e+00
2.170566240424817828e+00
2.170566240424817828e+00
2.170566240424817828e+00
2.213317545091097571e+00
2.213317545091097571e+00
2.213317545091097571e+00
2.233380657368694511e+00
2.233380657368694511e+00
2.233380657368694511e+00
2.294320017090365038e+00
2.294320017090365038e+00
2.294320017090365038e+00
2.294320017090365038e+00
2.340821436201055761e+00
2.340821436201055761e+00
2.340821436201055761e+00
2.357696951200903612e+00
2.357696951200903612e+00
2.357696951200903612e+00
2.404760887478255782e+00
2.404760887478255782e+00
2.404760887478255782e+00
2.404760887478255782e+00
2.389010406811731269e+00
2.389010406811731269e+00
2.389010406811731269e+00
2.361072054200873183e+00
2.361072054200873183e+00
2.361072054200873183e+00
2.422761436811426083e+00
2.422761436811426083e+00
2.422761436811426083e+00
2.422761436811426083e+00
2.320570818201239227e+00
2.320570818201239227e+00
2.320570818201239227e+00
2.247256080813012868e+00
2.247256080813012868e+00
2.247256080813012868e+00
2.225880428479872997e+00
2.225880428479872997e+00
2.225880428479872997e+00
2.225880428479872997e+00
2.182004089480269915e+00
2.182004089480269915e+00
2.182004089480269915e+00
2.194754478591265823e+00
2.194754478591265823e+00
2.194754478591265823e+00
2.222317819757682944e+00
2.222317819757682944e+00
2.222317819757682944e+00
2.222317819757682944e+00
2.252318735312967224e+00
2.252318735312967224e+00
2.252318735312967224e+00
2.304632831812494231e+00
2.304632831812494231e+00
2.304632831812494231e+00
2.350009216589862060e+00
2.350009216589862060e+00
2.350009216589862060e+00
2.350009216589862060e+00
2.378885097811823002e+00
2.378885097811823002e+00
2.378885097811823002e+00
2.415636219367045978e+00
2.415636219367045978e+00
2.415636219367045978e+00
2.415636219367045978e+00
2.370259834589678594e+00
2.370259834589678594e+00
2.370259834589678594e+00
2.369697317423017147e+00
2.369697317423017147e+00
2.369697317423017147e+00
2.401198278756065729e+00
2.401198278756065729e+00
2.401198278756065729e+00
2.401198278756065729e+00
2.294320017090365038e+00
2.294320017090365038e+00
2.294320017090365038e+00
2.252131229590746742e+00
2.252131229590746742e+00
2.252131229590746742e+00
2.211067476424451339e+00
2.211067476424451339e+00
2.211067476424451339e+00
2.171128757591479275e+00
2.171128757591479275e+00
2.171128757591479275e+00
2.171128757591479275e+00
2.210129947813348927e+00
2.210129947813348927e+00
2.210129947813348927e+00
2.235818231757560781e+00
2.235818231757560781e+00
2.235818231757560781e+00
2.279132053590502860e+00
2.279132053590502860e+00
2.279132053590502860e+00
2.279132053590502860e+00
2.338383861812189490e+00
2.338383861812189490e+00
2.338383861812189490e+00
2.350571733756523507e+00
2.350571733756523507e+00
2.350571733756523507e+00
2.392573015533921321e+00
2.392573015533921321e+00
2.392573015533921321e+00
2.392573015533921321e+00
2.413011139255958781e+00
2.413011139255958781e+00
2.413011139255958781e+00
2.362384594256416559e+00
2.362384594256416559e+00
2.362384594256416559e+00
2.403448347422711961e+00
2.403448347422711961e+00
2.403448347422711961e+00
2.403448347422711961e+00
2.379260109256263966e+00
2.379260109256263966e+00
2.379260109256263966e+00
2.268444227423932702e+00
2.268444227423932702e+00
2.268444227423932702e+00
2.241818414868617992e+00
2.241818414868617992e+00
2.241818414868617992e+00
2.241818414868617992e+00
2.186691732535783306e+00
2.186691732535783306e+00
2.186691732535783306e+00
2.168128666035950669e+00
2.168128666035950669e+00
2.168128666035950669e+00
2.216505142368846659e+00
2.216505142368846659e+00
2.216505142368846659e+00
2.216505142368846659e+00
2.234693197424237443e+00
2.234693197424237443e+00
2.234693197424237443e+00
2.288507339701529197e+00
2.288507339701529197e+00
2.288507339701529197e+00
2.337821344645527599e+00
2.337821344645527599e+00
2.337821344645527599e+00
2.337821344645527599e+00
2.354321848200934042e+00
2.354321848200934042e+00
2.354321848200934042e+00
2.406823450422681532e+00
2.406823450422681532e+00
2.406823450422681532e+00
2.406823450422681532e+00
2.397635670033875677e+00
2.397635670033875677e+00
2.397635670033875677e+00
2.356759422589800756e+00
2.356759422589800756e+00
2.356759422589800756e+00
2.418823816644795066e+00
2.418823816644795066e+00
2.418823816644795066e+00
2.418823816644795066e+00
2.341946470534379099e+00
2.341946470534379099e+00
2.341946470534379099e+00
2.261694021423993561e+00
2.261694021423993561e+00
2.261694021423993561e+00
2.241443403424177028e+00
2.241443403424177028e+00
2.241443403424177028e+00
2.241443403424177028e+00
2.186129215369121415e+00
2.186129215369121415e+00
2.186129215369121415e+00
2.179191503646961792e+00
2.179191503646961792e+00
2.179191503646961792e+00
2.222692831202123909e+00
2.222692831202123909e+00
2.222692831202123909e+00
2.222692831202123909e+00
2.250443678090761956e+00
2.250443678090761956e+00
2.250443678090761956e+00
2.303695303201391820e+00
2.303695303201391820e+00
2.303695303201391820e+00
2.340446424756614796e+00
2.340446424756614796e+00
2.340446424756614796e+00
2.340446424756614796e+00
2.366884731589709023e+00
2.366884731589709023e+00
2.366884731589709023e+00
2.415823725089266905e+00
2.415823725089266905e+00
2.415823725089266905e+00
2.383760246589556875e+00
2.383760246589556875e+00
2.383760246589556875e+00
2.383760246589556875e+00
2.373822443311869090e+00
2.373822443311869090e+00
2.373822443311869090e+00
2.420886379589221260e+00
2.420886379589221260e+00
2.420886379589221260e+00
2.309507980590228104e+00
2.309507980590228104e+00
2.309507980590228104e+00
2.309507980590228104e+00
2.255318826868495830e+00
2.255318826868495830e+00
2.255318826868495830e+00
2.224567888424329176e+00
2.224567888424329176e+00
2.224567888424329176e+00
2.172628803369243577e+00
2.172628803369243577e+00
2.172628803369243577e+00
2.172628803369243577e+00
2.194379467146824858e+00
2.194379467146824858e+00
2.194379467146824858e+00
2.221005279702139568e+00
2.221005279702139568e+00
2.221005279702139568e+00
2.259068941312906365e+00
2.259068941312906365e+00
2.259068941312906365e+00
2.259068941312906365e+00
2.319445783867915889e+00
2.319445783867915889e+00
2.319445783867915889e+00
2.336508804589983779e+00
2.336508804589983779e+00
2.336508804589983779e+00
2.376260017700735361e+00
2.376260017700735361e+00
2.376260017700735361e+00
2.376260017700735361e+00
2.401385784478286212e+00
2.401385784478286212e+00
2.401385784478286212e+00
2.356571916867580274e+00
2.356571916867580274e+00
2.356571916867580274e+00
2.388260383922848895e+00
2.388260383922848895e+00
2.388260383922848895e+00
2.388260383922848895e+00
2.394823084200567997e+00
2.394823084200567997e+00
2.394823084200567997e+00
2.285694753868221074e+00
2.285694753868221074e+00
2.285694753868221074e+00
2.285694753868221074e+00
2.249881160924100509e+00
2.249881160924100509e+00
2.249881160924100509e+00
2.198692098757896396e+00
2.198692098757896396e+00
2.198692098757896396e+00
2.173566331980346433e+00
2.173566331980346433e+00
2.173566331980346433e+00
2.173566331980346433e+00
2.211254982146671821e+00
2.211254982146671821e+00
2.211254982146671821e+00
2.231318094424268317e+00
2.231318094424268317e+00
2.231318094424268317e+00
2.283257179479354360e+00
2.283257179479354360e+00
2.283257179479354360e+00
2.283257179479354360e+00
2.335383770256660885e+00
2.335383770256660885e+00
2.335383770256660885e+00
2.345134067812128187e+00
2.345134067812128187e+00
2.345134067812128187e+00
2.397823175756096159e+00
2.397823175756096159e+00
2.397823175756096159e+00
2.397823175756096159e+00
2.403073335978270997e+00
2.403073335978270997e+00
2.403073335978270997e+00
2.358821985534226506e+00
2.358821985534226506e+00
2.358821985534226506e+00
2.421636402478102745e+00
2.421636402478102745e+00
2.421636402478102745e+00
2.421636402478102745e+00
2.363697134311959935e+00
2.363697134311959935e+00
2.363697134311959935e+00
2.270881801812799416e+00
2.270881801812799416e+00
2.270881801812799416e+00
2.253068758201849597e+00
2.253068758201849597e+00
2.253068758201849597e+00
2.253068758201849597e+00
2.191004364146854844e+00
2.191004364146854844e+00
2.191004364146854844e+00
2.173941343424787398e+00
2.173941343424787398e+00
2.173941343424787398e+00
2.217255165257729033e+00
2.217255165257729033e+00
2.217255165257729033e+00
2.217255165257729033e+00
2.236755760368663637e+00
2.236755760368663637e+00
2.236755760368663637e+00
2.298070131534776017e+00
2.298070131534776017e+00
2.298070131534776017e+00
2.298070131534776017e+00
2.347384136478774419e+00
2.347384136478774419e+00
2.347384136478774419e+00
2.356946928312021239e+00
2.356946928312021239e+00
2.356946928312021239e+00
2.403260841700491479e+00
2.403260841700491479e+00
2.403260841700491479e+00
2.403260841700491479e+00
2.391447981200597983e+00
2.391447981200597983e+00
2.391447981200597983e+00
2.372697408978545752e+00
2.372697408978545752e+00
2.372697408978545752e+00
2.429136631366924259e+00
2.429136631366924259e+00
2.429136631366924259e+00
2.429136631366924259e+00
2.321320841090121156e+00
2.321320841090121156e+00
2.321320841090121156e+00
2.252506241035188150e+00
2.252506241035188150e+00
2.252506241035188150e+00
2.223817865535447247e+00
2.223817865535447247e+00
2.223817865535447247e+00
2.223817865535447247e+00
2.173753837702566916e+00
2.173753837702566916e+00
2.173753837702566916e+00
2.189504318369090985e+00
2.189504318369090985e+00
2.189504318369090985e+00
2.223255348368785356e+00
2.223255348368785356e+00
2.223255348368785356e+00
2.223255348368785356e+00
2.257943906979583026e+00
2.257943906979583026e+00
2.257943906979583026e+00
2.318133243812372069e+00
2.318133243812372069e+00
2.318133243812372069e+00
2.340258919034394314e+00
2.340258919034394314e+00
2.340258919034394314e+00
2.340258919034394314e+00
2.367634754478591397e+00
2.367634754478591397e+00
2.367634754478591397e+00
2.408698507644886799e+00
2.408698507644886799e+00
2.408698507644886799e+00
2.365197180089724238e+00
2.365197180089724238e+00
2.365197180089724238e+00
2.365197180089724238e+00
2.375885006256294396e+00
2.375885006256294396e+00
2.375885006256294396e+00
2.401948301644947659e+00
2.401948301644947659e+00
2.401948301644947659e+00
2.290569902645954947e+00
2.290569902645954947e+00
2.290569902645954947e+00
2.290569902645954947e+00
2.263381572923978347e+00
2.263381572923978347e+00
2.263381572923978347e+00
2.217630176702169997e+00
2.217630176702169997e+00
2.217630176702169997e+00
2.173191320535905025e+00
2.173191320535905025e+00
2.173191320535905025e+00
2.173191320535905025e+00
2.208629902035584625e+00
2.208629902035584625e+00
2.208629902035584625e+00
2.226442945646534444e+00
2.226442945646534444e+00
2.226442945646534444e+00
2.273131870479445649e+00
2.273131870479445649e+00
2.273131870479445649e+00
2.273131870479445649e+00
2.332758690145573244e+00
2.332758690145573244e+00
2.332758690145573244e+00
2.349634205145421095e+00
2.349634205145421095e+00
2.349634205145421095e+00
2.393885555589465142e+00
2.393885555589465142e+00
2.393885555589465142e+00
2.393885555589465142e+00
2.406073427533799602e+00
2.406073427533799602e+00
2.406073427533799602e+00
2.355259376812036454e+00
2.355259376812036454e+00
2.355259376812036454e+00
2.398760704367198571e+00
2.398760704367198571e+00
2.398760704367198571e+00
2.398760704367198571e+00
2.371197363200781449e+00
2.371197363200781449e+00
2.371197363200781449e+00
2.266006653035065987e+00
2.266006653035065987e+00
2.266006653035065987e+00
2.266006653035065987e+00
2.246506057924130939e+00
2.246506057924130939e+00
2.246506057924130939e+00
2.193629444257942485e+00
2.193629444257942485e+00
2.193629444257942485e+00
2.170191228980376863e+00
2.170191228980376863e+00
2.170191228980376863e+00
2.170191228980376863e+00
2.219317728202154782e+00
2.219317728202154782e+00
2.219317728202154782e+00
2.236755760368663637e+00
2.236755760368663637e+00
2.236755760368663637e+00
2.288694845423749680e+00
2.288694845423749680e+00
2.288694845423749680e+00
2.288694845423749680e+00
2.333133701590014208e+00
2.333133701590014208e+00
2.333133701590014208e+00
2.349821710867641578e+00
2.349821710867641578e+00
2.349821710867641578e+00
2.406260933256020085e+00
2.406260933256020085e+00
2.406260933256020085e+00
2.406260933256020085e+00
2.398385692922757606e+00
2.398385692922757606e+00
2.398385692922757606e+00
2.368197271645252844e+00
2.368197271645252844e+00
2.368197271645252844e+00
2.439449446089053009e+00
2.439449446089053009e+00
2.439449446089053009e+00
2.439449446089053009e+00
2.345696584978789634e+00
2.345696584978789634e+00
2.345696584978789634e+00
2.253256263924070080e+00
2.253256263924070080e+00
2.253256263924070080e+00
2.230943082979827352e+00
2.230943082979827352e+00
2.230943082979827352e+00
2.230943082979827352e+00
2.175253883480330774e+00
2.175253883480330774e+00
2.175253883480330774e+00
2.177503952146977007e+00
2.177503952146977007e+00
2.177503952146977007e+00
2.220067751091036712e+00
2.220067751091036712e+00
2.220067751091036712e+00
2.220067751091036712e+00
2.254006286812952009e+00
2.254006286812952009e+00
2.254006286812952009e+00
2.311570543534653854e+00
2.311570543534653854e+00
2.311570543534653854e+00
2.344009033478804849e+00
2.344009033478804849e+00
2.344009033478804849e+00
2.344009033478804849e+00
2.368197271645252844e+00
2.368197271645252844e+00
2.368197271645252844e+00
2.421636402478102745e+00
2.421636402478102745e+00
2.421636402478102745e+00
2.421636402478102745e+00
2.387322855311746483e+00
2.387322855311746483e+00
2.387322855311746483e+00
2.379260109256263966e+00
2.379260109256263966e+00
2.379260109256263966e+00
2.419573839533677440e+00
2.419573839533677440e+00
2.419573839533677440e+00
2.419573839533677440e+00
2.303132786034730373e+00
2.303132786034730373e+00
2.303132786034730373e+00
2.252318735312967224e+00
2.252318735312967224e+00
2.252318735312967224e+00
2.215755119479964730e+00
2.215755119479964730e+00
2.215755119479964730e+00
2.215755119479964730e+00
2.169816217535935454e+00
2.169816217535935454e+00
2.169816217535935454e+00
2.192504409924619146e+00
2.192504409924619146e+00
2.192504409924619146e+00
2.221755302591021497e+00
2.221755302591021497e+00
2.221755302591021497e+00
2.221755302591021497e+00
2.263194067201757864e+00
2.263194067201757864e+00
2.263194067201757864e+00
2.325820978423414065e+00
2.325820978423414065e+00
2.325820978423414065e+00
2.339696401867732423e+00
2.339696401867732423e+00
2.339696401867732423e+00
2.339696401867732423e+00
2.376822534867396808e+00
2.376822534867396808e+00
2.376822534867396808e+00
2.409823541978209693e+00
2.409823541978209693e+00
2.409823541978209693e+00
2.409823541978209693e+00
2.370259834589678594e+00
2.370259834589678594e+00
2.370259834589678594e+00
2.399135715811639535e+00
2.399135715811639535e+00
2.399135715811639535e+00
2.389947935422834124e+00
2.389947935422834124e+00
2.389947935422834124e+00
2.389947935422834124e+00
2.279694570757164307e+00
2.279694570757164307e+00
2.279694570757164307e+00
2.256631366924039650e+00
2.256631366924039650e+00
2.256631366924039650e+00
2.208254890591143660e+00
2.208254890591143660e+00
2.208254890591143660e+00
2.208254890591143660e+00
2.178253975035859380e+00
2.178253975035859380e+00
2.178253975035859380e+00
2.212755027924436124e+00
2.212755027924436124e+00
2.212755027924436124e+00
2.234130680257575996e+00
2.234130680257575996e+00
2.234130680257575996e+00
2.234130680257575996e+00
2.282132145146031021e+00
2.282132145146031021e+00
2.282132145146031021e+00
2.334633747367778511e+00
2.334633747367778511e+00
2.334633747367778511e+00
2.341383953367717208e+00
2.341383953367717208e+00
2.341383953367717208e+00
2.341383953367717208e+00
2.390135441145054607e+00
2.390135441145054607e+00
2.390135441145054607e+00
2.398760704367198571e+00
2.398760704367198571e+00
2.398760704367198571e+00
2.351321756645405436e+00
2.351321756645405436e+00
2.351321756645405436e+00
2.351321756645405436e+00
2.409073519089327764e+00
2.409073519089327764e+00
2.409073519089327764e+00
2.347571642200994901e+00
2.347571642200994901e+00
2.347571642200994901e+00
2.259443952757347329e+00
2.259443952757347329e+00
2.259443952757347329e+00
2.259443952757347329e+00
2.233193151646474028e+00
2.233193151646474028e+00
2.233193151646474028e+00
2.184816675313578038e+00
2.184816675313578038e+00
2.184816675313578038e+00
2.173191320535905025e+00
2.173191320535905025e+00
2.173191320535905025e+00
2.173191320535905025e+00
2.220442762535478121e+00
2.220442762535478121e+00
2.220442762535478121e+00
2.251193700979644330e+00
2.251193700979644330e+00
2.251193700979644330e+00
2.314945646534623425e+00
2.314945646534623425e+00
2.314945646534623425e+00
2.314945646534623425e+00
2.360134525589770327e+00
2.360134525589770327e+00
2.360134525589770327e+00
2.371572374645222414e+00
2.371572374645222414e+00
2.371572374645222414e+00
2.416761253700369316e+00
2.416761253700369316e+00
2.416761253700369316e+00
2.416761253700369316e+00
2.395198095645008962e+00
2.395198095645008962e+00
2.395198095645008962e+00
2.371009857478560967e+00
2.371009857478560967e+00
2.371009857478560967e+00
2.432324228644673347e+00
2.432324228644673347e+00
2.432324228644673347e+00
2.432324228644673347e+00
2.326195989867855030e+00
2.326195989867855030e+00
2.326195989867855030e+00
2.260006469924008776e+00
2.260006469924008776e+00
2.260006469924008776e+00
2.228693014313181120e+00
2.228693014313181120e+00
2.228693014313181120e+00
2.228693014313181120e+00
2.178816492202520827e+00
2.178816492202520827e+00
2.178816492202520827e+00
2.200754661702322146e+00
2.200754661702322146e+00
2.200754661702322146e+00
2.238255806146427940e+00
2.238255806146427940e+00
2.238255806146427940e+00
2.238255806146427940e+00
2.265069124423963132e+00
2.265069124423963132e+00
2.265069124423963132e+00
2.323758415478988315e+00
2.323758415478988315e+00
2.323758415478988315e+00
2.323758415478988315e+00
2.350384228034303025e+00
2.350384228034303025e+00
2.350384228034303025e+00
2.381322672200689716e+00
2.381322672200689716e+00
2.381322672200689716e+00
2.415073702200384531e+00
2.415073702200384531e+00
2.415073702200384531e+00
2.415073702200384531e+00
2.370259834589678594e+00
2.370259834589678594e+00
2.370259834589678594e+00
2.379072603534043484e+00
2.379072603534043484e+00
2.379072603534043484e+00
2.398198187200537124e+00
2.398198187200537124e+00
2.398198187200537124e+00
2.398198187200537124e+00
2.281007110812707683e+00
2.281007110812707683e+00
2.281007110812707683e+00
2.239943357646412725e+00
2.239943357646412725e+00
2.239943357646412725e+00
2.200004638813440216e+00
2.200004638813440216e+00
2.200004638813440216e+00
2.200004638813440216e+00
2.163441022980437278e+00
2.163441022980437278e+00
2.163441022980437278e+00
2.195316995757927270e+00
2.195316995757927270e+00
2.195316995757927270e+00
2.213317545091097571e+00
2.213317545091097571e+00
2.213317545091097571e+00
2.213317545091097571e+00
2.263194067201757864e+00
2.263194067201757864e+00
2.263194067201757864e+00
2.322070863979003530e+00
2.322070863979003530e+00
2.322070863979003530e+00
2.336696310312204705e+00
2.336696310312204705e+00
2.336696310312204705e+00
2.336696310312204705e+00
2.384697775200659287e+00
2.384697775200659287e+00
2.384697775200659287e+00
2.395198095645008962e+00
2.395198095645008962e+00
2.395198095645008962e+00
2.365009674367503756e+00
2.365009674367503756e+00
2.365009674367503756e+00
2.413948667867061193e+00
2.413948667867061193e+00
2.413948667867061193e+00
2.413948667867061193e+00
2.375322489089632505e+00
2.375322489089632505e+00
2.375322489089632505e+00
2.271819330423901828e+00
2.271819330423901828e+00
2.271819330423901828e+00
2.248756126590777171e+00
2.248756126590777171e+00
2.248756126590777171e+00
2.248756126590777171e+00
2.194941984313486305e+00
2.194941984313486305e+00
2.194941984313486305e+00
2.181441572313608468e+00
2.181441572313608468e+00
2.181441572313608468e+00
2.221942808313242423e+00
2.221942808313242423e+00
2.221942808313242423e+00
2.221942808313242423e+00
2.239943357646412725e+00
2.239943357646412725e+00
2.239943357646412725e+00
2.295257545701467894e+00
2.295257545701467894e+00
2.295257545701467894e+00
2.333883724478896582e+00
2.333883724478896582e+00
2.333883724478896582e+00
2.333883724478896582e+00
2.351134250923184954e+00
2.351134250923184954e+00
2.351134250923184954e+00
2.403073335978270997e+00
2.403073335978270997e+00
2.403073335978270997e+00
2.384885280922879769e+00
2.384885280922879769e+00
2.384885280922879769e+00
2.384885280922879769e+00
2.349259193700979687e+00
2.349259193700979687e+00
2.349259193700979687e+00
2.411511093478194478e+00
2.411511093478194478e+00
2.411511093478194478e+00
2.334446241645558029e+00
2.334446241645558029e+00
2.334446241645558029e+00
2.334446241645558029e+00
2.266569170201727434e+00
2.266569170201727434e+00
2.266569170201727434e+00
2.242005920590838475e+00
2.242005920590838475e+00
2.242005920590838475e+00
2.182754112369151844e+00
2.182754112369151844e+00
2.182754112369151844e+00
2.182754112369151844e+00
2.186316721091342341e+00
2.186316721091342341e+00
2.186316721091342341e+00
2.223630359813226764e+00
2.223630359813226764e+00
2.223630359813226764e+00
2.245756035035248566e+00
2.245756035035248566e+00
2.245756035035248566e+00
2.245756035035248566e+00
2.317008209479048730e+00
2.317008209479048730e+00
2.317008209479048730e+00
2.349446699423200169e+00
2.349446699423200169e+00
2.349446699423200169e+00
2.370259834589678594e+00
2.370259834589678594e+00
2.370259834589678594e+00
2.370259834589678594e+00
2.412636127811517817e+00
2.412636127811517817e+00
2.412636127811517817e+00
2.373072420422986717e+00
2.373072420422986717e+00
2.373072420422986717e+00
2.373072420422986717e+00
2.368009765923032361e+00
2.368009765923032361e+00
2.368009765923032361e+00
2.413761162144840711e+00
2.413761162144840711e+00
2.413761162144840711e+00
2.301445234534745587e+00
2.301445234534745587e+00
2.301445234534745587e+00
2.301445234534745587e+00
2.257381389812921579e+00
2.257381389812921579e+00
2.257381389812921579e+00
2.219505233924375265e+00
2.219505233924375265e+00
2.219505233924375265e+00
2.179566515091402756e+00
2.179566515091402756e+00
2.179566515091402756e+00
2.179566515091402756e+00
2.202629718924527857e+00
2.202629718924527857e+00
2.202629718924527857e+00
2.228318002868740155e+00
2.228318002868740155e+00
2.228318002868740155e+00
2.267881710257271255e+00
2.267881710257271255e+00
2.267881710257271255e+00
2.267881710257271255e+00
2.328446058534500818e+00
2.328446058534500818e+00
2.328446058534500818e+00
2.343259010589922919e+00
2.343259010589922919e+00
2.343259010589922919e+00
2.383385235145115466e+00
2.383385235145115466e+00
2.383385235145115466e+00
2.383385235145115466e+00
2.430261665700247153e+00
2.430261665700247153e+00
2.430261665700247153e+00
2.356009399700918827e+00
2.356009399700918827e+00
2.356009399700918827e+00
2.387697866756187448e+00
2.387697866756187448e+00
2.387697866756187448e+00
2.387697866756187448e+00
2.385447798089541660e+00
2.385447798089541660e+00
2.385447798089541660e+00
2.282507156590471986e+00
2.282507156590471986e+00
2.282507156590471986e+00
2.249506149479659545e+00
2.249506149479659545e+00
2.249506149479659545e+00
2.249506149479659545e+00
2.197379558702353020e+00
2.197379558702353020e+00
2.197379558702353020e+00
2.179191503646961792e+00
2.179191503646961792e+00
2.179191503646961792e+00
2.203942258980071234e+00
2.203942258980071234e+00
2.203942258980071234e+00
2.203942258980071234e+00
2.226067934202093479e+00
2.226067934202093479e+00
2.226067934202093479e+00
2.278757042146061895e+00
2.278757042146061895e+00
2.278757042146061895e+00
2.329008575701162709e+00
2.329008575701162709e+00
2.329008575701162709e+00
2.329008575701162709e+00
2.336696310312204705e+00
2.336696310312204705e+00
2.336696310312204705e+00
2.407573473311563461e+00
2.407573473311563461e+00
2.407573473311563461e+00
2.404198370311593891e+00
2.404198370311593891e+00
2.404198370311593891e+00
2.404198370311593891e+00
2.354884365367595489e+00
2.354884365367595489e+00
2.354884365367595489e+00
2.421636402478102745e+00
2.421636402478102745e+00
2.421636402478102745e+00
2.356759422589800756e+00
2.356759422589800756e+00
2.356759422589800756e+00
2.356759422589800756e+00
2.265444135868404540e+00
2.265444135868404540e+00
2.265444135868404540e+00
2.242943449201941331e+00
2.242943449201941331e+00
2.242943449201941331e+00
2.213130039368877089e+00
2.213130039368877089e+00
2.213130039368877089e+00
2.213130039368877089e+00
2.180504043702505612e+00
2.180504043702505612e+00
2.180504043702505612e+00
2.224192876979888212e+00
2.224192876979888212e+00
2.224192876979888212e+00
2.247068575090792386e+00
2.247068575090792386e+00
2.247068575090792386e+00
2.247068575090792386e+00
2.297320108645893644e+00
2.297320108645893644e+00
2.297320108645893644e+00
2.333508713034455617e+00
2.333508713034455617e+00
2.333508713034455617e+00
2.363509628589739453e+00
2.363509628589739453e+00
2.363509628589739453e+00
2.363509628589739453e+00
2.417323770867030763e+00
2.417323770867030763e+00
2.417323770867030763e+00
2.371009857478560967e+00
2.371009857478560967e+00
2.371009857478560967e+00
2.347571642200994901e+00
2.347571642200994901e+00
2.347571642200994901e+00
2.347571642200994901e+00
2.412448622089296890e+00
2.412448622089296890e+00
2.412448622089296890e+00
2.317195715201269657e+00
2.317195715201269657e+00
2.317195715201269657e+00
2.317195715201269657e+00
2.260381481368449741e+00
2.260381481368449741e+00
2.260381481368449741e+00
2.232068117313150690e+00
2.232068117313150690e+00
2.232068117313150690e+00
2.175253883480330774e+00
2.175253883480330774e+00
2.175253883480330774e+00
2.175253883480330774e+00
2.188004272591326682e+00
2.188004272591326682e+00
2.188004272591326682e+00
2.218755211035493335e+00
2.218755211035493335e+00
2.218755211035493335e+00
2.261319009979552597e+00
2.261319009979552597e+00
2.261319009979552597e+00
2.261319009979552597e+00
2.321320841090121156e+00
2.321320841090121156e+00
2.321320841090121156e+00
2.342696493423261028e+00
2.342696493423261028e+00
2.342696493423261028e+00
2.379260109256263966e+00
2.379260109256263966e+00
2.379260109256263966e+00
2.379260109256263966e+00
2.425386516922513280e+00
2.425386516922513280e+00
2.425386516922513280e+00
2.377572557756279181e+00
2.377572557756279181e+00
2.377572557756279181e+00
2.382822717978454019e+00
2.382822717978454019e+00
2.382822717978454019e+00
2.401573290200506694e+00
2.401573290200506694e+00
2.401573290200506694e+00
2.401573290200506694e+00
2.288507339701529197e+00
2.288507339701529197e+00
2.288507339701529197e+00
2.249693655201880027e+00
2.249693655201880027e+00
2.249693655201880027e+00
2.249693655201880027e+00
2.205817316202276945e+00
2.205817316202276945e+00
2.205817316202276945e+00
2.167003631702627775e+00
2.167003631702627775e+00
2.167003631702627775e+00
2.205067293313394572e+00
2.205067293313394572e+00
2.205067293313394572e+00
2.205067293313394572e+00
2.232630634479812137e+00
2.232630634479812137e+00
2.232630634479812137e+00
2.279507065034943825e+00
2.279507065034943825e+00
2.279507065034943825e+00
2.332383678701132279e+00
2.332383678701132279e+00
2.332383678701132279e+00
2.332383678701132279e+00
2.346446607867672007e+00
2.346446607867672007e+00
2.346446607867672007e+00
2.395760612811670409e+00
2.395760612811670409e+00
2.395760612811670409e+00
2.410011047700430176e+00
2.410011047700430176e+00
2.410011047700430176e+00
2.410011047700430176e+00
2.361634571367534630e+00
2.361634571367534630e+00
2.361634571367534630e+00
2.406448438978240567e+00
2.406448438978240567e+00
2.406448438978240567e+00
2.367634754478591397e+00
2.367634754478591397e+00
2.367634754478591397e+00
2.268444227423932702e+00
2.268444227423932702e+00
2.268444227423932702e+00
2.268444227423932702e+00
2.247256080813012868e+00
2.247256080813012868e+00
2.247256080813012868e+00
2.191004364146854844e+00
2.191004364146854844e+00
2.191004364146854844e+00
2.191004364146854844e+00
2.177503952146977007e+00
2.177503952146977007e+00
2.177503952146977007e+00
2.221755302591021497e+00
2.221755302591021497e+00
2.221755302591021497e+00
2.244443494979705633e+00
2.244443494979705633e+00
2.244443494979705633e+00
2.244443494979705633e+00
2.298820154423657947e+00
2.298820154423657947e+00
2.298820154423657947e+00
2.341571459089938134e+00
2.341571459089938134e+00
2.341571459089938134e+00
2.347759147923215384e+00
2.347759147923215384e+00
2.347759147923215384e+00
2.347759147923215384e+00
2.398573198644978088e+00
2.398573198644978088e+00
2.398573198644978088e+00
2.382072695089572090e+00
2.382072695089572090e+00
2.382072695089572090e+00
2.342508987701040546e+00
2.342508987701040546e+00
2.342508987701040546e+00
2.342508987701040546e+00
2.410198553422650658e+00
2.410198553422650658e+00
2.410198553422650658e+00
2.326571001312295994e+00
2.326571001312295994e+00
2.326571001312295994e+00
2.256631366924039650e+00
2.256631366924039650e+00
2.256631366924039650e+00
2.256631366924039650e+00
2.236943266090884119e+00
2.236943266090884119e+00
2.236943266090884119e+00
2.187629261146885273e+00
2.187629261146885273e+00
2.187629261146885273e+00
2.198879604480116878e+00
2.198879604480116878e+00
2.198879604480116878e+00
2.198879604480116878e+00
2.232630634479812137e+00
2.232630634479812137e+00
2.232630634479812137e+00
2.258693929868464956e+00
2.258693929868464956e+00
2.258693929868464956e+00
2.313820612201300086e+00
2.313820612201300086e+00
2.313820612201300086e+00
2.313820612201300086e+00
2.350759239478743989e+00
2.350759239478743989e+00
2.350759239478743989e+00
2.373072420422986717e+00
2.373072420422986717e+00
2.373072420422986717e+00
2.413386150700399746e+00
2.413386150700399746e+00
2.413386150700399746e+00
2.413386150700399746e+00
2.371759880367442896e+00
2.371759880367442896e+00
2.371759880367442896e+00
2.371947386089663379e+00
2.371947386089663379e+00
2.371947386089663379e+00
2.413573656422620228e+00
2.413573656422620228e+00
2.413573656422620228e+00
2.413573656422620228e+00
2.298070131534776017e+00
2.298070131534776017e+00
2.298070131534776017e+00
2.251193700979644330e+00
2.251193700979644330e+00
2.251193700979644330e+00
2.251193700979644330e+00
2.217255165257729033e+00
2.217255165257729033e+00
2.217255165257729033e+00
2.178253975035859380e+00
2.178253975035859380e+00
2.178253975035859380e+00
2.203567247535630269e+00
2.203567247535630269e+00
2.203567247535630269e+00
2.234880703146458369e+00
2.234880703146458369e+00
2.234880703146458369e+00
2.234880703146458369e+00
2.276881984923856628e+00
2.276881984923856628e+00
2.276881984923856628e+00
2.327321024201178368e+00
2.327321024201178368e+00
2.327321024201178368e+00
2.343071504867702437e+00
2.343071504867702437e+00
2.343071504867702437e+00
2.343071504867702437e+00
2.383947752311777357e+00
2.383947752311777357e+00
2.383947752311777357e+00
2.410948576311533031e+00
2.410948576311533031e+00
2.410948576311533031e+00
2.410948576311533031e+00
2.370259834589678594e+00
2.370259834589678594e+00
2.370259834589678594e+00
2.395573107089449927e+00
2.395573107089449927e+00
2.395573107089449927e+00
2.382447706534013054e+00
2.382447706534013054e+00
2.382447706534013054e+00
2.382447706534013054e+00
2.268631733146153184e+00
2.268631733146153184e+00
2.268631733146153184e+00
2.251943723868526259e+00
2.251943723868526259e+00
2.251943723868526259e+00
2.200379650257881181e+00
2.200379650257881181e+00
2.200379650257881181e+00
2.200379650257881181e+00
2.173191320535905025e+00
2.173191320535905025e+00
2.173191320535905025e+00
2.212192510757774677e+00
2.212192510757774677e+00
2.212192510757774677e+00
2.234505691702016961e+00
2.234505691702016961e+00
2.234505691702016961e+00
2.234505691702016961e+00
2.288882351145970162e+00
2.288882351145970162e+00
2.288882351145970162e+00
2.341946470534379099e+00
2.341946470534379099e+00
2.341946470534379099e+00
2.356759422589800756e+00
2.356759422589800756e+00
2.356759422589800756e+00
2.356759422589800756e+00
2.402323313089388623e+00
2.402323313089388623e+00
2.402323313089388623e+00
2.399510727256080500e+00
2.399510727256080500e+00
2.399510727256080500e+00
2.353571825312051669e+00
2.353571825312051669e+00
2.353571825312051669e+00
2.353571825312051669e+00
2.416948759422589799e+00
2.416948759422589799e+00
2.416948759422589799e+00
2.351884273812066883e+00
2.351884273812066883e+00
2.351884273812066883e+00
2.263944090090640238e+00
2.263944090090640238e+00
2.263944090090640238e+00
2.263944090090640238e+00
2.240130863368633207e+00
2.240130863368633207e+00
2.240130863368633207e+00
2.183879146702475182e+00
2.183879146702475182e+00
2.183879146702475182e+00
2.182754112369151844e+00
2.182754112369151844e+00
2.182754112369151844e+00
2.182754112369151844e+00
2.223067842646564873e+00
2.223067842646564873e+00
2.223067842646564873e+00
2.253443769646290562e+00
2.253443769646290562e+00
2.253443769646290562e+00
2.312695577867977192e+00
2.312695577867977192e+00
2.312695577867977192e+00
2.312695577867977192e+00
2.342133976256599581e+00
2.342133976256599581e+00
2.342133976256599581e+00
2.355071871089815971e+00
2.355071871089815971e+00
2.355071871089815971e+00
2.408511001922666317e+00
2.408511001922666317e+00
2.408511001922666317e+00
2.408511001922666317e+00
2.380385143589587305e+00
2.380385143589587305e+00
2.380385143589587305e+00
2.361634571367534630e+00
2.361634571367534630e+00
2.361634571367534630e+00
2.414698690755943566e+00
2.414698690755943566e+00
2.414698690755943566e+00
2.414698690755943566e+00
2.307070406201360946e+00
2.307070406201360946e+00
2.307070406201360946e+00
2.249506149479659545e+00
2.249506149479659545e+00
2.249506149479659545e+00
2.216692648091067142e+00
2.216692648091067142e+00
2.216692648091067142e+00
2.216692648091067142e+00
2.167003631702627775e+00
2.167003631702627775e+00
2.167003631702627775e+00
2.182379100924710880e+00
2.182379100924710880e+00
2.182379100924710880e+00
2.215380108035523765e+00
2.215380108035523765e+00
2.215380108035523765e+00
2.215380108035523765e+00
2.260568987090670667e+00
2.260568987090670667e+00
2.260568987090670667e+00
2.317945738090151586e+00
2.317945738090151586e+00
2.317945738090151586e+00
2.342133976256599581e+00
2.342133976256599581e+00
2.342133976256599581e+00
2.342133976256599581e+00
2.374384960478530537e+00
2.374384960478530537e+00
2.374384960478530537e+00
2.414511185033723084e+00
2.414511185033723084e+00
2.414511185033723084e+00
2.369134800256355700e+00
2.369134800256355700e+00
2.369134800256355700e+00
2.369134800256355700e+00
2.392010498367259874e+00
2.392010498367259874e+00
2.392010498367259874e+00
2.413011139255958781e+00
2.413011139255958781e+00
2.413011139255958781e+00
2.301070223090304623e+00
2.301070223090304623e+00
2.301070223090304623e+00
2.301070223090304623e+00
2.256256355479598685e+00
2.256256355479598685e+00
2.256256355479598685e+00
2.205629810480056463e+00
2.205629810480056463e+00
2.205629810480056463e+00
2.168691183202612560e+00
2.168691183202612560e+00
2.168691183202612560e+00
2.168691183202612560e+00
2.200754661702322146e+00
2.200754661702322146e+00
2.200754661702322146e+00
2.222692831202123909e+00
2.222692831202123909e+00
2.222692831202123909e+00
2.222692831202123909e+00
2.269756767479476078e+00
2.269756767479476078e+00
2.269756767479476078e+00
2.329571092867824156e+00
2.329571092867824156e+00
2.329571092867824156e+00
2.355634388256477418e+00
2.355634388256477418e+00
2.355634388256477418e+00
2.406073427533799602e+00
2.406073427533799602e+00
2.406073427533799602e+00
2.406073427533799602e+00
2.413761162144840711e+00
2.413761162144840711e+00
2.413761162144840711e+00
2.366884731589709023e+00
2.366884731589709023e+00
2.366884731589709023e+00
2.366884731589709023e+00
2.416948759422589799e+00
2.416948759422589799e+00
2.416948759422589799e+00
2.370072328867458111e+00
2.370072328867458111e+00
2.370072328867458111e+00
2.266381664479506952e+00
2.266381664479506952e+00
2.266381664479506952e+00
2.266381664479506952e+00
2.248756126590777171e+00
2.248756126590777171e+00
2.248756126590777171e+00
2.192691915646840073e+00
2.192691915646840073e+00
2.192691915646840073e+00
2.170378734702597345e+00
2.170378734702597345e+00
2.170378734702597345e+00
2.170378734702597345e+00
2.214442579424420909e+00
2.214442579424420909e+00
2.214442579424420909e+00
2.240693380535294654e+00
2.240693380535294654e+00
2.240693380535294654e+00
2.298632648701437464e+00
2.298632648701437464e+00
2.298632648701437464e+00
2.298632648701437464e+00
2.335946287423322332e+00
2.335946287423322332e+00
2.335946287423322332e+00
2.345884090701010116e+00
2.345884090701010116e+00
2.345884090701010116e+00
2.397635670033875677e+00
2.397635670033875677e+00
2.397635670033875677e+00
2.397635670033875677e+00
2.389010406811731269e+00
2.389010406811731269e+00
2.389010406811731269e+00
2.369134800256355700e+00
2.369134800256355700e+00
2.369134800256355700e+00
2.437574388866847741e+00
2.437574388866847741e+00
2.437574388866847741e+00
2.437574388866847741e+00
2.338383861812189490e+00
2.338383861812189490e+00
2.338383861812189490e+00
2.258506424146244473e+00
2.258506424146244473e+00
2.258506424146244473e+00
2.229818048646504014e+00
2.229818048646504014e+00
2.229818048646504014e+00
2.229818048646504014e+00
2.172441297647023095e+00
2.172441297647023095e+00
2.172441297647023095e+00
2.183879146702475182e+00
2.183879146702475182e+00
2.183879146702475182e+00
2.218942716757713818e+00
2.218942716757713818e+00
2.218942716757713818e+00
2.218942716757713818e+00
2.244818506424146598e+00
2.244818506424146598e+00
2.244818506424146598e+00
2.309507980590228104e+00
2.309507980590228104e+00
2.309507980590228104e+00
2.344196539201025331e+00
2.344196539201025331e+00
2.344196539201025331e+00
2.344196539201025331e+00
2.375134983367412023e+00
2.375134983367412023e+00
2.375134983367412023e+00
2.421073885311441742e+00
2.421073885311441742e+00
2.421073885311441742e+00
2.374197454756310055e+00
2.374197454756310055e+00
2.374197454756310055e+00
2.374197454756310055e+00
2.372697408978545752e+00
2.372697408978545752e+00
2.372697408978545752e+00
2.409261024811548246e+00
2.409261024811548246e+00
2.409261024811548246e+00
2.298445142979216982e+00
2.298445142979216982e+00
2.298445142979216982e+00
2.298445142979216982e+00
2.256818872646260132e+00
2.256818872646260132e+00
2.256818872646260132e+00
2.226630451368755370e+00
2.226630451368755370e+00
2.226630451368755370e+00
2.187254249702444309e+00
2.187254249702444309e+00
2.187254249702444309e+00
2.187254249702444309e+00
2.210129947813348927e+00
2.210129947813348927e+00
2.210129947813348927e+00
2.233193151646474028e+00
2.233193151646474028e+00
2.233193151646474028e+00
2.273881893368328022e+00
2.273881893368328022e+00
2.273881893368328022e+00
2.273881893368328022e+00
2.330321115756706529e+00
2.330321115756706529e+00
2.330321115756706529e+00
2.345134067812128187e+00
2.345134067812128187e+00
2.345134067812128187e+00
2.381697683645130681e+00
2.381697683645130681e+00
2.381697683645130681e+00
2.381697683645130681e+00
2.395573107089449927e+00
2.395573107089449927e+00
2.395573107089449927e+00
2.343821527756584366e+00
2.343821527756584366e+00
2.343821527756584366e+00
2.343821527756584366e+00
2.395010589922788480e+00
2.395010589922788480e+00
2.395010589922788480e+00
2.388635395367290304e+00
2.388635395367290304e+00
2.388635395367290304e+00
2.274444410534989469e+00
2.274444410534989469e+00
2.274444410534989469e+00
2.274444410534989469e+00
2.240318369090853690e+00
2.240318369090853690e+00
2.240318369090853690e+00
2.184441663869136629e+00
2.184441663869136629e+00
2.184441663869136629e+00
2.166066103091524919e+00
2.166066103091524919e+00
2.166066103091524919e+00
2.166066103091524919e+00
2.219505233924375265e+00
2.219505233924375265e+00
2.219505233924375265e+00
2.236005737479781263e+00
2.236005737479781263e+00
2.236005737479781263e+00
2.280632099368266719e+00
2.280632099368266719e+00
2.280632099368266719e+00
2.280632099368266719e+00
2.332758690145573244e+00
2.332758690145573244e+00
2.332758690145573244e+00
2.347946653645436310e+00
2.347946653645436310e+00
2.347946653645436310e+00
2.408323496200445835e+00
2.408323496200445835e+00
2.408323496200445835e+00
2.395760612811670409e+00
2.395760612811670409e+00
2.395760612811670409e+00
2.355259376812036454e+00
2.355259376812036454e+00
2.355259376812036454e+00
2.355259376812036454e+00
2.423136448255867048e+00
2.423136448255867048e+00
2.423136448255867048e+00
2.344384044923245813e+00
2.344384044923245813e+00
2.344384044923245813e+00
2.266194158757286470e+00
2.266194158757286470e+00
2.266194158757286470e+00
2.266194158757286470e+00
2.239380840479750834e+00
2.239380840479750834e+00
2.239380840479750834e+00
2.188004272591326682e+00
2.188004272591326682e+00
2.188004272591326682e+00
2.188004272591326682e+00
2.188941801202429094e+00
2.188941801202429094e+00
2.188941801202429094e+00
2.222505325479903426e+00
2.222505325479903426e+00
2.222505325479903426e+00
2.239005829035309869e+00
2.239005829035309869e+00
2.239005829035309869e+00
2.287194799645985377e+00
2.287194799645985377e+00
2.287194799645985377e+00
2.287194799645985377e+00
2.332758690145573244e+00
2.332758690145573244e+00
2.332758690145573244e+00
2.355259376812036454e+00
2.355259376812036454e+00
2.355259376812036454e+00
2.355259376812036454e+00
2.417511276589251690e+00
2.417511276589251690e+00
2.417511276589251690e+00
2.392948026978362286e+00
2.392948026978362286e+00
2.392948026978362286e+00
2.368009765923032361e+00
2.368009765923032361e+00
2.368009765923032361e+00
2.368009765923032361e+00
2.428386608478041886e+00
2.428386608478041886e+00
2.428386608478041886e+00
2.320383312479018745e+00
2.320383312479018745e+00
2.320383312479018745e+00
2.252693746757408633e+00
2.252693746757408633e+00
2.252693746757408633e+00
2.252693746757408633e+00
2.211442487868892304e+00
2.211442487868892304e+00
2.211442487868892304e+00
2.160065919980468152e+00
2.160065919980468152e+00
2.160065919980468152e+00
2.172628803369243577e+00
2.172628803369243577e+00
2.172628803369243577e+00
2.172628803369243577e+00
2.199254615924558287e+00
2.199254615924558287e+00
2.199254615924558287e+00
2.229630542924283532e+00
2.229630542924283532e+00
2.229630542924283532e+00
2.292819971312600735e+00
2.292819971312600735e+00
2.292819971312600735e+00
2.292819971312600735e+00
2.338571367534409973e+00
2.338571367534409973e+00
2.338571367534409973e+00
2.392760521256141804e+00
2.392760521256141804e+00
2.392760521256141804e+00
2.433261757255775315e+00
2.433261757255775315e+00
2.433261757255775315e+00
2.433261757255775315e+00
2.381322672200689716e+00
2.381322672200689716e+00
2.381322672200689716e+00
2.398010681478316641e+00
2.398010681478316641e+00
2.398010681478316641e+00
2.415448713644825496e+00
2.415448713644825496e+00
2.415448713644825496e+00
2.415448713644825496e+00
2.315320657979064389e+00
2.315320657979064389e+00
2.315320657979064389e+00
2.287194799645985377e+00
2.287194799645985377e+00
2.287194799645985377e+00
2.231505600146489243e+00
2.231505600146489243e+00
2.231505600146489243e+00
2.175253883480330774e+00
2.175253883480330774e+00
2.177128940702536042e+00
2.177128940702536042e+00
2.176753929258095077e+00
2.176753929258095077e+00
2.176753929258095077e+00
2.211817499313333268e+00
2.211817499313333268e+00
2.259256447035126847e+00
2.259256447035126847e+00
2.281944639423810539e+00
2.281944639423810539e+00
2.339133884701071420e+00
2.339133884701071420e+00
2.344759056367687222e+00
2.344759056367687222e+00
2.306507889034699499e+00
2.306507889034699499e+00
2.399323221533860018e+00
2.399323221533860018e+00
2.407385967589342979e+00
2.407385967589342979e+00
2.407385967589342979e+00
2.313633106479079604e+00
2.313633106479079604e+00
2.268631733146153184e+00
2.268631733146153184e+00
2.179566515091402756e+00
2.179566515091402756e+00
2.157440839869380955e+00
2.157440839869380955e+00
2.204317270424512643e+00
2.204317270424512643e+00
2.225317911313211550e+00
2.225317911313211550e+00
2.266381664479506952e+00
2.266381664479506952e+00
2.309507980590228104e+00
2.309507980590228104e+00
2.325445966978973100e+00
2.325445966978973100e+00
2.325445966978973100e+00
2.398198187200537124e+00
2.398198187200537124e+00
2.390510452589495571e+00
2.390510452589495571e+00
2.349821710867641578e+00
2.349821710867641578e+00
2.415823725089266905e+00
2.415823725089266905e+00
2.338946378978850937e+00
2.338946378978850937e+00
2.283069673757133433e+00
2.283069673757133433e+00
2.227755485702078264e+00
2.227755485702078264e+00
2.148628070925016065e+00
2.148628070925016065e+00
2.148628070925016065e+00
2.133815118869594407e+00
2.133815118869594407e+00
2.155565782647175688e+00
2.155565782647175688e+00
2.188941801202429094e+00
2.188941801202429094e+00
2.266569170201727434e+00
2.266569170201727434e+00
2.319633289590136371e+00
2.319633289590136371e+00
2.358821985534226506e+00
2.358821985534226506e+00
2.421823908200323228e+00
2.421823908200323228e+00
2.403635853144932444e+00
2.403635853144932444e+00
2.403635853144932444e+00
2.410573564867091623e+00
2.410573564867091623e+00
2.385072786645100695e+00
2.385072786645100695e+00
2.149940610980559885e+00
2.149940610980559885e+00
2.012686422315133949e+00
2.012686422315133949e+00
1.978185369426557427e+00
1.978185369426557427e+00
1.976685323648793124e+00
1.976685323648793124e+00
2.038187200537125765e+00
2.038187200537125765e+00
2.125377361369670925e+00
2.125377361369670925e+00
2.125377361369670925e+00
2.246318552201910457e+00
2.246318552201910457e+00
2.396323129978331856e+00
2.396323129978331856e+00
2.494951139866329104e+00
2.494951139866329104e+00
2.597891781365397890e+00
2.597891781365397890e+00
2.623017548142948741e+00
2.623017548142948741e+00
2.524952055421613384e+00
2.524952055421613384e+00
2.554952970976897664e+00
2.554952970976897664e+00
2.501701345866268245e+00
2.501701345866268245e+00
2.348509170812097757e+00
2.348509170812097757e+00
2.348509170812097757e+00
2.262256538590655452e+00
2.262256538590655452e+00
2.185566698202459968e+00
2.185566698202459968e+00
2.181066560869167059e+00
2.181066560869167059e+00
2.242005920590838475e+00
2.242005920590838475e+00
2.249131138035218136e+00
2.249131138035218136e+00
2.203192236091189304e+00
2.203192236091189304e+00
2.150878139591662741e+00
2.150878139591662741e+00
2.147690542313913653e+00
2.147690542313913653e+00
2.208442396313364142e+00
2.208442396313364142e+00
2.208442396313364142e+00
2.268069215979491737e+00
2.268069215979491737e+00
2.341946470534379099e+00
2.341946470534379099e+00
2.497763725699636783e+00
2.497763725699636783e+00
2.472637958922086376e+00
2.472637958922086376e+00
2.387697866756187448e+00
2.387697866756187448e+00
2.340071413312173831e+00
2.340071413312173831e+00
2.283444685201574842e+00
2.283444685201574842e+00
2.281194616534928166e+00
2.281194616534928166e+00
2.281194616534928166e+00
2.324320932645649762e+00
2.324320932645649762e+00
2.326758507034516477e+00
2.326758507034516477e+00
2.350759239478743989e+00
2.350759239478743989e+00
2.356759422589800756e+00
2.356759422589800756e+00
2.378135074922940628e+00
2.378135074922940628e+00
2.406823450422681532e+00
2.406823450422681532e+00
2.323945921201208797e+00
2.323945921201208797e+00
2.323945921201208797e+00
2.244255989257484707e+00
2.244255989257484707e+00
2.273694387646107540e+00
2.273694387646107540e+00
2.163628528702658205e+00
2.163628528702658205e+00
2.097439008758812395e+00
2.097439008758812395e+00
2.042124820703756782e+00
2.042124820703756782e+00
2.011373882259590129e+00
2.011373882259590129e+00
2.091251319925535146e+00
2.091251319925535146e+00
2.185941709646900932e+00
2.185941709646900932e+00
2.292257454145939732e+00
2.292257454145939732e+00
2.292257454145939732e+00
2.407573473311563461e+00
2.407573473311563461e+00
2.483325785088656090e+00
2.483325785088656090e+00
2.562078188421277325e+00
2.562078188421277325e+00
2.607642078920865636e+00
2.607642078920865636e+00
2.575016083254493715e+00
2.575016083254493715e+00
2.564703268532364966e+00
2.564703268532364966e+00
2.494388622699667213e+00
2.494388622699667213e+00
2.312695577867977192e+00
2.312695577867977192e+00
2.312695577867977192e+00
2.242755943479720404e+00
2.242755943479720404e+00
2.191191869869075770e+00
2.191191869869075770e+00
2.187816766869105756e+00
2.187816766869105756e+00
2.240880886257515137e+00
2.240880886257515137e+00
2.231130588702047834e+00
2.231130588702047834e+00
2.212192510757774677e+00
2.212192510757774677e+00
2.235255714590899334e+00
2.235255714590899334e+00
2.263194067201757864e+00
2.263194067201757864e+00
2.320383312479018745e+00
2.320383312479018745e+00
2.330696127201147494e+00
2.330696127201147494e+00
2.330696127201147494e+00
2.270131778923917043e+00
2.270131778923917043e+00
2.299382671590319838e+00
2.299382671590319838e+00
2.290757408368175430e+00
2.290757408368175430e+00
2.233005645924253102e+00
2.233005645924253102e+00
2.275381939146092325e+00
2.275381939146092325e+00
2.185191686758019003e+00
2.185191686758019003e+00
2.199254615924558287e+00
2.199254615924558287e+00
2.291694936979278285e+00
2.291694936979278285e+00
2.291694936979278285e+00
2.345321573534348669e+00
2.345321573534348669e+00
2.408135990478225352e+00
2.408135990478225352e+00
2.489138462477492819e+00
2.489138462477492819e+00
2.525889584032716240e+00
2.525889584032716240e+00
2.530202215643787778e+00
2.530202215643787778e+00
2.395760612811670409e+00
2.395760612811670409e+00
2.308570451979125249e+00
2.308570451979125249e+00
2.305945371868038052e+00
2.305945371868038052e+00
2.131752555925168657e+00
2.131752555925168657e+00
2.131752555925168657e+00
2.005936216315195253e+00
2.005936216315195253e+00
1.938809167760246588e+00
1.938809167760246588e+00
1.854431592761009551e+00
1.854431592761009551e+00
1.961309854426709798e+00
1.961309854426709798e+00
2.152003173924985191e+00
2.152003173924985191e+00
2.245943540757469048e+00
2.245943540757469048e+00
2.314758140812402942e+00
2.314758140812402942e+00
2.368572283089693808e+00
2.368572283089693808e+00
2.368572283089693808e+00
2.503763908810693550e+00
2.503763908810693550e+00
2.623017548142948741e+00
2.623017548142948741e+00
2.586266426587725320e+00
2.586266426587725320e+00
2.531139744254890633e+00
2.531139744254890633e+00
2.537702444532609292e+00
2.537702444532609292e+00
2.394823084200567997e+00
2.394823084200567997e+00
2.324508438367870244e+00
2.324508438367870244e+00
2.258318918424023991e+00
2.258318918424023991e+00
2.180504043702505612e+00
2.180504043702505612e+00
2.180504043702505612e+00
2.209942442091128445e+00
2.209942442091128445e+00
2.290569902645954947e+00
2.290569902645954947e+00
2.319445783867915889e+00
2.319445783867915889e+00
2.240318369090853690e+00
2.240318369090853690e+00
2.122377269814142320e+00
2.122377269814142320e+00
2.117127109591967482e+00
2.117127109591967482e+00
2.161003448591571008e+00
2.161003448591571008e+00
2.177878963591417971e+00
2.177878963591417971e+00
2.237693288979766049e+00
2.237693288979766049e+00
2.237693288979766049e+00
2.242568437757499922e+00
2.242568437757499922e+00
2.249318643757439062e+00
2.249318643757439062e+00
2.302382763145847999e+00
2.302382763145847999e+00
2.305945371868038052e+00
2.305945371868038052e+00
2.304257820368053267e+00
2.304257820368053267e+00
2.259443952757347329e+00
2.259443952757347329e+00
2.269944273201696561e+00
2.269944273201696561e+00
2.303132786034730373e+00
2.303132786034730373e+00
2.303132786034730373e+00
2.320008301034577336e+00
2.320008301034577336e+00
2.376447523422955843e+00
2.376447523422955843e+00
2.509014069032868388e+00
2.509014069032868388e+00
2.496076174199651998e+00
2.496076174199651998e+00
2.320195806756797818e+00
2.320195806756797818e+00
2.267506698812830290e+00
2.267506698812830290e+00
2.097251503036591469e+00
2.097251503036591469e+00
2.011936399426252020e+00
2.011936399426252020e+00
2.011936399426252020e+00
2.041937314981536300e+00
2.041937314981536300e+00
1.968060060426648716e+00
1.968060060426648716e+00
2.054125186925870761e+00
2.054125186925870761e+00
2.216317636646626177e+00
2.216317636646626177e+00
2.308945463423566213e+00
2.308945463423566213e+00
2.452949858088931290e+00
2.452949858088931290e+00
2.567890865810114054e+00
2.567890865810114054e+00
2.584766380809961461e+00
2.584766380809961461e+00
2.584766380809961461e+00
2.616454847865230526e+00
2.616454847865230526e+00
2.580078737754448071e+00
2.580078737754448071e+00
2.536952421643726918e+00
2.536952421643726918e+00
2.512201666310617476e+00
2.512201666310617476e+00
2.294882534257026929e+00
2.294882534257026929e+00
2.133440107425153442e+00
2.133440107425153442e+00
2.060312875759148010e+00
2.060312875759148010e+00
2.014373973815118735e+00
2.014373973815118735e+00
2.014373973815118735e+00
2.028811914426099428e+00
2.028811914426099428e+00
1.982310495315408927e+00
1.982310495315408927e+00
2.016624042481765411e+00
2.016624042481765411e+00
2.117502121036408447e+00
2.117502121036408447e+00
2.163066011535996758e+00
2.163066011535996758e+00
2.230005554368724940e+00
2.230005554368724940e+00
2.252131229590746742e+00
2.252131229590746742e+00
2.244255989257484707e+00
2.244255989257484707e+00
2.364634662923062791e+00
2.364634662923062791e+00
2.364634662923062791e+00
2.346259102145451525e+00
2.346259102145451525e+00
2.115627063814203623e+00
2.115627063814203623e+00
1.972560197759941625e+00
1.972560197759941625e+00
1.956622211371196629e+00
1.956622211371196629e+00
2.122939786980803767e+00
2.122939786980803767e+00
2.269006744590594149e+00
2.269006744590594149e+00
2.309320474868007622e+00
2.309320474868007622e+00
2.309320474868007622e+00
2.480325693533127485e+00
2.480325693533127485e+00
2.322445875423444495e+00
2.322445875423444495e+00
1.937871639149143954e+00
1.937871639149143954e+00
1.970122623371074688e+00
1.970122623371074688e+00
2.033499557481612818e+00
2.033499557481612818e+00
2.059375347148045154e+00
2.059375347148045154e+00
2.388072878200628413e+00
2.388072878200628413e+00
2.507139011810663121e+00
2.507139011810663121e+00
2.507139011810663121e+00
2.378697592089602519e+00
2.378697592089602519e+00
2.470012878810998735e+00
2.470012878810998735e+00
2.408698507644886799e+00
2.408698507644886799e+00
2.215380108035523765e+00
2.215380108035523765e+00
2.004998687704092397e+00
2.004998687704092397e+00
1.795179784539323142e+00
1.795179784539323142e+00
1.732740379039887646e+00
1.732740379039887646e+00
1.764803857539597898e+00
1.764803857539597898e+00
1.764803857539597898e+00
1.871119602038636476e+00
1.871119602038636476e+00
2.137190221869563977e+00
2.137190221869563977e+00
2.364822168645283273e+00
2.364822168645283273e+00
2.603329447309793654e+00
2.603329447309793654e+00
2.963902951139866460e+00
2.963902951139866460e+00
3.034405102694784251e+00
3.034405102694784251e+00
3.051093111972411620e+00
3.051093111972411620e+00
3.011529404583880076e+00
3.011529404583880076e+00
2.842961760307626928e+00
2.842961760307626928e+00
2.842961760307626928e+00
2.660331186864833608e+00
2.660331186864833608e+00
2.494763634144108178e+00
2.494763634144108178e+00
2.397260658589434712e+00
2.397260658589434712e+00
2.352259285256507848e+00
2.352259285256507848e+00
2.195316995757927270e+00
2.195316995757927270e+00
2.005561204870754288e+00
2.005561204870754288e+00
1.966185003204443671e+00
1.966185003204443671e+00
1.860056764427625353e+00
1.860056764427625353e+00
1.860056764427625353e+00
1.892870265816217534e+00
1.892870265816217534e+00
2.062562944425794242e+00
2.062562944425794242e+00
2.109251869258705447e+00
2.109251869258705447e+00
2.127064912869655711e+00
2.127064912869655711e+00
2.162128482924894346e+00
2.162128482924894346e+00
2.127439924314096675e+00
2.127439924314096675e+00
2.064813013092440475e+00
2.064813013092440475e+00
2.063312967314676172e+00
2.063312967314676172e+00
2.063312967314676172e+00
2.264694112979522167e+00
2.264694112979522167e+00
2.456324961088900860e+00
2.456324961088900860e+00
2.500951322977385871e+00
2.500951322977385871e+00
2.575391094698934680e+00
2.575391094698934680e+00
2.542202581865901756e+00
2.542202581865901756e+00
2.346259102145451525e+00
2.346259102145451525e+00
2.267319193090609808e+00
2.267319193090609808e+00
2.245006012146367080e+00
2.245006012146367080e+00
2.245006012146367080e+00
2.006498733481856700e+00
2.006498733481856700e+00
1.800992461928159427e+00
1.800992461928159427e+00
1.645737723929563190e+00
1.645737723929563190e+00
1.664113284707174900e+00
1.664113284707174900e+00
1.751115939817499356e+00
1.751115939817499356e+00
1.912933378093814030e+00
1.912933378093814030e+00
2.083938596758934114e+00
2.083938596758934114e+00
2.219505233924375265e+00
2.219505233924375265e+00
2.309320474868007622e+00
2.309320474868007622e+00
2.309320474868007622e+00
2.434011780144657688e+00
2.434011780144657688e+00
2.227567979979857782e+00
2.227567979979857782e+00
2.061812921536912313e+00
2.061812921536912313e+00
1.962059877315591949e+00
1.962059877315591949e+00
2.063687978759117581e+00
2.063687978759117581e+00
2.235068208868678852e+00
2.235068208868678852e+00
2.531139744254890633e+00
2.531139744254890633e+00
2.611579699087496653e+00
2.611579699087496653e+00
2.611579699087496653e+00
2.633142857142857007e+00
2.633142857142857007e+00
2.724833155308695076e+00
2.724833155308695076e+00
2.860587298196356265e+00
2.860587298196356265e+00
2.834899014252143967e+00
2.834899014252143967e+00
2.559078096865749163e+00
2.559078096865749163e+00
2.438511917477950597e+00
2.438511917477950597e+00
2.283257179479354360e+00
2.283257179479354360e+00
2.156128299813837135e+00
2.156128299813837135e+00
2.274444410534989469e+00
2.274444410534989469e+00
2.500951322977385871e+00
2.500951322977385871e+00
2.500951322977385871e+00
2.449574755088961275e+00
2.449574755088961275e+00
2.335946287423322332e+00
2.335946287423322332e+00
2.131002533036286284e+00
2.131002533036286284e+00
1.826493240150151021e+00
1.826493240150151021e+00
1.770054017761772513e+00
1.770054017761772513e+00
1.988123172704245212e+00
1.988123172704245212e+00
2.228130497146519229e+00
2.228130497146519229e+00
2.336508804589983779e+00
2.336508804589983779e+00
2.336508804589983779e+00
2.327696035645618888e+00
2.327696035645618888e+00
2.070813196203497242e+00
2.070813196203497242e+00
1.887432599871822214e+00
1.887432599871822214e+00
1.809430219428083131e+00
1.809430219428083131e+00
1.948934476760155077e+00
1.948934476760155077e+00
2.168691183202612560e+00
2.168691183202612560e+00
2.316820703756828248e+00
2.316820703756828248e+00
2.316820703756828248e+00
2.624142582476271635e+00
2.624142582476271635e+00
2.918714072084719557e+00
2.918714072084719557e+00
2.690332102420117888e+00
2.690332102420117888e+00
2.083001068147831703e+00
2.083001068147831703e+00
1.634674886318552289e+00
1.634674886318552289e+00
1.439668935209204248e+00
1.439668935209204248e+00
1.576735618152409479e+00
1.576735618152409479e+00
1.739303079317606082e+00
1.739303079317606082e+00
1.739303079317606082e+00
1.996560930204168693e+00
1.996560930204168693e+00
2.271819330423901828e+00
2.271819330423901828e+00
2.424073976866969904e+00
2.424073976866969904e+00
2.561515671254616322e+00
2.561515671254616322e+00
2.351321756645405436e+00
2.351321756645405436e+00
1.943684316537980239e+00
1.943684316537980239e+00
1.778679280983916922e+00
1.778679280983916922e+00
1.854619098483230255e+00
1.854619098483230255e+00
1.993935850093081497e+00
1.993935850093081497e+00
1.993935850093081497e+00
2.331633655812249906e+00
2.331633655812249906e+00
2.574453566087832268e+00
2.574453566087832268e+00
2.901651051362651668e+00
2.901651051362651668e+00
2.948339976195562873e+00
2.948339976195562873e+00
2.975715811639759512e+00
2.975715811639759512e+00
2.817835993530076077e+00
2.817835993530076077e+00
2.809585741752372634e+00
2.809585741752372634e+00
2.743396221808526825e+00
2.743396221808526825e+00
2.743396221808526825e+00
2.773584643086031587e+00
2.773584643086031587e+00
2.697269814142277511e+00
2.697269814142277511e+00
2.211817499313333268e+00
2.211817499313333268e+00
1.963747428815576734e+00
1.963747428815576734e+00
1.846181340983306329e+00
1.846181340983306329e+00
1.701051911984618803e+00
1.701051911984618803e+00
1.655675527207251418e+00
1.655675527207251418e+00
1.555922482985931055e+00
1.555922482985931055e+00
1.555922482985931055e+00
1.455044404431287575e+00
1.455044404431287575e+00
1.486732871486556640e+00
1.486732871486556640e+00
1.789367107150486857e+00
1.789367107150486857e+00
2.133440107425153442e+00
2.133440107425153442e+00
2.001623584704122827e+00
2.001623584704122827e+00
1.861556810205389434e+00
1.861556810205389434e+00
1.908433240760521121e+00
1.908433240760521121e+00
2.181441572313608468e+00
2.181441572313608468e+00
2.181441572313608468e+00
2.769272011474959605e+00
2.769272011474959605e+00
2.929964415417951162e+00
2.929964415417951162e+00
2.689769585253456441e+00
2.689769585253456441e+00
2.590016541032135855e+00
2.590016541032135855e+00
2.736271004364147164e+00
2.736271004364147164e+00
2.975153294473098065e+00
2.975153294473098065e+00
3.047718008972441606e+00
3.047718008972441606e+00
2.877650318918424155e+00
2.877650318918424155e+00
2.877650318918424155e+00
2.680019287697988695e+00
2.680019287697988695e+00
2.355259376812036454e+00
2.355259376812036454e+00
2.171316263313699757e+00
2.171316263313699757e+00
2.140940336313974068e+00
2.140940336313974068e+00
1.945934385204626693e+00
1.945934385204626693e+00
1.586860927152317746e+00
1.586860927152317746e+00
1.672926053651539791e+00
1.672926053651539791e+00
1.898495437482833337e+00
1.898495437482833337e+00
1.898495437482833337e+00
1.878057313760796099e+00
1.878057313760796099e+00
1.900745506149479791e+00
1.900745506149479791e+00
2.122377269814142320e+00
2.122377269814142320e+00
2.143190404980620745e+00
2.143190404980620745e+00
2.336883816034425188e+00
2.336883816034425188e+00
2.649455854976042968e+00
2.649455854976042968e+00
3.006841761528367130e+00
3.006841761528367130e+00
3.016592059083834432e+00
3.016592059083834432e+00
2.829461348307748647e+00
2.829461348307748647e+00
2.829461348307748647e+00
2.730458326975310435e+00
2.730458326975310435e+00
2.362384594256416559e+00
2.362384594256416559e+00
1.972185186315500438e+00
1.972185186315500438e+00
1.915370952482680744e+00
1.915370952482680744e+00
2.037437177648243392e+00
2.037437177648243392e+00
2.024686788537247928e+00
2.024686788537247928e+00
1.923058687093722297e+00
1.923058687093722297e+00
1.864931913205359004e+00
1.864931913205359004e+00
1.864931913205359004e+00
2.049062532425916405e+00
2.049062532425916405e+00
2.210317453535568966e+00
2.210317453535568966e+00
2.105314249092073986e+00
2.105314249092073986e+00
1.967497543259987047e+00
1.967497543259987047e+00
1.585735892818994852e+00
1.585735892818994852e+00
1.331478133487960402e+00
1.331478133487960402e+00
9.122153386028626354e-01
9.122153386028626354e-01
7.449602343821527528e-01
7.449602343821527528e-01
7.449602343821527528e-01
7.650233466597491372e-01
7.650233466597491372e-01
8.835269631031220650e-01
8.835269631031220650e-01
1.454106875820184941e+00
1.454106875820184941e+00
2.056187749870296511e+00
2.056187749870296511e+00
2.831711416974395323e+00
2.831711416974395323e+00
3.333851741080965603e+00
3.333851741080965603e+00
3.752177007354960736e+00
3.752177007354960736e+00
3.812553849909970705e+00
3.812553849909970705e+00
3.812553849909970705e+00
3.812553849909970705e+00
3.812553849909970705e+00
3.802991058076723885e+00
3.802991058076723885e+00
3.172784325693533081e+00
3.172784325693533081e+00
2.852899563585314713e+00
2.852899563585314713e+00
2.494013611255226248e+00
2.494013611255226248e+00
1.878244819483016581e+00
1.878244819483016581e+00
1.598673787652211020e+00
1.598673787652211020e+00
1.718114932706686693e+00
1.718114932706686693e+00
1.861181798760948691e+00
1.861181798760948691e+00
1.861181798760948691e+00
2.340258919034394314e+00
2.340258919034394314e+00
2.376635029145176325e+00
2.376635029145176325e+00
2.208254890591143660e+00
2.208254890591143660e+00
2.071938230536820580e+00
2.071938230536820580e+00
2.002748619037446165e+00
2.002748619037446165e+00
2.038562211981566730e+00
2.038562211981566730e+00
2.086001159703360308e+00
2.086001159703360308e+00
2.033312051759392336e+00
2.033312051759392336e+00
2.033312051759392336e+00
2.224005371257667729e+00
2.224005371257667729e+00
2.234693197424237443e+00
2.234693197424237443e+00
2.091251319925535146e+00
2.091251319925535146e+00
1.765178868984038862e+00
1.765178868984038862e+00
1.224599871822260155e+00
1.224599871822260155e+00
9.041525925473800074e-01
9.041525925473800074e-01
9.994054994354075738e-01
9.994054994354075738e-01
1.451481795709097522e+00
1.451481795709097522e+00
1.451481795709097522e+00
2.512576677755058441e+00
2.512576677755058441e+00
3.645861262855922380e+00
3.645861262855922380e+00
3.812553849909970705e+00
3.812553849909970705e+00
3.792303231910153727e+00
3.792303231910153727e+00
3.282475173192541451e+00
3.282475173192541451e+00
2.980403454695272902e+00
2.980403454695272902e+00
2.779209814752647389e+00
2.779209814752647389e+00
2.274069399090548504e+00
2.274069399090548504e+00
2.274069399090548504e+00
2.175066377758110736e+00
2.175066377758110736e+00
2.262256538590655452e+00
2.262256538590655452e+00
2.222692831202123909e+00
2.222692831202123909e+00
2.294132511368144556e+00
2.294132511368144556e+00
2.175816400646992221e+00
2.175816400646992221e+00
2.129877498702963390e+00
2.129877498702963390e+00
2.132502578814050587e+00
2.132502578814050587e+00
2.262819055757316900e+00
2.262819055757316900e+00
2.262819055757316900e+00
2.265069124423963132e+00
2.265069124423963132e+00
1.846743858149967998e+00
1.846743858149967998e+00
1.785804498428296805e+00
1.785804498428296805e+00
1.973497726371044036e+00
1.973497726371044036e+00
2.057875301370280852e+00
2.057875301370280852e+00
1.836431043427839027e+00
1.836431043427839027e+00
1.866056947538682342e+00
1.866056947538682342e+00
1.796304818872646480e+00
1.796304818872646480e+00
1.796304818872646480e+00
1.888370128482924848e+00
1.888370128482924848e+00
2.460637592699972398e+00
2.460637592699972398e+00
2.778459791863765460e+00
2.778459791863765460e+00
2.377760063478499664e+00
2.377760063478499664e+00
2.182566606646931362e+00
2.182566606646931362e+00
2.079063447981200685e+00
2.079063447981200685e+00
1.755991088595233007e+00
1.755991088595233007e+00
1.707052095095675570e+00
1.707052095095675570e+00
1.980060426648762473e+00
1.980060426648762473e+00
1.980060426648762473e+00
2.233005645924253102e+00
2.233005645924253102e+00
2.521951963866084778e+00
2.521951963866084778e+00
2.525327066866054349e+00
2.525327066866054349e+00
2.767584459974974820e+00
2.767584459974974820e+00
3.167534165471358687e+00
3.167534165471358687e+00
3.285287759025849130e+00
3.285287759025849130e+00
2.892088259529404404e+00
2.892088259529404404e+00
2.456512466811120898e+00
2.456512466811120898e+00
2.456512466811120898e+00
2.181629078035828950e+00
2.181629078035828950e+00
2.200942167424543072e+00
2.200942167424543072e+00
2.070438184759056277e+00
2.070438184759056277e+00
1.689051545762505047e+00
1.689051545762505047e+00
1.446794152653584353e+00
1.446794152653584353e+00
1.528171636097293007e+00
1.528171636097293007e+00
1.656238044373912643e+00
1.656238044373912643e+00
1.762178777428510257e+00
1.762178777428510257e+00
1.762178777428510257e+00
2.177503952146977007e+00
2.177503952146977007e+00
2.555702993865779593e+00
2.555702993865779593e+00
2.763459334086123320e+00
2.763459334086123320e+00
2.664831324198126516e+00
2.664831324198126516e+00
2.510514114810632691e+00
2.510514114810632691e+00
2.113376995147556947e+00
2.113376995147556947e+00
1.876369762260811314e+00
1.876369762260811314e+00
1.823305642872402155e+00
1.823305642872402155e+00
1.823305642872402155e+00
2.187254249702444309e+00
2.187254249702444309e+00
2.696144779808954173e+00
2.696144779808954173e+00
2.750333933530686004e+00
2.750333933530686004e+00
2.365384685811944721e+00
2.365384685811944721e+00
2.275006927701650916e+00
2.275006927701650916e+00
2.015686513870662555e+00
2.015686513870662555e+00
1.903183080538346506e+00
1.903183080538346506e+00
2.312133060701315301e+00
2.312133060701315301e+00
3.023342265083773128e+00
3.023342265083773128e+00
3.382978240302743522e+00
3.382978240302743522e+00
3.590734580523087249e+00
3.590734580523087249e+00
3.590734580523087249e+00
3.232223639637440193e+00
3.232223639637440193e+00
2.971778191473128494e+00
2.971778191473128494e+00
2.619454939420759132e+00
2.619454939420759132e+00
2.221567796868801015e+00
2.221567796868801015e+00
1.562297677541429008e+00
1.562297677541429008e+00
1.043844355601672547e+00
1.043844355601672547e+00
1.102346140934476804e+00
1.102346140934476804e+00
1.233037629322184081e+00
1.233037629322184081e+00
1.233037629322184081e+00
1.787304544206060886e+00
1.787304544206060886e+00
2.192504409924619146e+00
2.192504409924619146e+00
2.205817316202276945e+00
2.205817316202276945e+00
2.016811548203985893e+00
2.016811548203985893e+00
2.022624225592822178e+00
2.022624225592822178e+00
2.470200384533219218e+00
2.470200384533219218e+00
3.054093203527939782e+00
3.054093203527939782e+00
3.428917142246772798e+00
3.428917142246772798e+00
3.428917142246772798e+00
3.230723593859675891e+00
3.230723593859675891e+00
2.915526474806970469e+00
2.915526474806970469e+00
2.554202948088015290e+00
2.554202948088015290e+00
2.466825281533250092e+00
2.466825281533250092e+00
3.029717459639271304e+00
3.029717459639271304e+00
3.093094393749809434e+00
3.093094393749809434e+00
2.515201757866145638e+00
2.515201757866145638e+00
1.908058229316080379e+00
1.908058229316080379e+00
1.908058229316080379e+00
1.430106143375957428e+00
1.430106143375957428e+00
1.147347514267403223e+00
1.147347514267403223e+00
1.448669209875789621e+00
1.448669209875789621e+00
1.853306558427686435e+00
1.853306558427686435e+00
2.017186559648426858e+00
2.017186559648426858e+00
2.077750907925656865e+00
2.077750907925656865e+00
2.168503677480392078e+00
2.168503677480392078e+00
2.434949308755760100e+00
2.434949308755760100e+00
2.434949308755760100e+00
2.643455671864986201e+00
2.643455671864986201e+00
2.479013153477584552e+00
2.479013153477584552e+00
2.480700704977568893e+00
2.480700704977568893e+00
2.416948759422589799e+00
2.416948759422589799e+00
2.572766014587847927e+00
2.572766014587847927e+00
2.755584093752861286e+00
2.755584093752861286e+00
2.513889217810602261e+00
2.513889217810602261e+00
2.126877407147435228e+00
2.126877407147435228e+00
2.126877407147435228e+00
2.281382122257148648e+00
2.281382122257148648e+00
2.095376445814386202e+00
2.095376445814386202e+00
2.118064638203069894e+00
2.118064638203069894e+00
2.579703726310007106e+00
2.579703726310007106e+00
3.067218604083376654e+00
3.067218604083376654e+00
3.354289864803003063e+00
3.354289864803003063e+00
3.135658192693869140e+00
3.135658192693869140e+00
2.647768303476058183e+00
2.647768303476058183e+00
2.209004913480026033e+00
2.209004913480026033e+00
2.209004913480026033e+00
1.877494796594134430e+00
1.877494796594134430e+00
1.756741111484115159e+00
1.756741111484115159e+00
1.883119968260750232e+00
1.883119968260750232e+00
1.872057130649739110e+00
1.872057130649739110e+00
1.930558915982543589e+00
1.930558915982543589e+00
2.218005188146610962e+00
2.218005188146610962e+00
2.404010864589373409e+00
2.404010864589373409e+00
2.393885555589465142e+00
2.393885555589465142e+00
2.393885555589465142e+00
2.428761619922483295e+00
2.428761619922483295e+00
2.470012878810998735e+00
2.470012878810998735e+00
2.594329172643208281e+00
2.594329172643208281e+00
2.703269997253333834e+00
2.703269997253333834e+00
2.654706015198217806e+00
2.654706015198217806e+00
2.404198370311593891e+00
2.404198370311593891e+00
1.944246833704641908e+00
1.944246833704641908e+00
1.944246833704641908e+00
1.694114200262459180e+00
1.694114200262459180e+00
1.711552232428968257e+00
1.711552232428968257e+00
1.927183812982574018e+00
1.927183812982574018e+00
2.041749809259315818e+00
2.041749809259315818e+00
2.205254799035615054e+00
2.205254799035615054e+00
2.599579332865382675e+00
2.599579332865382675e+00
2.927901852473524968e+00
2.927901852473524968e+00
2.856274666585283839e+00
2.856274666585283839e+00
2.856274666585283839e+00
2.632205328531754596e+00
2.632205328531754596e+00
2.515764275032807085e+00
2.515764275032807085e+00
2.414511185033723084e+00
2.414511185033723084e+00
2.236005737479781263e+00
2.236005737479781263e+00
1.617236854152043213e+00
1.617236854152043213e+00
1.179786004211554440e+00
1.179786004211554440e+00
1.074782799768059460e+00
1.074782799768059460e+00
1.222724814600054888e+00
1.222724814600054888e+00
1.926246284371471162e+00
1.926246284371471162e+00
2.915526474806970469e+00
2.915526474806970469e+00
2.915526474806970469e+00
3.533732840968047295e+00
3.533732840968047295e+00
3.830179387798700041e+00
3.830179387798700041e+00
3.595422223578600196e+00
3.595422223578600196e+00
3.433979796746726709e+00
3.433979796746726709e+00
3.259411969359416350e+00
3.259411969359416350e+00
3.014529496139408682e+00
3.014529496139408682e+00
2.770584551530503425e+00
2.770584551530503425e+00
2.270131778923917043e+00
2.270131778923917043e+00
2.270131778923917043e+00
1.750740928373058169e+00
1.750740928373058169e+00
1.632987334818567282e+00
1.632987334818567282e+00
1.638237495040742342e+00
1.638237495040742342e+00
1.582360789819025282e+00
1.582360789819025282e+00
1.831930906094546563e+00
1.831930906094546563e+00
2.308570451979125249e+00
2.308570451979125249e+00
2.286444776757103448e+00
2.286444776757103448e+00
2.178066469313638454e+00
2.178066469313638454e+00
2.178066469313638454e+00
2.191004364146854844e+00
2.191004364146854844e+00
2.377760063478499664e+00
2.377760063478499664e+00
2.398948210089419053e+00
2.398948210089419053e+00
2.124252327036347587e+00
2.124252327036347587e+00
2.061625415814691387e+00
2.061625415814691387e+00
2.163066011535996758e+00
2.163066011535996758e+00
2.493826105533005766e+00
2.493826105533005766e+00
2.748646382030701663e+00
2.748646382030701663e+00
2.748646382030701663e+00
2.734583452864162378e+00
2.734583452864162378e+00
2.624330088198492561e+00
2.624330088198492561e+00
2.539202490310373150e+00
2.539202490310373150e+00
2.201317178868984037e+00
2.201317178868984037e+00
2.162128482924894346e+00
2.162128482924894346e+00
2.341196447645496725e+00
2.341196447645496725e+00
2.342696493423261028e+00
2.342696493423261028e+00
2.004436170537430950e+00
2.004436170537430950e+00
1.670675984984893336e+00
1.670675984984893336e+00
1.670675984984893336e+00
2.027124362926114642e+00
2.027124362926114642e+00
2.198692098757896396e+00
2.198692098757896396e+00
2.161378460036011973e+00
2.161378460036011973e+00
1.830993377483443707e+00
1.830993377483443707e+00
2.098376537369914807e+00
2.098376537369914807e+00
2.599766838587603157e+00
2.599766838587603157e+00
2.657143589587084520e+00
2.657143589587084520e+00
2.539014984588152668e+00
2.539014984588152668e+00
2.539014984588152668e+00
2.612517227698599065e+00
2.612517227698599065e+00
2.757459150975066553e+00
2.757459150975066553e+00
2.766271919919430999e+00
2.766271919919430999e+00
2.722395580919827918e+00
2.722395580919827918e+00
2.398198187200537124e+00
2.398198187200537124e+00
1.957559739982299263e+00
1.957559739982299263e+00
1.980247932370982955e+00
1.980247932370982955e+00
2.070250679036835795e+00
2.070250679036835795e+00
2.070250679036835795e+00
2.038187200537125765e+00
2.038187200537125765e+00
2.419198828089236475e+00
2.419198828089236475e+00
2.983216040528581026e+00
2.983216040528581026e+00
2.998216498306222721e+00
2.998216498306222721e+00
2.756334116641743215e+00
2.756334116641743215e+00
2.413198644978179264e+00
2.413198644978179264e+00
1.900745506149479791e+00
1.900745506149479791e+00
1.751115939817499356e+00
1.751115939817499356e+00
1.751115939817499356e+00
1.714364818262276158e+00
1.714364818262276158e+00
1.830805871761223225e+00
1.830805871761223225e+00
1.971622669148838769e+00
1.971622669148838769e+00
1.941434247871334007e+00
1.941434247871334007e+00
1.749990905484176240e+00
1.749990905484176240e+00
1.803992553483687811e+00
1.803992553483687811e+00
1.758616168706320426e+00
1.758616168706320426e+00
1.965622486037782002e+00
1.965622486037782002e+00
1.965622486037782002e+00
2.242005920590838475e+00
2.242005920590838475e+00
2.298070131534776017e+00
2.298070131534776017e+00
2.236943266090884119e+00
2.236943266090884119e+00
1.869994567705313360e+00
1.869994567705313360e+00
1.793117221594897392e+00
1.793117221594897392e+00
2.088063722647786058e+00
2.088063722647786058e+00
2.802648030030213455e+00
2.802648030030213455e+00
3.649798883022553397e+00
3.649798883022553397e+00
3.649798883022553397e+00
3.802803552354503402e+00
3.802803552354503402e+00
3.347164647358623402e+00
3.347164647358623402e+00
3.052030640583514032e+00
3.052030640583514032e+00
2.746583819086275913e+00
2.746583819086275913e+00
2.579141209143345659e+00
2.579141209143345659e+00
2.698207342753379923e+00
2.698207342753379923e+00
2.532452284310434454e+00
2.532452284310434454e+00
2.315320657979064389e+00
2.315320657979064389e+00
2.381135166478469234e+00
2.381135166478469234e+00
2.381135166478469234e+00
2.283444685201574842e+00
2.283444685201574842e+00
2.116377086703085553e+00
2.116377086703085553e+00
2.055625232703635064e+00
2.055625232703635064e+00
1.985310586870937088e+00
1.985310586870937088e+00
1.882557451094088563e+00
1.882557451094088563e+00
1.644800195318460556e+00
1.644800195318460556e+00
1.233225135044404563e+00
1.233225135044404563e+00
1.406292916653950620e+00
1.406292916653950620e+00
1.723365092928861309e+00
1.723365092928861309e+00
1.723365092928861309e+00
1.888557634205145552e+00
1.888557634205145552e+00
2.012686422315133949e+00
2.012686422315133949e+00
2.226630451368755370e+00
2.226630451368755370e+00
2.384885280922879769e+00
2.384885280922879769e+00
2.982091006195257687e+00
2.982091006195257687e+00
3.345664601580859099e+00
3.345664601580859099e+00
3.406603961302529626e+00
3.406603961302529626e+00
3.223223364970854821e+00
3.223223364970854821e+00
3.223223364970854821e+00
3.049780571916867800e+00
3.049780571916867800e+00
2.976278328806420959e+00
2.976278328806420959e+00
2.692582171086764120e+00
2.692582171086764120e+00
2.382072695089572090e+00
2.382072695089572090e+00
2.205067293313394572e+00
2.205067293313394572e+00
1.785241981261635136e+00
1.785241981261635136e+00
1.630174748985259603e+00
1.630174748985259603e+00
1.558735068819238956e+00
1.558735068819238956e+00
1.558735068819238956e+00
1.236037720877712243e+00
1.236037720877712243e+00
1.153347697378459991e+00
1.153347697378459991e+00
1.659988158818323400e+00
1.659988158818323400e+00
2.294320017090365038e+00
2.294320017090365038e+00
2.739458601641895807e+00
2.739458601641895807e+00
2.951902584917752481e+00
2.951902584917752481e+00
3.021279702139347378e+00
3.021279702139347378e+00
3.070968718527787189e+00
3.070968718527787189e+00
3.070968718527787189e+00
2.887775627918332866e+00
2.887775627918332866e+00
2.661643726920377429e+00
2.661643726920377429e+00
2.558515579699087716e+00
2.558515579699087716e+00
2.212192510757774677e+00
2.212192510757774677e+00
2.065938047425763813e+00
2.065938047425763813e+00
2.210129947813348927e+00
2.210129947813348927e+00
2.232443128757591655e+00
2.232443128757591655e+00
2.220630268257698603e+00
2.220630268257698603e+00
2.220630268257698603e+00
1.854244087038789068e+00
1.854244087038789068e+00
1.425793511764885446e+00
1.425793511764885446e+00
1.465732230597857733e+00
1.465732230597857733e+00
1.519733878597369303e+00
1.519733878597369303e+00
1.754303537095248444e+00
1.754303537095248444e+00
2.039874752037110550e+00
2.039874752037110550e+00
2.324883449812311209e+00
2.324883449812311209e+00
2.524202032532731454e+00
2.524202032532731454e+00
2.646455763420514362e+00
2.646455763420514362e+00
2.646455763420514362e+00
2.688644550920133103e+00
2.688644550920133103e+00
2.813710867641224578e+00
2.813710867641224578e+00
3.024092287972655502e+00
3.024092287972655502e+00
3.102282174138614845e+00
3.102282174138614845e+00
2.931089449751274056e+00
2.931089449751274056e+00
2.834336497085482076e+00
2.834336497085482076e+00
2.661831232642597911e+00
2.661831232642597911e+00
1.998998504593035630e+00
1.998998504593035630e+00
1.998998504593035630e+00
1.915745963927121709e+00
1.915745963927121709e+00
1.885932554094057911e+00
1.885932554094057911e+00
1.533234290597247140e+00
1.533234290597247140e+00
1.538859462263863165e+00
1.538859462263863165e+00
2.036874660481581945e+00
2.036874660481581945e+00
2.368009765923032361e+00
2.368009765923032361e+00
2.590766563921018228e+00
2.590766563921018228e+00
2.816898464918973666e+00
2.816898464918973666e+00
2.794772789696951421e+00
2.794772789696951421e+00
2.794772789696951421e+00
2.372134891811884305e+00
2.372134891811884305e+00
2.420323862422559369e+00
2.420323862422559369e+00
2.578391186254463285e+00
2.578391186254463285e+00
2.332758690145573244e+00
2.332758690145573244e+00
1.807367656483657381e+00
1.807367656483657381e+00
1.627362163151951702e+00
1.627362163151951702e+00
1.803617542039246846e+00
1.803617542039246846e+00
1.803617542039246846e+00
2.096501480147709540e+00
2.096501480147709540e+00
2.664643818475905590e+00
2.664643818475905590e+00
2.809585741752372634e+00
2.809585741752372634e+00
2.960715353862117372e+00
2.960715353862117372e+00
2.887400616473891457e+00
2.887400616473891457e+00
2.457449995422223310e+00
2.457449995422223310e+00
1.786179509872737770e+00
1.786179509872737770e+00
1.244662984099856651e+00
1.244662984099856651e+00
1.463669667653431761e+00
1.463669667653431761e+00
2.137002716147343495e+00
2.137002716147343495e+00
2.726333201086458935e+00
2.726333201086458935e+00
3.153471236304818959e+00
3.153471236304818959e+00
3.153471236304818959e+00
3.361040070802941759e+00
3.361040070802941759e+00
3.230161076693014444e+00
3.230161076693014444e+00
2.922089175084689128e+00
2.922089175084689128e+00
2.716020386364329742e+00
2.716020386364329742e+00
2.457637501144443792e+00
2.457637501144443792e+00
2.270694296090578934e+00
2.270694296090578934e+00
2.042124820703756782e+00
2.042124820703756782e+00
1.711927243873409221e+00
1.711927243873409221e+00
1.711927243873409221e+00
1.623612048707541167e+00
1.623612048707541167e+00
1.447169164098025540e+00
1.447169164098025540e+00
1.533609302041688327e+00
1.533609302041688327e+00
1.729740287484359262e+00
1.729740287484359262e+00
1.866994476149784976e+00
1.866994476149784976e+00
1.847118869594408963e+00
1.847118869594408963e+00
2.026936857203894160e+00
2.026936857203894160e+00
2.026936857203894160e+00
2.276319467757194737e+00
2.276319467757194737e+00
2.366134708700827094e+00
2.366134708700827094e+00
2.482013245033112270e+00
2.482013245033112270e+00
2.333696218756676100e+00
2.333696218756676100e+00
2.402698324533829588e+00
2.402698324533829588e+00
2.764959379863887623e+00
2.764959379863887623e+00
2.857399700918607177e+00
2.857399700918607177e+00
2.808460707419049296e+00
2.808460707419049296e+00
2.808460707419049296e+00
2.586828943754386767e+00
2.586828943754386767e+00
2.409823541978209693e+00
2.409823541978209693e+00
2.616079836420789118e+00
2.616079836420789118e+00
2.831898922696615362e+00
2.831898922696615362e+00
2.862274849696341050e+00
2.862274849696341050e+00
2.675706656086916713e+00
2.675706656086916713e+00
2.506388988921781191e+00
2.506388988921781191e+00
2.257943906979583026e+00
2.257943906979583026e+00
2.084688619647816488e+00
2.084688619647816488e+00
2.084688619647816488e+00
1.881057405316324260e+00
1.881057405316324260e+00
1.822743125705740486e+00
1.822743125705740486e+00
2.032562028870509963e+00
2.032562028870509963e+00
2.170941251869258792e+00
2.170941251869258792e+00
2.204692281868953607e+00
2.204692281868953607e+00
2.261131504257332114e+00
2.261131504257332114e+00
2.228880520035401602e+00
2.228880520035401602e+00
2.228880520035401602e+00
2.199067110202337361e+00
2.199067110202337361e+00
2.322633381145664977e+00
2.322633381145664977e+00
2.435886837366862956e+00
2.435886837366862956e+00
2.502451368755150174e+00
2.502451368755150174e+00
2.539202490310373150e+00
2.539202490310373150e+00
2.660331186864833608e+00
2.660331186864833608e+00
2.544452650532547988e+00
2.544452650532547988e+00
2.176003906369212704e+00
2.176003906369212704e+00
2.007436262092959556e+00
2.007436262092959556e+00
2.007436262092959556e+00
2.017561571092867823e+00
2.017561571092867823e+00
1.787679555650502072e+00
1.787679555650502072e+00
1.830993377483443707e+00
1.830993377483443707e+00
2.102501663258766751e+00
2.102501663258766751e+00
2.328071047090059853e+00
2.328071047090059853e+00
2.439636951811273491e+00
2.439636951811273491e+00
2.660518692587054090e+00
2.660518692587054090e+00
2.947402447584460017e+00
2.947402447584460017e+00
2.947402447584460017e+00
2.997841486861781757e+00
2.997841486861781757e+00
2.856274666585283839e+00
2.856274666585283839e+00
2.852899563585314713e+00
2.852899563585314713e+00
2.476013061922055947e+00
2.476013061922055947e+00
2.003686147648549021e+00
2.003686147648549021e+00
1.739678090762047269e+00
1.739678090762047269e+00
1.658300607318338615e+00
1.658300607318338615e+00
1.796304818872646480e+00
1.796304818872646480e+00
1.796304818872646480e+00
2.208442396313364142e+00
2.208442396313364142e+00
2.567328348643452163e+00
2.567328348643452163e+00
2.742646198919644895e+00
2.742646198919644895e+00
2.630142765587328846e+00
2.630142765587328846e+00
2.207504867702261730e+00
2.207504867702261730e+00
1.996560930204168693e+00
1.996560930204168693e+00
1.914433423871578110e+00
1.914433423871578110e+00
1.990373241370891666e+00
1.990373241370891666e+00
1.990373241370891666e+00
2.134752647480697263e+00
2.134752647480697263e+00
2.208817407757805107e+00
2.208817407757805107e+00
2.136627704702902530e+00
2.136627704702902530e+00
2.139440290536210654e+00
2.139440290536210654e+00
2.187816766869105756e+00
2.187816766869105756e+00
2.246881069368571904e+00
2.246881069368571904e+00
2.454449903866695148e+00
2.454449903866695148e+00
2.617017365031891973e+00
2.617017365031891973e+00
2.504326425977354997e+00
2.504326425977354997e+00
2.504326425977354997e+00
2.124439832758568070e+00
2.124439832758568070e+00
1.925496261482589233e+00
1.925496261482589233e+00
1.762553788872951444e+00
1.762553788872951444e+00
1.689801568651387198e+00
1.689801568651387198e+00
2.033499557481612818e+00
2.033499557481612818e+00
2.740583635975218701e+00
2.740583635975218701e+00
3.116157597582934091e+00
3.116157597582934091e+00
3.240286385692923155e+00
3.240286385692923155e+00
3.249286660359508083e+00
3.249286660359508083e+00
3.249286660359508083e+00
3.080344004638813526e+00
3.080344004638813526e+00
2.651330912198248235e+00
2.651330912198248235e+00
2.457074983977782345e+00
2.457074983977782345e+00
2.350196722312082542e+00
2.350196722312082542e+00
2.308195440534684284e+00
2.308195440534684284e+00
2.468887844477675397e+00
2.468887844477675397e+00
2.519326883754997581e+00
2.519326883754997581e+00
2.338383861812189490e+00
2.338383861812189490e+00
2.098001525925473842e+00
2.098001525925473842e+00
2.098001525925473842e+00
2.113939512314218838e+00
2.113939512314218838e+00
1.990373241370891666e+00
1.990373241370891666e+00
1.885932554094057911e+00
1.885932554094057911e+00
1.873182164983062226e+00
1.873182164983062226e+00
1.850681478316599016e+00
1.850681478316599016e+00
2.152190679647205673e+00
2.152190679647205673e+00
2.435136814477980582e+00
2.435136814477980582e+00
2.378885097811823002e+00
2.378885097811823002e+00
2.378885097811823002e+00
2.179941526535844165e+00
2.179941526535844165e+00
2.271256813257240381e+00
2.271256813257240381e+00
2.510139103366191726e+00
2.510139103366191726e+00
2.769834528641621496e+00
2.769834528641621496e+00
2.745833796197393983e+00
2.745833796197393983e+00
2.491388531144139051e+00
2.491388531144139051e+00
2.104564226203192501e+00
2.104564226203192501e+00
1.701051911984618803e+00
1.701051911984618803e+00
1.701051911984618803e+00
1.831930906094546563e+00
1.831930906094546563e+00
2.073438276314584883e+00
2.073438276314584883e+00
2.149940610980559885e+00
2.149940610980559885e+00
2.287757316812646824e+00
2.287757316812646824e+00
2.370822351756340485e+00
2.370822351756340485e+00
2.457825006866664719e+00
2.457825006866664719e+00
2.509764091921750762e+00
2.509764091921750762e+00
2.334258735923337547e+00
2.334258735923337547e+00
2.334258735923337547e+00
2.075313333536790150e+00
2.075313333536790150e+00
1.993185827204199345e+00
1.993185827204199345e+00
1.976872829371013607e+00
1.976872829371013607e+00
2.119752189703054679e+00
2.119752189703054679e+00
2.284757225257118218e+00
2.284757225257118218e+00
2.350009216589862060e+00
2.350009216589862060e+00
2.654518509475997323e+00
2.654518509475997323e+00
2.844461806085390787e+00
2.844461806085390787e+00
2.844461806085390787e+00
2.812023316141239793e+00
2.812023316141239793e+00
2.691832148197881747e+00
2.691832148197881747e+00
2.543702627643666059e+00
2.543702627643666059e+00
2.385822809533982625e+00
2.385822809533982625e+00
2.306320383312479017e+00
2.306320383312479017e+00
2.361634571367534630e+00
2.361634571367534630e+00
2.465700247199926753e+00
2.465700247199926753e+00
2.380947660756248752e+00
2.380947660756248752e+00
2.380947660756248752e+00
2.119939695425275605e+00
2.119939695425275605e+00
1.992060792870876229e+00
1.992060792870876229e+00
2.002561113315225683e+00
2.002561113315225683e+00
2.209942442091128445e+00
2.209942442091128445e+00
2.251006195257423848e+00
2.251006195257423848e+00
2.298820154423657947e+00
2.298820154423657947e+00
2.337633838923307117e+00
2.337633838923307117e+00
2.266944181646168399e+00
2.266944181646168399e+00
2.266944181646168399e+00
2.231130588702047834e+00
2.231130588702047834e+00
2.363884640034180418e+00
2.363884640034180418e+00
2.395760612811670409e+00
2.395760612811670409e+00
2.355634388256477418e+00
2.355634388256477418e+00
2.524764549699392902e+00
2.524764549699392902e+00
2.674019104586931928e+00
2.674019104586931928e+00
2.464575212866603859e+00
2.464575212866603859e+00
2.373072420422986717e+00
2.373072420422986717e+00
2.373072420422986717e+00
2.226630451368755370e+00
2.226630451368755370e+00
2.224005371257667729e+00
2.224005371257667729e+00
2.249506149479659545e+00
2.249506149479659545e+00
2.266194158757286470e+00
2.266194158757286470e+00
2.240880886257515137e+00
2.240880886257515137e+00
1.950997039704580827e+00
1.950997039704580827e+00
1.907308206427198227e+00
1.907308206427198227e+00
2.202067201757865966e+00
2.202067201757865966e+00
2.420323862422559369e+00
2.420323862422559369e+00
2.420323862422559369e+00
2.598079287087618372e+00
2.598079287087618372e+00
2.601454390087587942e+00
2.601454390087587942e+00
2.377197546311838217e+00
2.377197546311838217e+00
2.256256355479598685e+00
2.256256355479598685e+00
2.224380382702108694e+00
2.224380382702108694e+00
2.087126194036683202e+00
2.087126194036683202e+00
2.072313241981261545e+00
2.072313241981261545e+00
2.075125827814569668e+00
2.075125827814569668e+00
2.075125827814569668e+00
2.124627338480788552e+00
2.124627338480788552e+00
2.362759605700857524e+00
2.362759605700857524e+00
2.522514481032746669e+00
2.522514481032746669e+00
2.516889309366130423e+00
2.516889309366130423e+00
2.612704733420819547e+00
2.612704733420819547e+00
2.623767571031830670e+00
2.623767571031830670e+00
2.669331461531418537e+00
2.669331461531418537e+00
2.680769310586870624e+00
2.680769310586870624e+00
2.680769310586870624e+00
2.545390179143650844e+00
2.545390179143650844e+00
2.605204504531998921e+00
2.605204504531998921e+00
2.576328623310037536e+00
2.576328623310037536e+00
2.410386059144871140e+00
2.410386059144871140e+00
2.414136173589282119e+00
2.414136173589282119e+00
2.311383037812433372e+00
2.311383037812433372e+00
2.228505508590960638e+00
2.228505508590960638e+00
2.228505508590960638e+00
2.179379009369182274e+00
2.179379009369182274e+00
2.048875026703695923e+00
2.048875026703695923e+00
1.967685048982207752e+00
1.967685048982207752e+00
2.175253883480330774e+00
2.175253883480330774e+00
2.251568712424085295e+00
2.251568712424085295e+00
2.325820978423414065e+00
2.325820978423414065e+00
2.299007660145878429e+00
2.299007660145878429e+00
2.234880703146458369e+00
2.234880703146458369e+00
2.305570360423596643e+00
2.305570360423596643e+00
2.305570360423596643e+00
2.241068391979735619e+00
2.241068391979735619e+00
2.269194250312814631e+00
2.269194250312814631e+00
2.424261482589190386e+00
2.424261482589190386e+00
2.392573015533921321e+00
2.392573015533921321e+00
2.241630909146397510e+00
2.241630909146397510e+00
2.244443494979705633e+00
2.244443494979705633e+00
2.232443128757591655e+00
2.232443128757591655e+00
2.281194616534928166e+00
2.281194616534928166e+00
2.359196996978667915e+00
2.359196996978667915e+00
2.359196996978667915e+00
2.377760063478499664e+00
2.377760063478499664e+00
2.424261482589190386e+00
2.424261482589190386e+00
2.479950682088686964e+00
2.479950682088686964e+00
2.464200201422162451e+00
2.464200201422162451e+00
2.495888668477431516e+00
2.495888668477431516e+00
2.382822717978454019e+00
2.382822717978454019e+00
2.356946928312021239e+00
2.356946928312021239e+00
2.353384319589831186e+00
2.353384319589831186e+00
2.353384319589831186e+00
2.321320841090121156e+00
2.321320841090121156e+00
2.322633381145664977e+00
2.322633381145664977e+00
2.288507339701529197e+00
2.288507339701529197e+00
2.297132602923673161e+00
2.297132602923673161e+00
2.308945463423566213e+00
2.308945463423566213e+00
2.313445600756859122e+00
2.313445600756859122e+00
2.373072420422986717e+00
2.373072420422986717e+00
2.406448438978240567e+00
2.406448438978240567e+00
2.340633930478835278e+00
2.340633930478835278e+00
2.340633930478835278e+00
2.379822626422925413e+00
2.379822626422925413e+00
2.391072969756157018e+00
2.391072969756157018e+00
2.262819055757316900e+00
2.262819055757316900e+00
2.277256996368297592e+00
2.277256996368297592e+00
2.255318826868495830e+00
2.255318826868495830e+00
2.218942716757713818e+00
2.218942716757713818e+00
2.286819788201544412e+00
2.286819788201544412e+00
2.350009216589862060e+00
2.350009216589862060e+00
2.350009216589862060e+00
2.453137363811151772e+00
2.453137363811151772e+00
2.464762718588824342e+00
2.464762718588824342e+00
2.307445417645802355e+00
2.307445417645802355e+00
2.341008941923276243e+00
2.341008941923276243e+00
2.428574114200262368e+00
2.428574114200262368e+00
2.442074526200140649e+00
2.442074526200140649e+00
2.506388988921781191e+00
2.506388988921781191e+00
2.344384044923245813e+00
2.344384044923245813e+00
2.344384044923245813e+00
2.182379100924710880e+00
2.182379100924710880e+00
2.288319833979308715e+00
2.288319833979308715e+00
2.358071962645344577e+00
2.358071962645344577e+00
2.399510727256080500e+00
2.399510727256080500e+00
2.359947019867549844e+00
2.359947019867549844e+00
2.336133793145542814e+00
2.336133793145542814e+00
2.421448896755882263e+00
2.421448896755882263e+00
2.346071596423230599e+00
2.346071596423230599e+00
2.297507614368114126e+00
2.297507614368114126e+00
2.297507614368114126e+00
2.346071596423230599e+00
2.346071596423230599e+00
2.309882992034669069e+00
2.309882992034669069e+00
2.264694112979522167e+00
2.264694112979522167e+00
2.346259102145451525e+00
2.346259102145451525e+00
2.267319193090609808e+00
2.267319193090609808e+00
2.233005645924253102e+00
2.233005645924253102e+00
2.244818506424146598e+00
2.244818506424146598e+00
2.245006012146367080e+00
2.245006012146367080e+00
2.245006012146367080e+00
2.239005829035309869e+00
2.239005829035309869e+00
2.269006744590594149e+00
2.269006744590594149e+00
2.292444959868159771e+00
2.292444959868159771e+00
2.351134250923184954e+00
2.351134250923184954e+00
2.390510452589495571e+00
2.390510452589495571e+00
2.406448438978240567e+00
2.406448438978240567e+00
2.469075350199895880e+00
2.469075350199895880e+00
2.439449446089053009e+00
2.439449446089053009e+00
2.439449446089053009e+00
2.447512192144535526e+00
2.447512192144535526e+00
2.420886379589221260e+00
2.420886379589221260e+00
2.206567339091158875e+00
2.206567339091158875e+00
2.107751823480941145e+00
2.107751823480941145e+00
2.045499923703726353e+00
2.045499923703726353e+00
2.040812280648213406e+00
2.040812280648213406e+00
2.097063997314370987e+00
2.097063997314370987e+00
2.101376628925443413e+00
2.101376628925443413e+00
2.101376628925443413e+00
2.159878414258247670e+00
2.159878414258247670e+00
2.198879604480116878e+00
2.198879604480116878e+00
2.313070589312418157e+00
2.313070589312418157e+00
2.482200750755333196e+00
2.482200750755333196e+00
2.674769127475814301e+00
2.674769127475814301e+00
2.774147160252693034e+00
2.774147160252693034e+00
2.801898007141331082e+00
2.801898007141331082e+00
2.618142399365215311e+00
2.618142399365215311e+00
2.618142399365215311e+00
2.364447157200842309e+00
2.364447157200842309e+00
2.334071230201117064e+00
2.334071230201117064e+00
2.339696401867732423e+00
2.339696401867732423e+00
2.346259102145451525e+00
2.346259102145451525e+00
2.351134250923184954e+00
2.351134250923184954e+00
2.335383770256660885e+00
2.335383770256660885e+00
2.297695120090334608e+00
2.297695120090334608e+00
2.289257362590411127e+00
2.289257362590411127e+00
2.289257362590411127e+00
2.323758415478988315e+00
2.323758415478988315e+00
2.386385326700643628e+00
2.386385326700643628e+00
2.378885097811823002e+00
2.378885097811823002e+00
2.334446241645558029e+00
2.334446241645558029e+00
2.390885464033936536e+00
2.390885464033936536e+00
2.283819696646015807e+00
2.283819696646015807e+00
2.155565782647175688e+00
2.155565782647175688e+00
2.052437635425885976e+00
2.052437635425885976e+00
2.052437635425885976e+00
1.965622486037782002e+00
1.965622486037782002e+00
2.002748619037446165e+00
2.002748619037446165e+00
2.070250679036835795e+00
2.070250679036835795e+00
2.169253700369274007e+00
2.169253700369274007e+00
2.318133243812372069e+00
2.318133243812372069e+00
2.437011871700186294e+00
2.437011871700186294e+00
2.559078096865749163e+00
2.559078096865749163e+00
2.687894528031251173e+00
2.687894528031251173e+00
2.653205969420453503e+00
2.653205969420453503e+00
2.653205969420453503e+00
2.568828394421216466e+00
2.568828394421216466e+00
2.575203588976714197e+00
2.575203588976714197e+00
2.390885464033936536e+00
2.390885464033936536e+00
2.284569719534897736e+00
2.284569719534897736e+00
2.206379833368938392e+00
2.206379833368938392e+00
2.098189031647694325e+00
2.098189031647694325e+00
2.081126010925626435e+00
2.081126010925626435e+00
2.103814203314310571e+00
2.103814203314310571e+00
2.103814203314310571e+00
2.187441755424664791e+00
2.187441755424664791e+00
2.326571001312295994e+00
2.326571001312295994e+00
2.356571916867580274e+00
2.356571916867580274e+00
2.331258644367808941e+00
2.331258644367808941e+00
2.396510635700552783e+00
2.396510635700552783e+00
2.437011871700186294e+00
2.437011871700186294e+00
2.567328348643452163e+00
2.567328348643452163e+00
2.539765007477034597e+00
2.539765007477034597e+00
2.539765007477034597e+00
2.294507522812585520e+00
2.294507522812585520e+00
2.227192968535416817e+00
2.227192968535416817e+00
2.194941984313486305e+00
2.194941984313486305e+00
2.165128574480422063e+00
2.165128574480422063e+00
2.223255348368785356e+00
2.223255348368785356e+00
2.278007019257179522e+00
2.278007019257179522e+00
2.360509537034211291e+00
2.360509537034211291e+00
2.409261024811548246e+00
2.409261024811548246e+00
2.328446058534500818e+00
2.328446058534500818e+00
2.328446058534500818e+00
2.299195165868098911e+00
2.299195165868098911e+00
2.338758873256630455e+00
2.338758873256630455e+00
2.365572191534165203e+00
2.365572191534165203e+00
2.411323587755973996e+00
2.411323587755973996e+00
2.323008392590105942e+00
2.323008392590105942e+00
2.223817865535447247e+00
2.223817865535447247e+00
2.228880520035401602e+00
2.228880520035401602e+00
2.217255165257729033e+00
2.217255165257729033e+00
2.259631458479567812e+00
2.259631458479567812e+00
2.259631458479567812e+00
2.257381389812921579e+00
2.257381389812921579e+00
2.244068483535264225e+00
2.244068483535264225e+00
2.310258003479110034e+00
2.310258003479110034e+00
2.331633655812249906e+00
2.331633655812249906e+00
2.336508804589983779e+00
2.336508804589983779e+00
2.374572466200750576e+00
2.374572466200750576e+00
2.387322855311746483e+00
2.387322855311746483e+00
2.440386974700155864e+00
2.440386974700155864e+00
2.440386974700155864e+00
2.556078005310220558e+00
2.556078005310220558e+00
2.492888576921902910e+00
2.492888576921902910e+00
2.422761436811426083e+00
2.422761436811426083e+00
2.341383953367717208e+00
2.341383953367717208e+00
2.240693380535294654e+00
2.240693380535294654e+00
2.206942350535599839e+00
2.206942350535599839e+00
2.143377910702841227e+00
2.143377910702841227e+00
2.143377910702841227e+00
2.107751823480941145e+00
2.107751823480941145e+00
2.161565965758232455e+00
2.161565965758232455e+00
2.209567430646687480e+00
2.209567430646687480e+00
2.251943723868526259e+00
2.251943723868526259e+00
2.365572191534165203e+00
2.365572191534165203e+00
2.416948759422589799e+00
2.416948759422589799e+00
2.521014435254982367e+00
2.521014435254982367e+00
2.601454390087587942e+00
2.601454390087587942e+00
2.513139194921720332e+00
2.513139194921720332e+00
2.513139194921720332e+00
2.444887112033448329e+00
2.444887112033448329e+00
2.344196539201025331e+00
2.344196539201025331e+00
2.216505142368846659e+00
2.216505142368846659e+00
2.209379924924466998e+00
2.209379924924466998e+00
2.218192693868831444e+00
2.218192693868831444e+00
2.248193609424115724e+00
2.248193609424115724e+00
2.302945280312509890e+00
2.302945280312509890e+00
2.302945280312509890e+00
2.324508438367870244e+00
2.324508438367870244e+00
2.391260475478377501e+00
2.391260475478377501e+00
2.431574205755790974e+00
2.431574205755790974e+00
2.373259926145207199e+00
2.373259926145207199e+00
2.396510635700552783e+00
2.396510635700552783e+00
2.337821344645527599e+00
2.337821344645527599e+00
2.214630085146641392e+00
2.214630085146641392e+00
2.180879055146946577e+00
2.180879055146946577e+00
2.079813470870083059e+00
2.079813470870083059e+00
2.079813470870083059e+00
2.033124546037171854e+00
2.033124546037171854e+00
2.102876674703207716e+00
2.102876674703207716e+00
2.157253334147160473e+00
2.157253334147160473e+00
2.222880336924344391e+00
2.222880336924344391e+00
2.304632831812494231e+00
2.304632831812494231e+00
2.374572466200750576e+00
2.374572466200750576e+00
2.487638416699728516e+00
2.487638416699728516e+00
2.523452009643849081e+00
2.523452009643849081e+00
2.523452009643849081e+00
2.512576677755058441e+00
2.512576677755058441e+00
2.552890408032471470e+00
2.552890408032471470e+00
2.473575487533188788e+00
2.473575487533188788e+00
2.378322580645161111e+00
2.378322580645161111e+00
2.293569994201483109e+00
2.293569994201483109e+00
2.165691091647083955e+00
2.165691091647083955e+00
2.143002899258400262e+00
2.143002899258400262e+00
2.143002899258400262e+00
2.198317087313455875e+00
2.198317087313455875e+00
2.236380748924222672e+00
2.236380748924222672e+00
2.305195348979155678e+00
2.305195348979155678e+00
2.340633930478835278e+00
2.340633930478835278e+00
2.377572557756279181e+00
2.377572557756279181e+00
2.480325693533127485e+00
2.480325693533127485e+00
2.488388439588610446e+00
2.488388439588610446e+00
2.484075807977538464e+00
2.484075807977538464e+00
2.484075807977538464e+00
2.515951780755027567e+00
2.515951780755027567e+00
2.372322397534104788e+00
2.372322397534104788e+00
2.281757133701590057e+00
2.281757133701590057e+00
2.201129673146763555e+00
2.201129673146763555e+00
2.143565416425061709e+00
2.143565416425061709e+00
2.187441755424664791e+00
2.187441755424664791e+00
2.231318094424268317e+00
2.231318094424268317e+00
2.239568346201971760e+00
2.239568346201971760e+00
2.277632007812738557e+00
2.277632007812738557e+00
2.277632007812738557e+00
2.314758140812402942e+00
2.314758140812402942e+00
2.352634296700948813e+00
2.352634296700948813e+00
2.337258827478866152e+00
2.337258827478866152e+00
2.322820886867885459e+00
2.322820886867885459e+00
2.371384868923001932e+00
2.371384868923001932e+00
2.370259834589678594e+00
2.370259834589678594e+00
2.296757591479232197e+00
2.296757591479232197e+00
2.257568895535142062e+00
2.257568895535142062e+00
2.205254799035615054e+00
2.205254799035615054e+00
2.205254799035615054e+00
2.203379741813409787e+00
2.203379741813409787e+00
2.265444135868404540e+00
2.265444135868404540e+00
2.304820337534714714e+00
2.304820337534714714e+00
2.361072054200873183e+00
2.361072054200873183e+00
2.392385509811700839e+00
2.392385509811700839e+00
2.372697408978545752e+00
2.372697408978545752e+00
2.404010864589373409e+00
2.404010864589373409e+00
2.386760338145085036e+00
2.386760338145085036e+00
2.386760338145085036e+00
2.347384136478774419e+00
2.347384136478774419e+00
2.385822809533982625e+00
2.385822809533982625e+00
2.307820429090243319e+00
2.307820429090243319e+00
2.215192602313302839e+00
2.215192602313302839e+00
2.213692556535538980e+00
2.213692556535538980e+00
2.176003906369212704e+00
2.176003906369212704e+00
2.184816675313578038e+00
2.184816675313578038e+00
2.243880977813043742e+00
2.243880977813043742e+00
2.243880977813043742e+00
2.285132236701559627e+00
2.285132236701559627e+00
2.365947202978606612e+00
2.365947202978606612e+00
2.408135990478225352e+00
2.408135990478225352e+00
2.407760979033784388e+00
2.407760979033784388e+00
2.457825006866664719e+00
2.457825006866664719e+00
2.410386059144871140e+00
2.410386059144871140e+00
2.384322763756218322e+00
2.384322763756218322e+00
2.424636494033631351e+00
2.424636494033631351e+00
2.305382854701376161e+00
2.305382854701376161e+00
2.305382854701376161e+00
2.243318460646382295e+00
2.243318460646382295e+00
2.217442670979949515e+00
2.217442670979949515e+00
2.153315713980529011e+00
2.153315713980529011e+00
2.128002441480758122e+00
2.128002441480758122e+00
2.134002624591814889e+00
2.134002624591814889e+00
2.185379192480239485e+00
2.185379192480239485e+00
2.266006653035065987e+00
2.266006653035065987e+00
2.266006653035065987e+00
2.323758415478988315e+00
2.323758415478988315e+00
2.360134525589770327e+00
2.360134525589770327e+00
2.380572649311807787e+00
2.380572649311807787e+00
2.349446699423200169e+00
2.349446699423200169e+00
2.389572923978392716e+00
2.389572923978392716e+00
2.424636494033631351e+00
2.424636494033631351e+00
2.313820612201300086e+00
2.313820612201300086e+00
2.289444868312631609e+00
2.289444868312631609e+00
2.239755851924192243e+00
2.239755851924192243e+00
2.215567613757744247e+00
2.215567613757744247e+00
2.265819147312845505e+00
2.265819147312845505e+00
2.295257545701467894e+00
2.295257545701467894e+00
2.295257545701467894e+00
2.358071962645344577e+00
2.358071962645344577e+00
2.396885647144993747e+00
2.396885647144993747e+00
2.400073244422742391e+00
2.400073244422742391e+00
2.443949583422345917e+00
2.443949583422345917e+00
2.430449171422468080e+00
2.430449171422468080e+00
2.362009582811975594e+00
2.362009582811975594e+00
2.368947294534135217e+00
2.368947294534135217e+00
2.306507889034699499e+00
2.306507889034699499e+00
2.306507889034699499e+00
2.217255165257729033e+00
2.217255165257729033e+00
2.210879970702230857e+00
2.210879970702230857e+00
2.182004089480269915e+00
2.182004089480269915e+00
2.187816766869105756e+00
2.187816766869105756e+00
2.238818323313089387e+00
2.238818323313089387e+00
2.279882076479384789e+00
2.279882076479384789e+00
2.362197088534196077e+00
2.362197088534196077e+00
2.404385876033814373e+00
2.404385876033814373e+00
2.404385876033814373e+00
2.407760979033784388e+00
2.407760979033784388e+00
2.440574480422376347e+00
2.440574480422376347e+00
2.405323404644917229e+00
2.405323404644917229e+00
2.353759331034272151e+00
2.353759331034272151e+00
2.411136082033753514e+00
2.411136082033753514e+00
2.322633381145664977e+00
2.322633381145664977e+00
2.259443952757347329e+00
2.259443952757347329e+00
2.239380840479750834e+00
2.239380840479750834e+00
2.184629169591357556e+00
2.184629169591357556e+00
2.182754112369151844e+00
2.182754112369151844e+00
2.203942258980071234e+00
2.203942258980071234e+00
2.232630634479812137e+00
2.232630634479812137e+00
2.232630634479812137e+00
2.288319833979308715e+00
2.288319833979308715e+00
2.327508529923398850e+00
2.327508529923398850e+00
2.368197271645252844e+00
2.368197271645252844e+00
2.435699331644642474e+00
2.435699331644642474e+00
2.396323129978331856e+00
2.396323129978331856e+00
2.377947569200720146e+00
2.377947569200720146e+00
2.410948576311533031e+00
2.410948576311533031e+00
2.275944456312753772e+00
2.275944456312753772e+00
2.275944456312753772e+00
2.208817407757805107e+00
2.208817407757805107e+00
2.164566057313760616e+00
2.164566057313760616e+00
2.125002349925229961e+00
2.125002349925229961e+00
2.161378460036011973e+00
2.161378460036011973e+00
2.199442121646778769e+00
2.199442121646778769e+00
2.265256630146183614e+00
2.265256630146183614e+00
2.362572099978637485e+00
2.362572099978637485e+00
2.389385418256172233e+00
2.389385418256172233e+00
2.389385418256172233e+00
2.420511368144779851e+00
2.420511368144779851e+00
2.471137913144322074e+00
2.471137913144322074e+00
2.440949491866817311e+00
2.440949491866817311e+00
2.480888210699789376e+00
2.480888210699789376e+00
2.458012512588885201e+00
2.458012512588885201e+00
2.319258278145695407e+00
2.319258278145695407e+00
2.261506515701773079e+00
2.261506515701773079e+00
2.185004181035798521e+00
2.185004181035798521e+00
2.185004181035798521e+00
2.173566331980346433e+00
2.173566331980346433e+00
2.222130314035462462e+00
2.222130314035462462e+00
2.227755485702078264e+00
2.227755485702078264e+00
2.274256904812768987e+00
2.274256904812768987e+00
2.326571001312295994e+00
2.326571001312295994e+00
2.344196539201025331e+00
2.344196539201025331e+00
2.396135624256111374e+00
2.396135624256111374e+00
2.391822992645039392e+00
2.391822992645039392e+00
2.391822992645039392e+00
2.352634296700948813e+00
2.352634296700948813e+00
2.418448805200354101e+00
2.418448805200354101e+00
2.347384136478774419e+00
2.347384136478774419e+00
2.275194433423871843e+00
2.275194433423871843e+00
2.251568712424085295e+00
2.251568712424085295e+00
2.190816858424634361e+00
2.190816858424634361e+00
2.186129215369121415e+00
2.186129215369121415e+00
2.217817682424390480e+00
2.217817682424390480e+00
2.217817682424390480e+00
2.236380748924222672e+00
2.236380748924222672e+00
2.294882534257026929e+00
2.294882534257026929e+00
2.334446241645558029e+00
2.334446241645558029e+00
2.351134250923184954e+00
2.351134250923184954e+00
2.405323404644917229e+00
2.405323404644917229e+00
2.377197546311838217e+00
2.377197546311838217e+00
2.364447157200842309e+00
2.364447157200842309e+00
2.416386242255928352e+00
2.416386242255928352e+00
2.306132877590258534e+00
2.306132877590258534e+00
2.306132877590258534e+00
2.253068758201849597e+00
2.253068758201849597e+00
2.221942808313242423e+00
2.221942808313242423e+00
2.174128849147007880e+00
2.174128849147007880e+00
2.185566698202459968e+00
2.185566698202459968e+00
2.216692648091067142e+00
2.216692648091067142e+00
2.261694021423993561e+00
2.261694021423993561e+00
2.327321024201178368e+00
2.327321024201178368e+00
2.348696676534318240e+00
2.348696676534318240e+00
2.348696676534318240e+00
2.390885464033936536e+00
2.390885464033936536e+00
2.430074159978026671e+00
2.430074159978026671e+00
2.382635212256233537e+00
2.382635212256233537e+00
2.390510452589495571e+00
2.390510452589495571e+00
2.397260658589434712e+00
2.397260658589434712e+00
2.280632099368266719e+00
2.280632099368266719e+00
2.243130954924161813e+00
2.243130954924161813e+00
2.193254432813501520e+00
2.193254432813501520e+00
2.193254432813501520e+00
2.164566057313760616e+00
2.164566057313760616e+00
2.206754844813379357e+00
2.206754844813379357e+00
2.234505691702016961e+00
2.234505691702016961e+00
2.295632557145908859e+00
2.295632557145908859e+00
2.357509445478682686e+00
2.357509445478682686e+00
2.365947202978606612e+00
2.365947202978606612e+00
2.418261299478133619e+00
2.418261299478133619e+00
2.409261024811548246e+00
2.409261024811548246e+00
2.409261024811548246e+00
2.356196905423139309e+00
2.356196905423139309e+00
2.408698507644886799e+00
2.408698507644886799e+00
2.356384411145359792e+00
2.356384411145359792e+00
2.262444044312875935e+00
2.262444044312875935e+00
2.244443494979705633e+00
2.244443494979705633e+00
2.185941709646900932e+00
2.185941709646900932e+00
2.174691366313669327e+00
2.174691366313669327e+00
2.216130130924405695e+00
2.216130130924405695e+00
2.238255806146427940e+00
2.238255806146427940e+00
2.238255806146427940e+00
2.299007660145878429e+00
2.299007660145878429e+00
2.346446607867672007e+00
2.346446607867672007e+00
2.362947111423078006e+00
2.362947111423078006e+00
2.422198919644764192e+00
2.422198919644764192e+00
2.404198370311593891e+00
2.404198370311593891e+00
2.377197546311838217e+00
2.377197546311838217e+00
2.433074251533554833e+00
2.433074251533554833e+00
2.325070955534531691e+00
2.325070955534531691e+00
2.258693929868464956e+00
2.258693929868464956e+00
2.258693929868464956e+00
2.234130680257575996e+00
2.234130680257575996e+00
2.182754112369151844e+00
2.182754112369151844e+00
2.198504593035676358e+00
2.198504593035676358e+00
2.228130497146519229e+00
2.228130497146519229e+00
2.254568803979613900e+00
2.254568803979613900e+00
2.314195623645741495e+00
2.314195623645741495e+00
2.330508621478927012e+00
2.330508621478927012e+00
2.359947019867549844e+00
2.359947019867549844e+00
2.359947019867549844e+00
2.406073427533799602e+00
2.406073427533799602e+00
2.366134708700827094e+00
2.366134708700827094e+00
2.385447798089541660e+00
2.385447798089541660e+00
2.419573839533677440e+00
2.419573839533677440e+00
2.300507705923642732e+00
2.300507705923642732e+00
2.255131321146275347e+00
2.255131321146275347e+00
2.202629718924527857e+00
2.202629718924527857e+00
2.165316080202642990e+00
2.165316080202642990e+00
2.165316080202642990e+00
2.197379558702353020e+00
2.197379558702353020e+00
2.222130314035462462e+00
2.222130314035462462e+00
2.270131778923917043e+00
2.270131778923917043e+00
2.325445966978973100e+00
2.325445966978973100e+00
2.341946470534379099e+00
2.341946470534379099e+00
2.405323404644917229e+00
2.405323404644917229e+00
2.429324137089144742e+00
2.429324137089144742e+00
2.375885006256294396e+00
2.375885006256294396e+00
2.375885006256294396e+00
2.408323496200445835e+00
2.408323496200445835e+00
2.389197912533951751e+00
2.389197912533951751e+00
2.286819788201544412e+00
2.286819788201544412e+00
2.256256355479598685e+00
2.256256355479598685e+00
2.202817224646748340e+00
2.202817224646748340e+00
2.192879421369060555e+00
2.192879421369060555e+00
2.224380382702108694e+00
2.224380382702108694e+00
2.236943266090884119e+00
2.236943266090884119e+00
2.236943266090884119e+00
2.289257362590411127e+00
2.289257362590411127e+00
2.342321481978820064e+00
2.342321481978820064e+00
2.354884365367595489e+00
2.354884365367595489e+00
2.408698507644886799e+00
2.408698507644886799e+00
2.405323404644917229e+00
2.405323404644917229e+00
2.365009674367503756e+00
2.365009674367503756e+00
2.423698965422528495e+00
2.423698965422528495e+00
2.345884090701010116e+00
2.345884090701010116e+00
2.264881618701742649e+00
2.264881618701742649e+00
2.264881618701742649e+00
2.238630817590868904e+00
2.238630817590868904e+00
2.172628803369243577e+00
2.172628803369243577e+00
2.175441389202551257e+00
2.175441389202551257e+00
2.210129947813348927e+00
2.210129947813348927e+00
2.242755943479720404e+00
2.242755943479720404e+00
2.311570543534653854e+00
2.311570543534653854e+00
2.360134525589770327e+00
2.360134525589770327e+00
2.388635395367290304e+00
2.388635395367290304e+00
2.388635395367290304e+00
2.430261665700247153e+00
2.430261665700247153e+00
2.388822901089510786e+00
2.388822901089510786e+00
2.380947660756248752e+00
2.380947660756248752e+00
2.427636585589159957e+00
2.427636585589159957e+00
2.306507889034699499e+00
2.306507889034699499e+00
2.257568895535142062e+00
2.257568895535142062e+00
2.221380291146580532e+00
2.221380291146580532e+00
2.221380291146580532e+00
2.173566331980346433e+00
2.173566331980346433e+00
2.199442121646778769e+00
2.199442121646778769e+00
2.228130497146519229e+00
2.228130497146519229e+00
2.273694387646107540e+00
2.273694387646107540e+00
2.332571184423352761e+00
2.332571184423352761e+00
2.350384228034303025e+00
2.350384228034303025e+00
2.383010223700674501e+00
2.383010223700674501e+00
2.410011047700430176e+00
2.410011047700430176e+00
2.410011047700430176e+00
2.360134525589770327e+00
2.360134525589770327e+00
2.381135166478469234e+00
2.381135166478469234e+00
2.381697683645130681e+00
2.381697683645130681e+00
2.277444502090518075e+00
2.277444502090518075e+00
2.255881344035157721e+00
2.255881344035157721e+00
2.209754936368907963e+00
2.209754936368907963e+00
2.174316354869228363e+00
2.174316354869228363e+00
2.208067384868923178e+00
2.208067384868923178e+00
2.231505600146489243e+00
2.231505600146489243e+00
2.231505600146489243e+00
2.277819513534959039e+00
2.277819513534959039e+00
2.328821069978942226e+00
2.328821069978942226e+00
2.344571550645466296e+00
2.344571550645466296e+00
2.398573198644978088e+00
2.398573198644978088e+00
2.410386059144871140e+00
2.410386059144871140e+00
2.367259743034150432e+00
2.367259743034150432e+00
2.428949125644703777e+00
2.428949125644703777e+00
2.377947569200720146e+00
2.377947569200720146e+00
2.377947569200720146e+00
2.282319650868251504e+00
2.282319650868251504e+00
2.255881344035157721e+00
2.255881344035157721e+00
2.193066927091281038e+00
2.193066927091281038e+00
2.185004181035798521e+00
2.185004181035798521e+00
2.228318002868740155e+00
2.228318002868740155e+00
2.252131229590746742e+00
2.252131229590746742e+00
2.312883083590197675e+00
2.312883083590197675e+00
2.357509445478682686e+00
2.357509445478682686e+00
2.357509445478682686e+00
2.370822351756340485e+00
2.370822351756340485e+00
2.416198736533707869e+00
2.416198736533707869e+00
2.392198004089480357e+00
2.392198004089480357e+00
2.371759880367442896e+00
2.371759880367442896e+00
2.431761711478011456e+00
2.431761711478011456e+00
2.320945829645680192e+00
2.320945829645680192e+00
2.253818781090731527e+00
2.253818781090731527e+00
2.219692739646595747e+00
2.219692739646595747e+00
2.219692739646595747e+00
2.170566240424817828e+00
2.170566240424817828e+00
2.182566606646931362e+00
2.182566606646931362e+00
2.212942533646656607e+00
2.212942533646656607e+00
2.246693563646351421e+00
2.246693563646351421e+00
2.308007934812463802e+00
2.308007934812463802e+00
2.337071321756645670e+00
2.337071321756645670e+00
2.360134525589770327e+00
2.360134525589770327e+00
2.398010681478316641e+00
2.398010681478316641e+00
2.398010681478316641e+00
2.357134434034241721e+00
2.357134434034241721e+00
2.376447523422955843e+00
2.376447523422955843e+00
2.408698507644886799e+00
2.408698507644886799e+00
2.298820154423657947e+00
2.298820154423657947e+00
2.257006378368480615e+00
2.257006378368480615e+00
2.215942625202185212e+00
2.215942625202185212e+00
2.188754295480208611e+00
2.188754295480208611e+00
2.219130222479934300e+00
2.219130222479934300e+00
2.219130222479934300e+00
2.238818323313089387e+00
2.238818323313089387e+00
2.286257271034882521e+00
2.286257271034882521e+00
2.340633930478835278e+00
2.340633930478835278e+00
2.350946745200964472e+00
2.350946745200964472e+00
2.401385784478286212e+00
2.401385784478286212e+00
2.411698599200414961e+00
2.411698599200414961e+00
2.366509720145268059e+00
2.366509720145268059e+00
2.412823633533738299e+00
2.412823633533738299e+00
2.374384960478530537e+00
2.374384960478530537e+00
2.272006836146122755e+00
2.272006836146122755e+00
2.248381115146336207e+00
2.248381115146336207e+00
2.248381115146336207e+00
2.192129398480178182e+00
2.192129398480178182e+00
2.179003997924741309e+00
2.179003997924741309e+00
2.217630176702169997e+00
2.217630176702169997e+00
2.232068117313150690e+00
2.232068117313150690e+00
2.289444868312631609e+00
2.289444868312631609e+00
2.343259010589922919e+00
2.343259010589922919e+00
2.356009399700918827e+00
2.356009399700918827e+00
2.356009399700918827e+00
2.405698416089358194e+00
2.405698416089358194e+00
2.391447981200597983e+00
2.391447981200597983e+00
2.361259559923093665e+00
2.361259559923093665e+00
2.420698873867000778e+00
2.420698873867000778e+00
2.331446150090029423e+00
2.331446150090029423e+00
2.253818781090731527e+00
2.253818781090731527e+00
2.236755760368663637e+00
2.236755760368663637e+00
2.183879146702475182e+00
2.183879146702475182e+00
2.183879146702475182e+00
2.191754387035737217e+00
2.191754387035737217e+00
2.223817865535447247e+00
2.223817865535447247e+00
