2.239193334757530351e+00
2.239193334757530351e+00
2.239193334757530351e+00
2.303132786034730373e+00
2.303132786034730373e+00
2.303132786034730373e+00
2.303132786034730373e+00
2.349821710867641578e+00
2.349821710867641578e+00
2.349821710867641578e+00
2.389010406811731269e+00
2.389010406811731269e+00
2.389010406811731269e+00
2.430261665700247153e+00
2.430261665700247153e+00
2.430261665700247153e+00
2.430261665700247153e+00
2.386947843867305519e+00
2.386947843867305519e+00
2.386947843867305519e+00
2.388635395367290304e+00
2.388635395367290304e+00
2.388635395367290304e+00
2.388635395367290304e+00
2.401385784478286212e+00
2.401385784478286212e+00
2.401385784478286212e+00
2.292069948423719250e+00
2.292069948423719250e+00
2.292069948423719250e+00
2.255131321146275347e+00
2.255131321146275347e+00
2.255131321146275347e+00
2.255131321146275347e+00
2.211817499313333268e+00
2.211817499313333268e+00
2.211817499313333268e+00
2.167378643147068740e+00
2.167378643147068740e+00
2.167378643147068740e+00
2.195692007202368234e+00
2.195692007202368234e+00
2.195692007202368234e+00
2.195692007202368234e+00
2.212005005035553751e+00
2.212005005035553751e+00
2.212005005035553751e+00
2.263569078646198829e+00
2.263569078646198829e+00
2.263569078646198829e+00
2.326383495590075512e+00
2.326383495590075512e+00
2.326383495590075512e+00
2.326383495590075512e+00
2.345321573534348669e+00
2.345321573534348669e+00
2.345321573534348669e+00
2.398760704367198571e+00
2.398760704367198571e+00
2.398760704367198571e+00
2.398760704367198571e+00
2.418261299478133619e+00
2.418261299478133619e+00
2.363884640034180418e+00
2.363884640034180418e+00
2.363884640034180418e+00
2.363884640034180418e+00
2.409073519089327764e+00
2.409073519089327764e+00
2.409073519089327764e+00
2.370447340311899076e+00
2.370447340311899076e+00
2.370447340311899076e+00
2.264881618701742649e+00
2.264881618701742649e+00
2.264881618701742649e+00
2.264881618701742649e+00
2.244631000701926116e+00
2.244631000701926116e+00
2.244631000701926116e+00
2.195504501480147752e+00
2.195504501480147752e+00
2.195504501480147752e+00
2.195504501480147752e+00
2.171316263313699757e+00
2.171316263313699757e+00
2.171316263313699757e+00
2.195504501480147752e+00
2.195504501480147752e+00
2.208629902035584625e+00
2.208629902035584625e+00
2.208629902035584625e+00
2.278382030701620931e+00
2.278382030701620931e+00
2.278382030701620931e+00
2.338196356089969008e+00
2.338196356089969008e+00
2.338196356089969008e+00
2.355446882534256936e+00
2.355446882534256936e+00
2.355446882534256936e+00
2.355446882534256936e+00
2.420886379589221260e+00
2.420886379589221260e+00
2.420886379589221260e+00
2.408886013367107282e+00
2.408886013367107282e+00
2.408886013367107282e+00
2.370447340311899076e+00
2.370447340311899076e+00
2.370447340311899076e+00
2.370447340311899076e+00
2.427449079866939474e+00
2.427449079866939474e+00
2.427449079866939474e+00
2.345884090701010116e+00
2.345884090701010116e+00
2.345884090701010116e+00
2.270506790368358452e+00
2.270506790368358452e+00
2.270506790368358452e+00
2.270506790368358452e+00
2.241630909146397510e+00
2.241630909146397510e+00
2.241630909146397510e+00
2.173003814813684542e+00
2.173003814813684542e+00
2.173003814813684542e+00
2.173003814813684542e+00
2.173003814813684542e+00
2.173003814813684542e+00
2.173003814813684542e+00
2.208442396313364142e+00
2.208442396313364142e+00
2.208442396313364142e+00
2.235443220313119816e+00
2.235443220313119816e+00
2.235443220313119816e+00
2.299570177312540320e+00
2.299570177312540320e+00
2.299570177312540320e+00
2.338196356089969008e+00
2.338196356089969008e+00
2.338196356089969008e+00
2.338196356089969008e+00
2.359759514145329362e+00
2.359759514145329362e+00
2.359759514145329362e+00
2.402135807367168141e+00
2.402135807367168141e+00
2.402135807367168141e+00
2.374384960478530537e+00
2.374384960478530537e+00
2.374384960478530537e+00
2.374384960478530537e+00
2.368947294534135217e+00
2.368947294534135217e+00
2.368947294534135217e+00
2.418261299478133619e+00
2.418261299478133619e+00
2.418261299478133619e+00
2.315508163701284872e+00
2.315508163701284872e+00
2.315508163701284872e+00
2.315508163701284872e+00
2.260943998535111632e+00
2.260943998535111632e+00
2.260943998535111632e+00
2.230568071535386387e+00
2.230568071535386387e+00
2.230568071535386387e+00
2.181066560869167059e+00
2.181066560869167059e+00
2.181066560869167059e+00
2.181066560869167059e+00
2.190816858424634361e+00
2.190816858424634361e+00
2.190816858424634361e+00
2.208629902035584625e+00
2.208629902035584625e+00
2.208629902035584625e+00
2.252506241035188150e+00
2.252506241035188150e+00
2.252506241035188150e+00
2.252506241035188150e+00
2.320195806756797818e+00
2.320195806756797818e+00
2.320195806756797818e+00
2.342883999145481511e+00
2.342883999145481511e+00
2.342883999145481511e+00
2.342883999145481511e+00
2.382260200811792572e+00
2.382260200811792572e+00
2.382260200811792572e+00
2.422198919644764192e+00
2.422198919644764192e+00
2.422198919644764192e+00
2.382822717978454019e+00
2.382822717978454019e+00
2.382822717978454019e+00
2.382822717978454019e+00
2.398010681478316641e+00
2.398010681478316641e+00
2.398010681478316641e+00
2.391822992645039392e+00
2.391822992645039392e+00
2.391822992645039392e+00
2.277444502090518075e+00
2.277444502090518075e+00
2.277444502090518075e+00
2.277444502090518075e+00
2.250631183812982439e+00
2.250631183812982439e+00
2.250631183812982439e+00
2.202817224646748340e+00
2.202817224646748340e+00
2.202817224646748340e+00
2.163441022980437278e+00
2.163441022980437278e+00
2.163441022980437278e+00
2.163441022980437278e+00
2.194379467146824858e+00
2.194379467146824858e+00
2.194379467146824858e+00
2.213130039368877089e+00
2.213130039368877089e+00
2.213130039368877089e+00
2.275944456312753772e+00
2.275944456312753772e+00
2.275944456312753772e+00
2.275944456312753772e+00
2.338758873256630455e+00
2.338758873256630455e+00
2.338758873256630455e+00
2.345321573534348669e+00
2.345321573534348669e+00
2.345321573534348669e+00
2.404573381756035300e+00
2.404573381756035300e+00
2.404573381756035300e+00
2.404573381756035300e+00
2.404948393200476264e+00
2.404948393200476264e+00
2.404948393200476264e+00
2.353196813867610704e+00
2.353196813867610704e+00
2.353196813867610704e+00
2.353196813867610704e+00
2.402698324533829588e+00
2.402698324533829588e+00
2.402698324533829588e+00
2.339133884701071420e+00
2.339133884701071420e+00
2.339133884701071420e+00
2.253631275368511044e+00
2.253631275368511044e+00
2.253631275368511044e+00
2.241255897701956545e+00
2.241255897701956545e+00
2.241255897701956545e+00
2.241255897701956545e+00
2.194004455702383449e+00
2.194004455702383449e+00
2.194004455702383449e+00
2.183879146702475182e+00
2.183879146702475182e+00
2.183879146702475182e+00
2.220630268257698603e+00
2.220630268257698603e+00
2.220630268257698603e+00
2.236005737479781263e+00
2.236005737479781263e+00
2.236005737479781263e+00
2.236005737479781263e+00
2.302945280312509890e+00
2.302945280312509890e+00
2.302945280312509890e+00
2.353009308145390222e+00
2.353009308145390222e+00
2.353009308145390222e+00
2.370259834589678594e+00
2.370259834589678594e+00
2.370259834589678594e+00
2.370259834589678594e+00
2.428386608478041886e+00
2.428386608478041886e+00
2.428386608478041886e+00
2.404010864589373409e+00
2.404010864589373409e+00
2.404010864589373409e+00
2.371572374645222414e+00
2.371572374645222414e+00
2.371572374645222414e+00
2.371572374645222414e+00
2.417323770867030763e+00
2.417323770867030763e+00
2.417323770867030763e+00
2.321695852534562121e+00
2.321695852534562121e+00
2.321695852534562121e+00
2.255693838312936794e+00
2.255693838312936794e+00
2.255693838312936794e+00
2.255693838312936794e+00
2.226255439924313961e+00
2.226255439924313961e+00
2.226255439924313961e+00
2.168691183202612560e+00
2.168691183202612560e+00
2.168691183202612560e+00
2.168691183202612560e+00
2.171878780480361648e+00
2.171878780480361648e+00
2.171878780480361648e+00
2.203192236091189304e+00
2.203192236091189304e+00
2.203192236091189304e+00
2.235068208868678852e+00
2.235068208868678852e+00
2.235068208868678852e+00
2.235068208868678852e+00
2.301070223090304623e+00
2.301070223090304623e+00
2.301070223090304623e+00
2.336133793145542814e+00
2.336133793145542814e+00
2.336133793145542814e+00
2.370822351756340485e+00
2.370822351756340485e+00
2.370822351756340485e+00
2.370822351756340485e+00
2.425574022644734207e+00
2.425574022644734207e+00
2.425574022644734207e+00
2.386385326700643628e+00
2.386385326700643628e+00
2.386385326700643628e+00
2.392760521256141804e+00
2.392760521256141804e+00
2.392760521256141804e+00
2.392760521256141804e+00
2.413386150700399746e+00
2.413386150700399746e+00
2.413386150700399746e+00
2.298257637256996500e+00
2.298257637256996500e+00
2.298257637256996500e+00
2.248756126590777171e+00
2.248756126590777171e+00
2.248756126590777171e+00
2.248756126590777171e+00
2.206942350535599839e+00
2.206942350535599839e+00
2.206942350535599839e+00
2.164566057313760616e+00
2.164566057313760616e+00
2.164566057313760616e+00
2.188379284035767647e+00
2.188379284035767647e+00
2.188379284035767647e+00
2.188379284035767647e+00
2.209004913480026033e+00
2.209004913480026033e+00
2.209004913480026033e+00
2.255506332590716312e+00
2.255506332590716312e+00
2.255506332590716312e+00
2.339508896145511940e+00
2.339508896145511940e+00
2.339508896145511940e+00
2.339508896145511940e+00
2.356384411145359792e+00
2.356384411145359792e+00
2.356384411145359792e+00
2.399885738700521909e+00
2.399885738700521909e+00
2.399885738700521909e+00
2.422761436811426083e+00
2.422761436811426083e+00
2.422761436811426083e+00
2.422761436811426083e+00
2.381885189367351607e+00
2.381885189367351607e+00
2.381885189367351607e+00
2.412823633533738299e+00
2.412823633533738299e+00
2.412823633533738299e+00
2.412823633533738299e+00
2.383197729422894984e+00
2.383197729422894984e+00
2.383197729422894984e+00
2.277444502090518075e+00
2.277444502090518075e+00
2.277444502090518075e+00
2.248381115146336207e+00
2.248381115146336207e+00
2.248381115146336207e+00
2.248381115146336207e+00
2.193441938535722002e+00
2.193441938535722002e+00
2.193441938535722002e+00
2.166628620258186366e+00
2.166628620258186366e+00
2.166628620258186366e+00
2.199067110202337361e+00
2.199067110202337361e+00
2.199067110202337361e+00
2.221942808313242423e+00
2.221942808313242423e+00
2.221942808313242423e+00
2.221942808313242423e+00
2.282319650868251504e+00
2.282319650868251504e+00
2.282319650868251504e+00
2.334821253089998994e+00
2.334821253089998994e+00
2.334821253089998994e+00
2.350196722312082542e+00
2.350196722312082542e+00
2.350196722312082542e+00
2.350196722312082542e+00
2.408135990478225352e+00
2.408135990478225352e+00
2.408135990478225352e+00
2.405885921811578676e+00
2.405885921811578676e+00
2.405885921811578676e+00
2.367822260200811879e+00
2.367822260200811879e+00
2.367822260200811879e+00
2.367822260200811879e+00
2.423323953978087530e+00
2.423323953978087530e+00
2.423323953978087530e+00
2.341571459089938134e+00
2.341571459089938134e+00
2.341571459089938134e+00
2.256818872646260132e+00
2.256818872646260132e+00
2.256818872646260132e+00
2.256818872646260132e+00
2.234693197424237443e+00
2.234693197424237443e+00
2.234693197424237443e+00
2.176566423535874595e+00
2.176566423535874595e+00
2.176566423535874595e+00
2.178816492202520827e+00
2.178816492202520827e+00
2.178816492202520827e+00
2.178816492202520827e+00
2.209004913480026033e+00
2.209004913480026033e+00
2.209004913480026033e+00
2.233193151646474028e+00
2.233193151646474028e+00
2.233193151646474028e+00
2.294507522812585520e+00
2.294507522812585520e+00
2.294507522812585520e+00
2.294507522812585520e+00
2.340633930478835278e+00
2.340633930478835278e+00
2.340633930478835278e+00
2.365947202978606612e+00
2.365947202978606612e+00
2.365947202978606612e+00
2.424073976866969904e+00
2.424073976866969904e+00
2.424073976866969904e+00
2.424073976866969904e+00
2.393135532700583212e+00
2.393135532700583212e+00
2.393135532700583212e+00
2.382072695089572090e+00
2.382072695089572090e+00
2.382072695089572090e+00
2.416948759422589799e+00
2.416948759422589799e+00
2.416948759422589799e+00
2.416948759422589799e+00
2.308195440534684284e+00
2.308195440534684284e+00
2.308195440534684284e+00
2.246506057924130939e+00
2.246506057924130939e+00
2.246506057924130939e+00
2.219317728202154782e+00
2.219317728202154782e+00
2.219317728202154782e+00
2.219317728202154782e+00
2.172628803369243577e+00
2.172628803369243577e+00
2.172628803369243577e+00
2.188191778313547164e+00
2.188191778313547164e+00
2.188191778313547164e+00
2.188191778313547164e+00
2.204317270424512643e+00
2.204317270424512643e+00
2.204317270424512643e+00
2.242193426313058957e+00
2.242193426313058957e+00
2.242193426313058957e+00
2.307070406201360946e+00
2.307070406201360946e+00
2.307070406201360946e+00
2.307070406201360946e+00
2.331821161534470832e+00
2.331821161534470832e+00
2.331821161534470832e+00
2.371572374645222414e+00
2.371572374645222414e+00
2.371572374645222414e+00
2.414323679311502602e+00
2.414323679311502602e+00
2.414323679311502602e+00
2.414323679311502602e+00
2.368572283089693808e+00
2.368572283089693808e+00
2.368572283089693808e+00
2.393510544145024177e+00
2.393510544145024177e+00
2.393510544145024177e+00
2.408698507644886799e+00
2.408698507644886799e+00
2.408698507644886799e+00
2.408698507644886799e+00
2.294882534257026929e+00
2.294882534257026929e+00
2.294882534257026929e+00
2.255131321146275347e+00
2.255131321146275347e+00
2.255131321146275347e+00
2.208442396313364142e+00
2.208442396313364142e+00
2.208442396313364142e+00
2.208442396313364142e+00
2.179003997924741309e+00
2.179003997924741309e+00
2.179003997924741309e+00
2.204879787591174090e+00
2.204879787591174090e+00
2.204879787591174090e+00
2.224567888424329176e+00
2.224567888424329176e+00
2.224567888424329176e+00
2.224567888424329176e+00
2.280069582201605716e+00
2.280069582201605716e+00
2.280069582201605716e+00
2.345134067812128187e+00
2.345134067812128187e+00
2.345134067812128187e+00
2.353384319589831186e+00
2.353384319589831186e+00
2.353384319589831186e+00
2.353384319589831186e+00
2.398948210089419053e+00
2.398948210089419053e+00
2.398948210089419053e+00
2.417886288033692654e+00
2.417886288033692654e+00
2.417886288033692654e+00
2.375885006256294396e+00
2.375885006256294396e+00
2.375885006256294396e+00
2.375885006256294396e+00
2.420886379589221260e+00
2.420886379589221260e+00
2.420886379589221260e+00
2.368009765923032361e+00
2.368009765923032361e+00
2.368009765923032361e+00
2.368009765923032361e+00
2.269006744590594149e+00
2.269006744590594149e+00
2.269006744590594149e+00
2.239568346201971760e+00
2.239568346201971760e+00
2.239568346201971760e+00
2.179566515091402756e+00
2.179566515091402756e+00
2.179566515091402756e+00
2.179566515091402756e+00
2.165128574480422063e+00
2.165128574480422063e+00
2.165128574480422063e+00
2.200192144535660699e+00
2.200192144535660699e+00
2.200192144535660699e+00
2.218005188146610962e+00
2.218005188146610962e+00
2.218005188146610962e+00
2.218005188146610962e+00
2.284194708090456771e+00
2.284194708090456771e+00
2.284194708090456771e+00
2.331258644367808941e+00
2.331258644367808941e+00
2.331258644367808941e+00
2.350384228034303025e+00
2.350384228034303025e+00
2.350384228034303025e+00
2.350384228034303025e+00
2.419011322367015993e+00
2.419011322367015993e+00
2.419011322367015993e+00
2.405510910367137711e+00
2.405510910367137711e+00
2.405510910367137711e+00
2.378697592089602519e+00
2.378697592089602519e+00
2.378697592089602519e+00
2.378697592089602519e+00
2.425386516922513280e+00
2.425386516922513280e+00
2.425386516922513280e+00
2.328633564256721744e+00
2.328633564256721744e+00
2.328633564256721744e+00
2.328633564256721744e+00
2.250068666646320992e+00
2.250068666646320992e+00
2.250068666646320992e+00
2.225317911313211550e+00
2.225317911313211550e+00
2.225317911313211550e+00
2.180316537980285130e+00
2.180316537980285130e+00
2.180316537980285130e+00
2.180316537980285130e+00
2.181254066591387542e+00
2.181254066591387542e+00
2.181254066591387542e+00
2.209192419202246516e+00
2.209192419202246516e+00
2.209192419202246516e+00
2.241255897701956545e+00
2.241255897701956545e+00
2.241255897701956545e+00
2.241255897701956545e+00
2.310633014923550999e+00
2.310633014923550999e+00
2.310633014923550999e+00
2.350196722312082542e+00
2.350196722312082542e+00
2.350196722312082542e+00
2.381135166478469234e+00
2.381135166478469234e+00
2.381135166478469234e+00
2.381135166478469234e+00
2.429886654255806189e+00
2.429886654255806189e+00
2.429886654255806189e+00
2.384322763756218322e+00
2.384322763756218322e+00
2.384322763756218322e+00
2.377385052034058699e+00
2.377385052034058699e+00
2.377385052034058699e+00
2.377385052034058699e+00
2.407385967589342979e+00
2.407385967589342979e+00
2.407385967589342979e+00
2.293382488479262626e+00
2.293382488479262626e+00
2.293382488479262626e+00
2.242380932035279439e+00
2.242380932035279439e+00
2.242380932035279439e+00
2.242380932035279439e+00
2.200567155980101663e+00
2.200567155980101663e+00
2.200567155980101663e+00
2.152378185369426600e+00
2.152378185369426600e+00
2.152378185369426600e+00
2.152378185369426600e+00
2.179754020813623683e+00
2.179754020813623683e+00
2.179754020813623683e+00
2.206192327646717910e+00
2.206192327646717910e+00
2.206192327646717910e+00
2.261694021423993561e+00
2.261694021423993561e+00
2.261694021423993561e+00
2.333883724478896582e+00
2.333883724478896582e+00
2.333883724478896582e+00
2.333883724478896582e+00
2.350946745200964472e+00
2.350946745200964472e+00
2.350946745200964472e+00
2.395198095645008962e+00
2.395198095645008962e+00
2.395198095645008962e+00
2.434199285866878171e+00
2.434199285866878171e+00
2.434199285866878171e+00
2.434199285866878171e+00
2.388072878200628413e+00
2.388072878200628413e+00
2.388072878200628413e+00
2.413948667867061193e+00
2.413948667867061193e+00
2.413948667867061193e+00
2.391447981200597983e+00
2.391447981200597983e+00
2.391447981200597983e+00
2.391447981200597983e+00
2.277444502090518075e+00
2.277444502090518075e+00
2.277444502090518075e+00
2.253256263924070080e+00
2.253256263924070080e+00
2.253256263924070080e+00
2.195692007202368234e+00
2.195692007202368234e+00
2.195692007202368234e+00
2.195692007202368234e+00
2.163816034424878687e+00
2.163816034424878687e+00
2.163816034424878687e+00
2.194566972869045340e+00
2.194566972869045340e+00
2.194566972869045340e+00
2.212192510757774677e+00
2.212192510757774677e+00
2.212192510757774677e+00
2.212192510757774677e+00
2.274256904812768987e+00
2.274256904812768987e+00
2.274256904812768987e+00
2.336133793145542814e+00
2.336133793145542814e+00
2.336133793145542814e+00
2.347384136478774419e+00
2.347384136478774419e+00
2.347384136478774419e+00
2.347384136478774419e+00
2.412073610644855925e+00
2.412073610644855925e+00
2.412073610644855925e+00
2.413573656422620228e+00
2.413573656422620228e+00
2.413573656422620228e+00
2.413573656422620228e+00
2.372697408978545752e+00
2.372697408978545752e+00
2.372697408978545752e+00
2.425011505478072316e+00
2.425011505478072316e+00
2.425011505478072316e+00
2.347384136478774419e+00
2.347384136478774419e+00
2.347384136478774419e+00
2.347384136478774419e+00
2.250256172368541474e+00
2.250256172368541474e+00
2.250256172368541474e+00
2.222130314035462462e+00
2.222130314035462462e+00
2.222130314035462462e+00
2.157815851313821920e+00
2.157815851313821920e+00
2.157815851313821920e+00
2.157815851313821920e+00
2.149003082369457029e+00
2.149003082369457029e+00
2.149003082369457029e+00
2.192879421369060555e+00
2.192879421369060555e+00
2.192879421369060555e+00
2.223255348368785356e+00
2.223255348368785356e+00
2.223255348368785356e+00
2.223255348368785356e+00
2.283069673757133433e+00
2.283069673757133433e+00
2.283069673757133433e+00
2.323008392590105942e+00
2.323008392590105942e+00
2.323008392590105942e+00
2.366884731589709023e+00
2.366884731589709023e+00
2.366884731589709023e+00
2.366884731589709023e+00
2.449012237922299828e+00
2.449012237922299828e+00
2.449012237922299828e+00
2.429324137089144742e+00
2.429324137089144742e+00
2.429324137089144742e+00
2.404198370311593891e+00
2.404198370311593891e+00
2.404198370311593891e+00
2.404198370311593891e+00
2.440949491866817311e+00
2.440949491866817311e+00
2.440949491866817311e+00
2.323945921201208797e+00
2.323945921201208797e+00
2.323945921201208797e+00
2.255318826868495830e+00
2.255318826868495830e+00
2.255318826868495830e+00
2.255318826868495830e+00
2.226255439924313961e+00
2.226255439924313961e+00
2.226255439924313961e+00
2.172066286202582130e+00
2.172066286202582130e+00
2.172066286202582130e+00
2.184816675313578038e+00
2.184816675313578038e+00
2.184816675313578038e+00
2.184816675313578038e+00
2.211442487868892304e+00
2.211442487868892304e+00
2.211442487868892304e+00
2.289444868312631609e+00
2.289444868312631609e+00
2.289444868312631609e+00
2.362197088534196077e+00
2.362197088534196077e+00
2.362197088534196077e+00
2.362197088534196077e+00
2.329196081423383191e+00
2.329196081423383191e+00
2.329196081423383191e+00
2.368384777367473326e+00
2.368384777367473326e+00
2.368384777367473326e+00
2.415636219367045978e+00
2.415636219367045978e+00
2.415636219367045978e+00
2.415636219367045978e+00
2.371572374645222414e+00
2.371572374645222414e+00
2.371572374645222414e+00
2.389572923978392716e+00
2.389572923978392716e+00
2.389572923978392716e+00
2.389572923978392716e+00
2.409636036255989211e+00
2.409636036255989211e+00
2.409636036255989211e+00
2.295257545701467894e+00
2.295257545701467894e+00
2.295257545701467894e+00
2.259631458479567812e+00
2.259631458479567812e+00
2.259631458479567812e+00
2.205254799035615054e+00
2.205254799035615054e+00
2.205254799035615054e+00
2.205254799035615054e+00
2.169441206091494490e+00
2.169441206091494490e+00
2.169441206091494490e+00
2.203942258980071234e+00
2.203942258980071234e+00
2.203942258980071234e+00
2.203942258980071234e+00
2.221005279702139568e+00
2.221005279702139568e+00
2.221005279702139568e+00
2.268444227423932702e+00
2.268444227423932702e+00
2.268444227423932702e+00
2.325070955534531691e+00
2.325070955534531691e+00
2.325070955534531691e+00
2.325070955534531691e+00
2.344571550645466296e+00
2.344571550645466296e+00
2.344571550645466296e+00
2.394823084200567997e+00
2.394823084200567997e+00
2.394823084200567997e+00
2.411511093478194478e+00
2.411511093478194478e+00
2.411511093478194478e+00
2.411511093478194478e+00
2.361447065645314147e+00
2.361447065645314147e+00
2.361447065645314147e+00
2.404198370311593891e+00
2.404198370311593891e+00
2.404198370311593891e+00
2.360322031311990809e+00
2.360322031311990809e+00
2.360322031311990809e+00
2.360322031311990809e+00
2.259631458479567812e+00
2.259631458479567812e+00
2.259631458479567812e+00
2.232630634479812137e+00
2.232630634479812137e+00
2.232630634479812137e+00
2.176941434980315559e+00
2.176941434980315559e+00
2.176941434980315559e+00
2.176941434980315559e+00
2.160065919980468152e+00
2.160065919980468152e+00
2.160065919980468152e+00
2.204879787591174090e+00
2.204879787591174090e+00
2.204879787591174090e+00
2.223817865535447247e+00
2.223817865535447247e+00
2.223817865535447247e+00
2.223817865535447247e+00
2.277444502090518075e+00
2.277444502090518075e+00
2.277444502090518075e+00
2.330321115756706529e+00
2.330321115756706529e+00
2.330321115756706529e+00
2.350196722312082542e+00
2.350196722312082542e+00
2.350196722312082542e+00
2.350196722312082542e+00
2.416573747978148834e+00
2.416573747978148834e+00
2.416573747978148834e+00
2.401385784478286212e+00
2.401385784478286212e+00
2.401385784478286212e+00
2.367259743034150432e+00
2.367259743034150432e+00
2.367259743034150432e+00
2.367259743034150432e+00
2.420886379589221260e+00
2.420886379589221260e+00
2.420886379589221260e+00
2.336321298867763296e+00
2.336321298867763296e+00
2.336321298867763296e+00
2.262069032868434526e+00
2.262069032868434526e+00
2.262069032868434526e+00
2.262069032868434526e+00
2.236005737479781263e+00
2.236005737479781263e+00
2.236005737479781263e+00
2.174691366313669327e+00
2.174691366313669327e+00
2.174691366313669327e+00
2.174691366313669327e+00
2.178628986480300345e+00
2.178628986480300345e+00
2.178628986480300345e+00
2.210317453535568966e+00
2.210317453535568966e+00
2.210317453535568966e+00
2.244631000701926116e+00
2.244631000701926116e+00
2.244631000701926116e+00
2.311758049256874337e+00
2.311758049256874337e+00
2.311758049256874337e+00
2.346259102145451525e+00
2.346259102145451525e+00
2.346259102145451525e+00
2.346259102145451525e+00
2.370822351756340485e+00
2.370822351756340485e+00
2.370822351756340485e+00
2.422386425366985119e+00
2.422386425366985119e+00
2.422386425366985119e+00
2.422386425366985119e+00
2.390510452589495571e+00
2.390510452589495571e+00
2.390510452589495571e+00
2.382260200811792572e+00
2.382260200811792572e+00
2.382260200811792572e+00
2.412073610644855925e+00
2.412073610644855925e+00
2.412073610644855925e+00
2.306132877590258534e+00
2.306132877590258534e+00
2.306132877590258534e+00
2.306132877590258534e+00
2.255318826868495830e+00
2.255318826868495830e+00
2.255318826868495830e+00
2.211442487868892304e+00
2.211442487868892304e+00
2.211442487868892304e+00
2.211442487868892304e+00
2.165316080202642990e+00
2.165316080202642990e+00
2.165316080202642990e+00
2.191004364146854844e+00
2.191004364146854844e+00
2.191004364146854844e+00
2.207129856257820322e+00
2.207129856257820322e+00
2.207129856257820322e+00
2.207129856257820322e+00
2.247443586535233351e+00
2.247443586535233351e+00
2.247443586535233351e+00
2.311195532090212890e+00
2.311195532090212890e+00
2.311195532090212890e+00
2.340821436201055761e+00
2.340821436201055761e+00
2.340821436201055761e+00
2.340821436201055761e+00
2.385447798089541660e+00
2.385447798089541660e+00
2.385447798089541660e+00
2.420323862422559369e+00
2.420323862422559369e+00
2.420323862422559369e+00
2.376822534867396808e+00
2.376822534867396808e+00
2.376822534867396808e+00
2.376822534867396808e+00
2.401573290200506694e+00
2.401573290200506694e+00
2.401573290200506694e+00
2.391447981200597983e+00
2.391447981200597983e+00
2.391447981200597983e+00
2.286632282479323930e+00
2.286632282479323930e+00
2.286632282479323930e+00
2.286632282479323930e+00
2.258881435590685438e+00
2.258881435590685438e+00
2.258881435590685438e+00
2.197942075869014911e+00
2.197942075869014911e+00
2.197942075869014911e+00
2.163253517258217240e+00
2.163253517258217240e+00
2.163253517258217240e+00
2.163253517258217240e+00
2.197754570146794428e+00
2.197754570146794428e+00
2.197754570146794428e+00
2.213505050813318054e+00
2.213505050813318054e+00
2.213505050813318054e+00
2.213505050813318054e+00
2.264694112979522167e+00
2.264694112979522167e+00
2.264694112979522167e+00
2.326758507034516477e+00
2.326758507034516477e+00
2.326758507034516477e+00
2.344384044923245813e+00
2.344384044923245813e+00
2.344384044923245813e+00
2.344384044923245813e+00
2.412261116367076408e+00
2.412261116367076408e+00
2.412261116367076408e+00
2.416948759422589799e+00
2.416948759422589799e+00
2.416948759422589799e+00
2.369134800256355700e+00
2.369134800256355700e+00
2.369134800256355700e+00
2.425011505478072316e+00
2.425011505478072316e+00
2.425011505478072316e+00
2.425011505478072316e+00
2.355821893978697901e+00
2.355821893978697901e+00
2.355821893978697901e+00
2.264131595812860720e+00
2.264131595812860720e+00
2.264131595812860720e+00
2.238443311868648422e+00
2.238443311868648422e+00
2.238443311868648422e+00
2.238443311868648422e+00
2.173753837702566916e+00
2.173753837702566916e+00
2.173753837702566916e+00
2.170003723258155937e+00
2.170003723258155937e+00
2.170003723258155937e+00
2.170003723258155937e+00
2.209567430646687480e+00
2.209567430646687480e+00
2.209567430646687480e+00
2.238068300424207457e+00
2.238068300424207457e+00
2.238068300424207457e+00
2.298257637256996500e+00
2.298257637256996500e+00
2.298257637256996500e+00
2.341008941923276243e+00
2.341008941923276243e+00
2.341008941923276243e+00
2.364447157200842309e+00
2.364447157200842309e+00
2.364447157200842309e+00
2.364447157200842309e+00
2.427074068422498510e+00
2.427074068422498510e+00
2.427074068422498510e+00
2.407198461867122496e+00
2.407198461867122496e+00
2.407198461867122496e+00
2.376072511978514878e+00
2.376072511978514878e+00
2.376072511978514878e+00
2.376072511978514878e+00
2.413761162144840711e+00
2.413761162144840711e+00
2.413761162144840711e+00
2.316070680867946319e+00
2.316070680867946319e+00
2.316070680867946319e+00
2.316070680867946319e+00
2.255693838312936794e+00
2.255693838312936794e+00
2.255693838312936794e+00
2.223067842646564873e+00
2.223067842646564873e+00
2.223067842646564873e+00
2.165128574480422063e+00
2.165128574480422063e+00
2.165128574480422063e+00
2.165128574480422063e+00
2.176003906369212704e+00
2.176003906369212704e+00
2.176003906369212704e+00
2.205442304757835537e+00
2.205442304757835537e+00
2.205442304757835537e+00
2.245568529313028083e+00
2.245568529313028083e+00
2.245568529313028083e+00
2.245568529313028083e+00
2.314945646534623425e+00
2.314945646534623425e+00
2.314945646534623425e+00
2.345134067812128187e+00
2.345134067812128187e+00
2.345134067812128187e+00
2.377760063478499664e+00
2.377760063478499664e+00
2.377760063478499664e+00
2.377760063478499664e+00
2.429511642811365224e+00
2.429511642811365224e+00
2.429511642811365224e+00
2.391635486922818910e+00
2.391635486922818910e+00
2.391635486922818910e+00
2.400260750144962874e+00
2.400260750144962874e+00
2.400260750144962874e+00
2.400260750144962874e+00
2.418448805200354101e+00
2.418448805200354101e+00
2.418448805200354101e+00
2.295257545701467894e+00
2.295257545701467894e+00
2.295257545701467894e+00
2.247068575090792386e+00
2.247068575090792386e+00
2.247068575090792386e+00
2.247068575090792386e+00
2.205817316202276945e+00
2.205817316202276945e+00
2.205817316202276945e+00
2.165128574480422063e+00
2.165128574480422063e+00
2.165128574480422063e+00
2.165128574480422063e+00
2.190629352702413879e+00
2.190629352702413879e+00
2.190629352702413879e+00
2.208629902035584625e+00
2.208629902035584625e+00
2.208629902035584625e+00
2.257381389812921579e+00
2.257381389812921579e+00
2.257381389812921579e+00
2.257381389812921579e+00
2.317945738090151586e+00
2.317945738090151586e+00
2.317945738090151586e+00
2.343446516312143402e+00
2.343446516312143402e+00
2.343446516312143402e+00
2.398198187200537124e+00
2.398198187200537124e+00
2.398198187200537124e+00
2.398198187200537124e+00
2.421261391033662225e+00
2.421261391033662225e+00
2.421261391033662225e+00
2.374197454756310055e+00
2.374197454756310055e+00
2.374197454756310055e+00
2.412073610644855925e+00
2.412073610644855925e+00
2.412073610644855925e+00
2.412073610644855925e+00
2.370259834589678594e+00
2.370259834589678594e+00
2.370259834589678594e+00
2.256443861201819168e+00
2.256443861201819168e+00
2.256443861201819168e+00
2.233755668813135031e+00
2.233755668813135031e+00
2.233755668813135031e+00
2.233755668813135031e+00
2.179379009369182274e+00
2.179379009369182274e+00
2.179379009369182274e+00
2.161003448591571008e+00
2.161003448591571008e+00
2.161003448591571008e+00
2.197567064424573946e+00
2.197567064424573946e+00
2.197567064424573946e+00
2.197567064424573946e+00
2.217067659535508550e+00
2.217067659535508550e+00
2.217067659535508550e+00
2.279507065034943825e+00
2.279507065034943825e+00
2.279507065034943825e+00
2.332008667256691314e+00
2.332008667256691314e+00
2.332008667256691314e+00
2.350384228034303025e+00
2.350384228034303025e+00
2.350384228034303025e+00
2.350384228034303025e+00
2.420323862422559369e+00
2.420323862422559369e+00
2.420323862422559369e+00
2.417886288033692654e+00
2.417886288033692654e+00
2.417886288033692654e+00
2.390510452589495571e+00
2.390510452589495571e+00
2.390510452589495571e+00
2.390510452589495571e+00
2.449949766533402684e+00
2.449949766533402684e+00
2.449949766533402684e+00
2.356571916867580274e+00
2.356571916867580274e+00
2.356571916867580274e+00
2.271819330423901828e+00
2.271819330423901828e+00
2.271819330423901828e+00
2.271819330423901828e+00
2.239005829035309869e+00
2.239005829035309869e+00
2.239005829035309869e+00
2.172628803369243577e+00
2.172628803369243577e+00
2.172628803369243577e+00
2.173941343424787398e+00
2.173941343424787398e+00
2.173941343424787398e+00
2.173941343424787398e+00
2.206754844813379357e+00
2.206754844813379357e+00
2.206754844813379357e+00
2.234505691702016961e+00
2.234505691702016961e+00
2.234505691702016961e+00
2.234505691702016961e+00
2.296382580034791232e+00
2.296382580034791232e+00
2.296382580034791232e+00
2.334071230201117064e+00
2.334071230201117064e+00
2.334071230201117064e+00
2.362384594256416559e+00
2.362384594256416559e+00
2.362384594256416559e+00
2.362384594256416559e+00
2.424636494033631351e+00
2.424636494033631351e+00
2.424636494033631351e+00
2.390322946867275089e+00
2.390322946867275089e+00
2.390322946867275089e+00
2.380385143589587305e+00
2.380385143589587305e+00
2.380385143589587305e+00
2.380385143589587305e+00
2.416386242255928352e+00
2.416386242255928352e+00
2.416386242255928352e+00
2.308382946256904766e+00
2.308382946256904766e+00
2.308382946256904766e+00
2.252693746757408633e+00
2.252693746757408633e+00
2.252693746757408633e+00
2.252693746757408633e+00
2.222505325479903426e+00
2.222505325479903426e+00
2.222505325479903426e+00
2.169441206091494490e+00
2.169441206091494490e+00
2.169441206091494490e+00
2.191379375591296252e+00
2.191379375591296252e+00
2.191379375591296252e+00
2.191379375591296252e+00
2.210504959257789892e+00
2.210504959257789892e+00
2.210504959257789892e+00
2.250068666646320992e+00
2.250068666646320992e+00
2.250068666646320992e+00
2.314945646534623425e+00
2.314945646534623425e+00
2.314945646534623425e+00
2.314945646534623425e+00
2.345321573534348669e+00
2.345321573534348669e+00
2.345321573534348669e+00
2.385072786645100695e+00
2.385072786645100695e+00
2.385072786645100695e+00
2.420886379589221260e+00
2.420886379589221260e+00
2.420886379589221260e+00
2.420886379589221260e+00
2.370259834589678594e+00
2.370259834589678594e+00
2.370259834589678594e+00
2.393135532700583212e+00
2.393135532700583212e+00
2.393135532700583212e+00
2.400448255867183356e+00
2.400448255867183356e+00
2.400448255867183356e+00
2.400448255867183356e+00
2.283069673757133433e+00
2.283069673757133433e+00
2.283069673757133433e+00
2.246693563646351421e+00
2.246693563646351421e+00
2.246693563646351421e+00
2.246693563646351421e+00
2.194191961424603932e+00
2.194191961424603932e+00
2.194191961424603932e+00
2.161565965758232455e+00
2.161565965758232455e+00
2.161565965758232455e+00
2.192879421369060555e+00
2.192879421369060555e+00
2.192879421369060555e+00
2.192879421369060555e+00
2.217067659535508550e+00
2.217067659535508550e+00
2.217067659535508550e+00
2.285132236701559627e+00
2.285132236701559627e+00
2.285132236701559627e+00
2.345134067812128187e+00
2.345134067812128187e+00
2.345134067812128187e+00
2.345134067812128187e+00
2.360697042756431774e+00
2.360697042756431774e+00
2.360697042756431774e+00
2.413198644978179264e+00
2.413198644978179264e+00
2.413198644978179264e+00
2.421448896755882263e+00
2.421448896755882263e+00
2.421448896755882263e+00
2.421448896755882263e+00
2.380385143589587305e+00
2.380385143589587305e+00
2.380385143589587305e+00
2.419761345255897922e+00
2.419761345255897922e+00
2.419761345255897922e+00
2.361822077089755112e+00
2.361822077089755112e+00
2.361822077089755112e+00
2.361822077089755112e+00
2.263756584368419311e+00
2.263756584368419311e+00
2.263756584368419311e+00
2.239193334757530351e+00
2.239193334757530351e+00
2.239193334757530351e+00
2.176753929258095077e+00
2.176753929258095077e+00
2.176753929258095077e+00
2.176753929258095077e+00
2.162503494369335311e+00
2.162503494369335311e+00
2.162503494369335311e+00
2.200379650257881181e+00
2.200379650257881181e+00
2.200379650257881181e+00
2.223255348368785356e+00
2.223255348368785356e+00
2.223255348368785356e+00
2.223255348368785356e+00
2.282507156590471986e+00
2.282507156590471986e+00
2.282507156590471986e+00
2.328071047090059853e+00
2.328071047090059853e+00
2.328071047090059853e+00
2.345696584978789634e+00
2.345696584978789634e+00
2.345696584978789634e+00
2.345696584978789634e+00
2.410011047700430176e+00
2.410011047700430176e+00
2.410011047700430176e+00
2.396510635700552783e+00
2.396510635700552783e+00
2.396510635700552783e+00
2.396510635700552783e+00
2.365572191534165203e+00
2.365572191534165203e+00
2.365572191534165203e+00
2.412073610644855925e+00
2.412073610644855925e+00
2.412073610644855925e+00
2.322258369701224012e+00
2.322258369701224012e+00
2.322258369701224012e+00
2.259631458479567812e+00
2.259631458479567812e+00
2.259631458479567812e+00
2.259631458479567812e+00
2.237130771813104602e+00
2.237130771813104602e+00
2.237130771813104602e+00
2.180129032258064647e+00
2.180129032258064647e+00
2.180129032258064647e+00
2.180129032258064647e+00
2.182754112369151844e+00
2.182754112369151844e+00
2.182754112369151844e+00
2.214817590868861874e+00
2.214817590868861874e+00
2.214817590868861874e+00
2.242193426313058957e+00
2.242193426313058957e+00
2.242193426313058957e+00
2.242193426313058957e+00
2.313258095034638639e+00
2.313258095034638639e+00
2.313258095034638639e+00
2.341008941923276243e+00
2.341008941923276243e+00
2.341008941923276243e+00
2.365759697256386129e+00
2.365759697256386129e+00
2.365759697256386129e+00
2.365759697256386129e+00
2.417136265144810281e+00
2.417136265144810281e+00
2.417136265144810281e+00
2.376260017700735361e+00
2.376260017700735361e+00
2.376260017700735361e+00
2.384510269478438804e+00
2.384510269478438804e+00
2.384510269478438804e+00
2.384510269478438804e+00
2.416011230811487387e+00
2.416011230811487387e+00
2.416011230811487387e+00
2.311758049256874337e+00
2.311758049256874337e+00
2.311758049256874337e+00
2.273506881923887057e+00
2.273506881923887057e+00
2.273506881923887057e+00
2.273506881923887057e+00
2.228505508590960638e+00
2.228505508590960638e+00
2.228505508590960638e+00
2.180879055146946577e+00
2.180879055146946577e+00
2.180879055146946577e+00
2.204317270424512643e+00
2.204317270424512643e+00
2.204317270424512643e+00
2.204317270424512643e+00
2.218192693868831444e+00
2.218192693868831444e+00
2.262819055757316900e+00
2.262819055757316900e+00
2.326195989867855030e+00
2.326195989867855030e+00
2.343446516312143402e+00
2.343446516312143402e+00
2.391447981200597983e+00
2.391447981200597983e+00
2.422198919644764192e+00
2.422198919644764192e+00
2.422198919644764192e+00
2.373447431867427682e+00
2.373447431867427682e+00
2.407385967589342979e+00
2.407385967589342979e+00
2.377197546311838217e+00
2.377197546311838217e+00
2.268256721701712220e+00
2.268256721701712220e+00
2.236568254646443155e+00
2.236568254646443155e+00
2.180879055146946577e+00
2.180879055146946577e+00
2.156503311258278099e+00
2.156503311258278099e+00
2.188379284035767647e+00
2.188379284035767647e+00
2.188379284035767647e+00
2.208817407757805107e+00
2.208817407757805107e+00
2.272381847590563719e+00
2.272381847590563719e+00
2.338196356089969008e+00
2.338196356089969008e+00
2.358446974089785542e+00
2.358446974089785542e+00
2.422761436811426083e+00
2.422761436811426083e+00
2.425949034089175171e+00
2.425949034089175171e+00
2.382072695089572090e+00
2.382072695089572090e+00
2.428949125644703777e+00
2.428949125644703777e+00
2.428949125644703777e+00
2.349446699423200169e+00
2.349446699423200169e+00
2.260756492812891150e+00
2.260756492812891150e+00
2.234130680257575996e+00
2.234130680257575996e+00
2.170566240424817828e+00
2.170566240424817828e+00
2.166066103091524919e+00
2.166066103091524919e+00
2.198317087313455875e+00
2.198317087313455875e+00
2.226255439924313961e+00
2.226255439924313961e+00
2.288132328257088233e+00
2.288132328257088233e+00
2.288132328257088233e+00
2.327508529923398850e+00
2.327508529923398850e+00
2.343071504867702437e+00
2.343071504867702437e+00
2.411886104922635443e+00
2.411886104922635443e+00
2.392948026978362286e+00
2.392948026978362286e+00
2.382447706534013054e+00
2.382447706534013054e+00
2.423511459700308013e+00
2.423511459700308013e+00
2.317758232367931104e+00
2.317758232367931104e+00
2.269006744590594149e+00
2.269006744590594149e+00
2.269006744590594149e+00
2.239193334757530351e+00
2.239193334757530351e+00
2.184254158146916147e+00
2.184254158146916147e+00
2.194379467146824858e+00
2.194379467146824858e+00
2.211442487868892304e+00
2.211442487868892304e+00
2.251943723868526259e+00
2.251943723868526259e+00
2.315320657979064389e+00
2.315320657979064389e+00
2.338196356089969008e+00
2.338196356089969008e+00
2.379635120700704931e+00
2.379635120700704931e+00
2.416573747978148834e+00
2.416573747978148834e+00
2.416573747978148834e+00
2.376260017700735361e+00
2.376260017700735361e+00
2.398760704367198571e+00
2.398760704367198571e+00
2.405885921811578676e+00
2.405885921811578676e+00
2.296757591479232197e+00
2.296757591479232197e+00
2.259443952757347329e+00
2.259443952757347329e+00
2.210129947813348927e+00
2.210129947813348927e+00
2.169253700369274007e+00
2.169253700369274007e+00
2.195504501480147752e+00
2.195504501480147752e+00
2.195504501480147752e+00
2.204879787591174090e+00
2.204879787591174090e+00
2.265631641590625023e+00
2.265631641590625023e+00
2.330321115756706529e+00
2.330321115756706529e+00
2.349446699423200169e+00
2.349446699423200169e+00
2.404948393200476264e+00
2.404948393200476264e+00
2.419198828089236475e+00
2.419198828089236475e+00
2.371197363200781449e+00
2.371197363200781449e+00
2.421073885311441742e+00
2.421073885311441742e+00
2.421073885311441742e+00
2.366134708700827094e+00
2.366134708700827094e+00
2.264694112979522167e+00
2.264694112979522167e+00
2.237693288979766049e+00
2.237693288979766049e+00
2.178816492202520827e+00
2.178816492202520827e+00
2.160253425702688634e+00
2.160253425702688634e+00
2.200567155980101663e+00
2.200567155980101663e+00
2.219317728202154782e+00
2.219317728202154782e+00
2.283632190923795324e+00
2.283632190923795324e+00
2.283632190923795324e+00
2.330133610034486047e+00
2.330133610034486047e+00
2.343634022034363884e+00
2.343634022034363884e+00
2.407385967589342979e+00
2.407385967589342979e+00
2.393135532700583212e+00
2.393135532700583212e+00
2.371197363200781449e+00
2.371197363200781449e+00
2.438886928922391562e+00
2.438886928922391562e+00
2.346071596423230599e+00
2.346071596423230599e+00
2.274819421979430434e+00
2.274819421979430434e+00
2.246881069368571904e+00
2.246881069368571904e+00
2.183129123813593253e+00
2.183129123813593253e+00
2.183129123813593253e+00
2.191379375591296252e+00
2.191379375591296252e+00
2.213505050813318054e+00
2.213505050813318054e+00
2.245006012146367080e+00
2.245006012146367080e+00
2.308945463423566213e+00
2.308945463423566213e+00
2.343821527756584366e+00
2.343821527756584366e+00
2.368384777367473326e+00
2.368384777367473326e+00
2.425199011200292798e+00
2.425199011200292798e+00
2.381697683645130681e+00
2.381697683645130681e+00
2.377760063478499664e+00
2.377760063478499664e+00
2.403448347422711961e+00
2.403448347422711961e+00
2.288507339701529197e+00
2.288507339701529197e+00
2.288507339701529197e+00
2.238443311868648422e+00
2.238443311868648422e+00
2.200379650257881181e+00
2.200379650257881181e+00
2.154440748313852350e+00
2.154440748313852350e+00
2.178441480758079862e+00
2.178441480758079862e+00
2.206942350535599839e+00
2.206942350535599839e+00
2.264319101535081202e+00
2.264319101535081202e+00
2.336696310312204705e+00
2.336696310312204705e+00
2.363134617145298488e+00
2.363134617145298488e+00
2.363134617145298488e+00
2.405510910367137711e+00
2.405510910367137711e+00
2.431386700033570492e+00
2.431386700033570492e+00
2.377572557756279181e+00
2.377572557756279181e+00
2.406635944700461049e+00
2.406635944700461049e+00
2.383010223700674501e+00
2.383010223700674501e+00
2.276694479201635701e+00
2.276694479201635701e+00
2.252506241035188150e+00
2.252506241035188150e+00
2.192504409924619146e+00
2.192504409924619146e+00
2.167378643147068740e+00
2.167378643147068740e+00
2.167378643147068740e+00
2.200192144535660699e+00
2.200192144535660699e+00
2.218567705313272853e+00
2.218567705313272853e+00
2.277632007812738557e+00
2.277632007812738557e+00
2.332946195867793726e+00
2.332946195867793726e+00
2.341758964812158617e+00
2.341758964812158617e+00
2.402135807367168141e+00
2.402135807367168141e+00
2.406635944700461049e+00
2.406635944700461049e+00
2.366697225867488541e+00
2.366697225867488541e+00
2.366697225867488541e+00
2.421073885311441742e+00
2.421073885311441742e+00
2.350571733756523507e+00
2.350571733756523507e+00
2.255506332590716312e+00
2.255506332590716312e+00
2.240693380535294654e+00
2.240693380535294654e+00
2.181441572313608468e+00
2.181441572313608468e+00
2.180316537980285130e+00
2.180316537980285130e+00
2.218755211035493335e+00
2.218755211035493335e+00
2.218755211035493335e+00
2.236005737479781263e+00
2.295445051423688376e+00
2.295445051423688376e+00
2.333508713034455617e+00
2.333508713034455617e+00
2.333508713034455617e+00
2.355821893978697901e+00
2.355821893978697901e+00
2.415636219367045978e+00
2.415636219367045978e+00
2.384697775200659287e+00
2.384697775200659287e+00
2.372322397534104788e+00
2.372322397534104788e+00
2.432886745811334794e+00
2.432886745811334794e+00
2.325258461256752618e+00
2.325258461256752618e+00
2.258693929868464956e+00
2.258693929868464956e+00
2.227005462813196335e+00
2.227005462813196335e+00
2.227005462813196335e+00
2.172628803369243577e+00
2.172628803369243577e+00
2.185004181035798521e+00
2.185004181035798521e+00
2.218755211035493335e+00
2.218755211035493335e+00
2.258506424146244473e+00
2.258506424146244473e+00
2.327883541367839371e+00
2.327883541367839371e+00
2.354509353923154524e+00
2.354509353923154524e+00
2.382072695089572090e+00
2.382072695089572090e+00
2.424636494033631351e+00
2.424636494033631351e+00
2.424636494033631351e+00
2.377197546311838217e+00
2.377197546311838217e+00
2.390135441145054607e+00
2.390135441145054607e+00
2.402510818811609106e+00
2.402510818811609106e+00
2.283632190923795324e+00
2.283632190923795324e+00
2.239380840479750834e+00
2.239380840479750834e+00
2.196254524369030126e+00
2.196254524369030126e+00
2.155940794091616652e+00
2.155940794091616652e+00
2.193441938535722002e+00
2.193441938535722002e+00
2.193441938535722002e+00
2.224005371257667729e+00
2.224005371257667729e+00
2.276881984923856628e+00
2.276881984923856628e+00
2.335008758812219920e+00
2.335008758812219920e+00
2.344946562089907705e+00
2.344946562089907705e+00
2.396885647144993747e+00
2.396885647144993747e+00
2.415261207922605013e+00
2.415261207922605013e+00
2.367822260200811879e+00
2.367822260200811879e+00
2.422573931089205601e+00
2.422573931089205601e+00
2.379260109256263966e+00
2.379260109256263966e+00
2.379260109256263966e+00
2.272194341868343237e+00
2.272194341868343237e+00
2.246506057924130939e+00
2.246506057924130939e+00
2.188941801202429094e+00
2.188941801202429094e+00
2.162691000091555793e+00
2.162691000091555793e+00
2.201879696035645484e+00
2.201879696035645484e+00
2.221942808313242423e+00
2.221942808313242423e+00
2.284194708090456771e+00
2.284194708090456771e+00
2.337071321756645670e+00
2.337071321756645670e+00
2.357321939756462204e+00
2.357321939756462204e+00
2.424261482589190386e+00
2.424261482589190386e+00
2.424261482589190386e+00
2.406635944700461049e+00
2.406635944700461049e+00
2.368009765923032361e+00
2.368009765923032361e+00
2.424636494033631351e+00
2.424636494033631351e+00
2.341008941923276243e+00
2.341008941923276243e+00
2.262069032868434526e+00
2.262069032868434526e+00
2.228693014313181120e+00
2.228693014313181120e+00
2.170003723258155937e+00
2.170003723258155937e+00
2.171503769035920239e+00
2.171503769035920239e+00
2.171503769035920239e+00
2.207879879146702695e+00
2.207879879146702695e+00
2.238255806146427940e+00
2.238255806146427940e+00
2.299195165868098911e+00
2.299195165868098911e+00
2.346821619312112972e+00
2.346821619312112972e+00
2.374384960478530537e+00
2.374384960478530537e+00
2.425199011200292798e+00
2.425199011200292798e+00
2.384885280922879769e+00
2.384885280922879769e+00
2.375134983367412023e+00
2.375134983367412023e+00
2.375134983367412023e+00
2.413761162144840711e+00
2.413761162144840711e+00
2.305007843256935196e+00
2.305007843256935196e+00
2.251381206701864812e+00
2.251381206701864812e+00
2.215755119479964730e+00
2.215755119479964730e+00
2.167191137424848257e+00
2.167191137424848257e+00
2.193066927091281038e+00
2.193066927091281038e+00
2.216692648091067142e+00
2.216692648091067142e+00
2.262256538590655452e+00
2.262256538590655452e+00
2.262256538590655452e+00
2.321883358256782603e+00
2.321883358256782603e+00
2.342508987701040546e+00
2.342508987701040546e+00
2.382260200811792572e+00
2.382260200811792572e+00
2.418261299478133619e+00
2.418261299478133619e+00
2.369884823145237629e+00
2.369884823145237629e+00
2.390510452589495571e+00
2.390510452589495571e+00
2.384322763756218322e+00
2.384322763756218322e+00
2.384322763756218322e+00
2.278194524979400004e+00
2.278194524979400004e+00
2.244818506424146598e+00
2.244818506424146598e+00
2.189129306924649576e+00
2.189129306924649576e+00
2.153878231147190458e+00
2.153878231147190458e+00
2.186691732535783306e+00
2.186691732535783306e+00
2.203567247535630269e+00
2.203567247535630269e+00
2.258318918424023991e+00
2.258318918424023991e+00
2.321695852534562121e+00
2.321695852534562121e+00
2.341758964812158617e+00
2.341758964812158617e+00
2.402323313089388623e+00
2.402323313089388623e+00
2.402323313089388623e+00
2.419386333811456957e+00
2.419386333811456957e+00
2.385635303811762142e+00
2.385635303811762142e+00
2.436636860255744885e+00
2.436636860255744885e+00
2.364072145756401344e+00
2.364072145756401344e+00
2.265631641590625023e+00
2.265631641590625023e+00
2.250443678090761956e+00
2.250443678090761956e+00
2.193816949980162967e+00
2.193816949980162967e+00
2.190066835535752432e+00
2.190066835535752432e+00
2.230943082979827352e+00
2.230943082979827352e+00
2.230943082979827352e+00
2.247256080813012868e+00
2.247256080813012868e+00
2.292069948423719250e+00
2.292069948423719250e+00
2.322820886867885459e+00
2.322820886867885459e+00
2.330696127201147494e+00
2.330696127201147494e+00
2.386947843867305519e+00
2.386947843867305519e+00
2.368384777367473326e+00
2.368384777367473326e+00
2.353759331034272151e+00
2.353759331034272151e+00
2.418073793755913137e+00
2.418073793755913137e+00
2.418073793755913137e+00
2.322633381145664977e+00
2.322633381145664977e+00
2.253631275368511044e+00
2.253631275368511044e+00
2.223630359813226764e+00
2.223630359813226764e+00
2.164941068758201581e+00
2.164941068758201581e+00
2.167566148869289222e+00
2.167566148869289222e+00
2.194566972869045340e+00
2.194566972869045340e+00
2.235443220313119816e+00
2.235443220313119816e+00
2.301070223090304623e+00
2.301070223090304623e+00
2.301070223090304623e+00
2.334633747367778511e+00
2.334633747367778511e+00
2.382260200811792572e+00
2.382260200811792572e+00
2.436824365977965812e+00
2.436824365977965812e+00
2.384510269478438804e+00
2.384510269478438804e+00
2.381885189367351607e+00
2.381885189367351607e+00
2.393135532700583212e+00
2.393135532700583212e+00
2.271819330423901828e+00
2.271819330423901828e+00
2.233943174535355514e+00
2.233943174535355514e+00
2.233943174535355514e+00
2.200192144535660699e+00
2.200192144535660699e+00
2.152378185369426600e+00
2.152378185369426600e+00
2.173566331980346433e+00
2.173566331980346433e+00
2.188379284035767647e+00
2.188379284035767647e+00
2.245381023590808045e+00
2.245381023590808045e+00
2.304257820368053267e+00
2.304257820368053267e+00
2.317008209479048730e+00
2.317008209479048730e+00
2.362197088534196077e+00
2.362197088534196077e+00
2.382260200811792572e+00
2.382260200811792572e+00
2.382260200811792572e+00
2.343446516312143402e+00
2.343446516312143402e+00
2.392010498367259874e+00
2.392010498367259874e+00
2.352634296700948813e+00
2.352634296700948813e+00
2.247256080813012868e+00
2.247256080813012868e+00
2.224192876979888212e+00
2.224192876979888212e+00
2.174503860591448845e+00
2.174503860591448845e+00
2.174691366313669327e+00
2.174691366313669327e+00
2.247443586535233351e+00
2.247443586535233351e+00
2.247443586535233351e+00
2.265444135868404540e+00
2.265444135868404540e+00
2.329383587145603673e+00
2.329383587145603673e+00
2.366322214423047576e+00
2.366322214423047576e+00
2.363697134311959935e+00
2.363697134311959935e+00
2.400448255867183356e+00
2.400448255867183356e+00
2.372509903256325270e+00
2.372509903256325270e+00
2.328821069978942226e+00
2.328821069978942226e+00
2.379635120700704931e+00
2.379635120700704931e+00
2.379635120700704931e+00
2.315695669423505798e+00
2.315695669423505798e+00
2.241255897701956545e+00
2.241255897701956545e+00
2.187629261146885273e+00
2.187629261146885273e+00
2.099689077425458628e+00
2.099689077425458628e+00
2.109814386425366894e+00
2.109814386425366894e+00
2.182191595202490397e+00
2.182191595202490397e+00
2.232068117313150690e+00
2.232068117313150690e+00
2.334446241645558029e+00
2.334446241645558029e+00
2.334446241645558029e+00
2.397823175756096159e+00
2.397823175756096159e+00
2.386197820978423145e+00
2.386197820978423145e+00
2.399510727256080500e+00
2.399510727256080500e+00
2.334446241645558029e+00
2.334446241645558029e+00
2.302945280312509890e+00
2.302945280312509890e+00
2.342696493423261028e+00
2.342696493423261028e+00
2.265444135868404540e+00
2.265444135868404540e+00
2.275194433423871843e+00
2.275194433423871843e+00
2.275194433423871843e+00
2.293194982757042144e+00
2.293194982757042144e+00
2.236943266090884119e+00
2.236943266090884119e+00
2.239005829035309869e+00
2.239005829035309869e+00
2.238818323313089387e+00
2.238818323313089387e+00
2.250818689535202921e+00
2.250818689535202921e+00
2.278007019257179522e+00
2.278007019257179522e+00
2.265444135868404540e+00
2.265444135868404540e+00
2.292257454145939732e+00
2.292257454145939732e+00
2.343821527756584366e+00
2.343821527756584366e+00
2.310820520645771925e+00
2.310820520645771925e+00
2.357134434034241721e+00
2.357134434034241721e+00
2.357134434034241721e+00
2.359196996978667915e+00
2.359196996978667915e+00
2.240318369090853690e+00
2.240318369090853690e+00
2.222692831202123909e+00
2.222692831202123909e+00
2.194004455702383449e+00
2.194004455702383449e+00
2.146565507980590315e+00
2.146565507980590315e+00
2.164566057313760616e+00
2.164566057313760616e+00
2.238255806146427940e+00
2.238255806146427940e+00
2.328446058534500818e+00
2.328446058534500818e+00
2.328446058534500818e+00
2.393323038422803695e+00
2.393323038422803695e+00
2.428761619922483295e+00
2.428761619922483295e+00
2.477513107699820250e+00
2.477513107699820250e+00
2.442637043366802097e+00
2.442637043366802097e+00
2.341008941923276243e+00
2.341008941923276243e+00
2.380760155034028269e+00
2.380760155034028269e+00
2.343634022034363884e+00
2.343634022034363884e+00
2.297507614368114126e+00
2.297507614368114126e+00
2.297507614368114126e+00
2.307445417645802355e+00
2.307445417645802355e+00
2.255131321146275347e+00
2.255131321146275347e+00
2.213130039368877089e+00
2.213130039368877089e+00
2.207879879146702695e+00
2.207879879146702695e+00
2.195504501480147752e+00
2.195504501480147752e+00
2.255693838312936794e+00
2.255693838312936794e+00
2.299007660145878429e+00
2.299007660145878429e+00
2.315695669423505798e+00
2.315695669423505798e+00
2.315695669423505798e+00
2.386385326700643628e+00
2.386385326700643628e+00
2.380385143589587305e+00
2.380385143589587305e+00
2.353571825312051669e+00
2.353571825312051669e+00
2.396323129978331856e+00
2.396323129978331856e+00
2.272194341868343237e+00
2.272194341868343237e+00
2.196254524369030126e+00
2.196254524369030126e+00
2.182754112369151844e+00
2.182754112369151844e+00
2.144127933591723156e+00
2.144127933591723156e+00
2.144127933591723156e+00
2.214067567979979945e+00
2.214067567979979945e+00
2.288319833979308715e+00
2.288319833979308715e+00
2.340258919034394314e+00
2.340258919034394314e+00
2.410386059144871140e+00
2.410386059144871140e+00
2.455574938200018487e+00
2.455574938200018487e+00
2.464762718588824342e+00
2.464762718588824342e+00
2.468512833033234433e+00
2.468512833033234433e+00
2.401948301644947659e+00
2.401948301644947659e+00
2.382822717978454019e+00
2.382822717978454019e+00
2.382822717978454019e+00
2.363322122867518971e+00
2.363322122867518971e+00
2.217817682424390480e+00
2.217817682424390480e+00
2.168503677480392078e+00
2.168503677480392078e+00
2.127627430036317158e+00
2.127627430036317158e+00
2.109064363536484965e+00
2.109064363536484965e+00
2.155565782647175688e+00
2.155565782647175688e+00
2.184254158146916147e+00
2.184254158146916147e+00
2.253818781090731527e+00
2.253818781090731527e+00
2.253818781090731527e+00
2.334446241645558029e+00
2.334446241645558029e+00
2.379822626422925413e+00
2.379822626422925413e+00
2.435511825922421991e+00
2.435511825922421991e+00
2.469637867366557771e+00
2.469637867366557771e+00
2.418448805200354101e+00
2.418448805200354101e+00
2.434011780144657688e+00
2.434011780144657688e+00
2.424073976866969904e+00
2.424073976866969904e+00
2.349259193700979687e+00
2.349259193700979687e+00
2.349259193700979687e+00
2.311195532090212890e+00
2.311195532090212890e+00
2.225692922757652514e+00
2.225692922757652514e+00
2.162878505813776275e+00
2.162878505813776275e+00
2.193816949980162967e+00
2.193816949980162967e+00
2.210504959257789892e+00
2.210504959257789892e+00
2.213317545091097571e+00
2.213317545091097571e+00
2.217442670979949515e+00
2.217442670979949515e+00
2.213880062257759462e+00
2.213880062257759462e+00
2.213880062257759462e+00
2.290944914090395912e+00
2.290944914090395912e+00
2.304257820368053267e+00
2.304257820368053267e+00
2.335008758812219920e+00
2.335008758812219920e+00
2.487825922421948999e+00
2.487825922421948999e+00
2.380947660756248752e+00
2.380947660756248752e+00
2.272194341868343237e+00
2.272194341868343237e+00
2.281194616534928166e+00
2.281194616534928166e+00
2.209754936368907963e+00
2.209754936368907963e+00
2.209754936368907963e+00
2.167378643147068740e+00
2.167378643147068740e+00
2.193254432813501520e+00
2.193254432813501520e+00
2.221567796868801015e+00
2.221567796868801015e+00
2.287569811090426342e+00
2.287569811090426342e+00
2.344946562089907705e+00
2.344946562089907705e+00
2.363697134311959935e+00
2.363697134311959935e+00
2.404760887478255782e+00
2.404760887478255782e+00
2.349821710867641578e+00
2.349821710867641578e+00
2.313633106479079604e+00
2.313633106479079604e+00
2.313633106479079604e+00
2.359384502700888397e+00
2.359384502700888397e+00
2.280257087923826198e+00
2.280257087923826198e+00
2.263006561479537382e+00
2.263006561479537382e+00
2.278007019257179522e+00
2.278007019257179522e+00
2.293194982757042144e+00
2.293194982757042144e+00
2.319633289590136371e+00
2.319633289590136371e+00
2.282132145146031021e+00
2.282132145146031021e+00
2.256631366924039650e+00
2.256631366924039650e+00
2.256631366924039650e+00
2.281007110812707683e+00
2.281007110812707683e+00
2.301070223090304623e+00
2.301070223090304623e+00
2.314570635090182460e+00
2.314570635090182460e+00
2.331258644367808941e+00
2.331258644367808941e+00
2.302007751701407035e+00
2.302007751701407035e+00
2.341758964812158617e+00
2.341758964812158617e+00
2.373259926145207199e+00
2.373259926145207199e+00
2.291882442701498768e+00
2.291882442701498768e+00
2.291882442701498768e+00
2.270694296090578934e+00
2.270694296090578934e+00
2.227942991424298746e+00
2.227942991424298746e+00
2.201317178868984037e+00
2.201317178868984037e+00
2.265069124423963132e+00
2.265069124423963132e+00
2.313258095034638639e+00
2.313258095034638639e+00
2.369884823145237629e+00
2.369884823145237629e+00
2.390885464033936536e+00
2.390885464033936536e+00
2.307257911923581428e+00
2.307257911923581428e+00
2.301632740256966070e+00
2.301632740256966070e+00
2.301632740256966070e+00
2.322633381145664977e+00
2.322633381145664977e+00
2.301820245979186552e+00
2.301820245979186552e+00
2.396698141422773265e+00
2.396698141422773265e+00
2.388447889645069822e+00
2.388447889645069822e+00
2.298632648701437464e+00
2.298632648701437464e+00
2.289257362590411127e+00
2.289257362590411127e+00
2.249318643757439062e+00
2.249318643757439062e+00
2.249318643757439062e+00
2.279132053590502860e+00
2.279132053590502860e+00
2.354509353923154524e+00
2.354509353923154524e+00
2.308945463423566213e+00
2.308945463423566213e+00
2.280444593646046680e+00
2.280444593646046680e+00
2.269756767479476078e+00
2.269756767479476078e+00
2.212942533646656607e+00
2.212942533646656607e+00
2.204129764702292160e+00
2.204129764702292160e+00
2.242755943479720404e+00
2.242755943479720404e+00
2.268631733146153184e+00
2.268631733146153184e+00
2.358259468367565059e+00
2.358259468367565059e+00
2.358259468367565059e+00
2.323008392590105942e+00
2.323008392590105942e+00
2.253256263924070080e+00
2.253256263924070080e+00
2.247256080813012868e+00
2.247256080813012868e+00
2.242193426313058957e+00
2.242193426313058957e+00
2.288694845423749680e+00
2.288694845423749680e+00
2.308382946256904766e+00
2.308382946256904766e+00
2.227192968535416817e+00
2.227192968535416817e+00
2.167566148869289222e+00
2.167566148869289222e+00
2.167566148869289222e+00
2.200192144535660699e+00
2.200192144535660699e+00
2.216130130924405695e+00
2.216130130924405695e+00
2.270694296090578934e+00
2.270694296090578934e+00
2.217630176702169997e+00
2.217630176702169997e+00
2.258131412701803509e+00
2.258131412701803509e+00
2.305007843256935196e+00
2.305007843256935196e+00
2.200942167424543072e+00
2.200942167424543072e+00
2.094626422925504272e+00
2.094626422925504272e+00
2.094626422925504272e+00
2.046999969481490211e+00
2.046999969481490211e+00
1.987185644093142578e+00
1.987185644093142578e+00
2.020749168370616911e+00
2.020749168370616911e+00
2.187441755424664791e+00
2.187441755424664791e+00
2.457262489700002828e+00
2.457262489700002828e+00
2.603516953032014136e+00
2.603516953032014136e+00
2.611767204809717136e+00
2.611767204809717136e+00
2.626017639698477346e+00
2.626017639698477346e+00
2.626017639698477346e+00
2.623767571031830670e+00
2.623767571031830670e+00
2.564890774254585448e+00
2.564890774254585448e+00
2.593204138309884943e+00
2.593204138309884943e+00
2.560578142643513466e+00
2.560578142643513466e+00
2.479575670644245999e+00
2.479575670644245999e+00
2.452949858088931290e+00
2.452949858088931290e+00
2.342696493423261028e+00
2.342696493423261028e+00
2.222505325479903426e+00
2.222505325479903426e+00
2.222505325479903426e+00
2.159878414258247670e+00
2.159878414258247670e+00
2.054312692648091243e+00
2.054312692648091243e+00
2.197192052980132537e+00
2.197192052980132537e+00
2.161753471480452937e+00
2.161753471480452937e+00
2.223630359813226764e+00
2.223630359813226764e+00
2.413761162144840711e+00
2.413761162144840711e+00
2.416948759422589799e+00
2.416948759422589799e+00
2.355071871089815971e+00
2.355071871089815971e+00
2.428949125644703777e+00
2.428949125644703777e+00
2.428949125644703777e+00
2.396698141422773265e+00
2.396698141422773265e+00
2.319258278145695407e+00
2.319258278145695407e+00
2.285319742423780109e+00
2.285319742423780109e+00
2.253256263924070080e+00
2.253256263924070080e+00
2.292632465590380253e+00
2.292632465590380253e+00
2.342883999145481511e+00
2.342883999145481511e+00
2.269006744590594149e+00
2.269006744590594149e+00
2.255318826868495830e+00
2.255318826868495830e+00
2.255318826868495830e+00
2.179566515091402756e+00
2.179566515091402756e+00
2.053937681203650278e+00
2.053937681203650278e+00
2.092001342814417075e+00
2.092001342814417075e+00
2.086938688314462720e+00
2.086938688314462720e+00
2.156690816980498582e+00
2.156690816980498582e+00
2.284007202368236289e+00
2.284007202368236289e+00
2.226442945646534444e+00
2.226442945646534444e+00
2.254006286812952009e+00
2.254006286812952009e+00
2.254006286812952009e+00
2.312320566423536228e+00
2.312320566423536228e+00
2.332383678701132279e+00
2.332383678701132279e+00
2.337446333201086635e+00
2.337446333201086635e+00
2.247068575090792386e+00
2.247068575090792386e+00
2.147128025147251762e+00
2.147128025147251762e+00
2.144127933591723156e+00
2.144127933591723156e+00
2.125939878536332373e+00
2.125939878536332373e+00
2.243505966368602778e+00
2.243505966368602778e+00
2.243505966368602778e+00
2.393323038422803695e+00
2.393323038422803695e+00
2.256256355479598685e+00
2.256256355479598685e+00
2.136440198980682048e+00
2.136440198980682048e+00
2.073813287759025847e+00
2.073813287759025847e+00
1.990373241370891666e+00
1.990373241370891666e+00
2.132502578814050587e+00
2.132502578814050587e+00
2.233005645924253102e+00
2.233005645924253102e+00
2.299570177312540320e+00
2.299570177312540320e+00
2.299570177312540320e+00
2.437949400311288706e+00
2.437949400311288706e+00
2.467200292977691056e+00
2.467200292977691056e+00
2.399698232978301426e+00
2.399698232978301426e+00
2.400635761589403838e+00
2.400635761589403838e+00
2.357321939756462204e+00
2.357321939756462204e+00
2.393323038422803695e+00
2.393323038422803695e+00
2.370822351756340485e+00
2.370822351756340485e+00
2.231693105868709726e+00
2.231693105868709726e+00
2.332946195867793726e+00
2.332946195867793726e+00
2.397823175756096159e+00
2.397823175756096159e+00
2.397823175756096159e+00
2.305382854701376161e+00
2.305382854701376161e+00
2.137377727591784460e+00
2.137377727591784460e+00
1.911058320871608762e+00
1.911058320871608762e+00
1.846368846705527034e+00
1.846368846705527034e+00
1.960372325815607386e+00
1.960372325815607386e+00
2.068375621814630971e+00
2.068375621814630971e+00
2.256818872646260132e+00
2.256818872646260132e+00
2.236380748924222672e+00
2.236380748924222672e+00
2.236380748924222672e+00
2.301445234534745587e+00
2.301445234534745587e+00
2.523076998199408116e+00
2.523076998199408116e+00
2.656956083864864038e+00
2.656956083864864038e+00
2.602016907254249833e+00
2.602016907254249833e+00
2.454637409588916075e+00
2.454637409588916075e+00
2.364634662923062791e+00
2.364634662923062791e+00
2.452012329477828434e+00
2.452012329477828434e+00
2.511076631977294138e+00
2.511076631977294138e+00
2.511076631977294138e+00
2.418636310922574584e+00
2.418636310922574584e+00
2.338758873256630455e+00
2.338758873256630455e+00
2.238068300424207457e+00
2.238068300424207457e+00
2.137752739036225869e+00
2.137752739036225869e+00
2.225880428479872997e+00
2.225880428479872997e+00
2.172816309091464060e+00
2.172816309091464060e+00
2.158378368480483367e+00
2.158378368480483367e+00
2.185566698202459968e+00
2.185566698202459968e+00
2.106439283425397324e+00
2.106439283425397324e+00
2.106439283425397324e+00
2.063312967314676172e+00
2.063312967314676172e+00
2.182941618091372327e+00
2.182941618091372327e+00
2.173753837702566916e+00
2.173753837702566916e+00
2.238255806146427940e+00
2.238255806146427940e+00
2.435886837366862956e+00
2.435886837366862956e+00
2.443199560533463544e+00
2.443199560533463544e+00
2.437949400311288706e+00
2.437949400311288706e+00
2.374759971922971058e+00
2.374759971922971058e+00
2.374759971922971058e+00
2.196442030091250608e+00
2.196442030091250608e+00
2.080188482314524023e+00
2.080188482314524023e+00
2.130815027314065802e+00
2.130815027314065802e+00
2.253256263924070080e+00
2.253256263924070080e+00
2.253068758201849597e+00
2.253068758201849597e+00
2.068938138981292418e+00
2.068938138981292418e+00
2.048500015259254514e+00
2.048500015259254514e+00
2.094251411481063307e+00
2.094251411481063307e+00
2.026749351481673678e+00
2.026749351481673678e+00
2.026749351481673678e+00
2.177316446424756524e+00
2.177316446424756524e+00
2.208254890591143660e+00
2.208254890591143660e+00
2.122377269814142320e+00
2.122377269814142320e+00
2.206004821924497428e+00
2.206004821924497428e+00
2.082438550981169811e+00
2.082438550981169811e+00
2.130627521591845319e+00
2.130627521591845319e+00
2.294507522812585520e+00
2.294507522812585520e+00
2.493638599810785283e+00
2.493638599810785283e+00
2.705895077364421475e+00
2.705895077364421475e+00
2.705895077364421475e+00
2.769272011474959605e+00
2.769272011474959605e+00
2.619079927976317723e+00
2.619079927976317723e+00
2.443949583422345917e+00
2.443949583422345917e+00
2.262631550035096417e+00
2.262631550035096417e+00
2.082813562425611220e+00
2.082813562425611220e+00
1.968435071871089903e+00
1.968435071871089903e+00
1.866619464705344011e+00
1.866619464705344011e+00
1.909745780816064942e+00
1.909745780816064942e+00
1.909745780816064942e+00
2.209379924924466998e+00
2.209379924924466998e+00
2.460825098422192880e+00
2.460825098422192880e+00
2.610642170476393797e+00
2.610642170476393797e+00
2.720520523697622650e+00
2.720520523697622650e+00
2.649268349253822485e+00
2.649268349253822485e+00
2.449387249366740793e+00
2.449387249366740793e+00
2.292069948423719250e+00
2.292069948423719250e+00
2.264319101535081202e+00
2.264319101535081202e+00
2.283257179479354360e+00
2.283257179479354360e+00
2.283257179479354360e+00
2.085813653981139382e+00
2.085813653981139382e+00
1.870182073427533842e+00
1.870182073427533842e+00
1.797242347483748892e+00
1.797242347483748892e+00
1.873744682149723673e+00
1.873744682149723673e+00
1.908995757927182790e+00
1.908995757927182790e+00
2.089938779869991325e+00
2.089938779869991325e+00
2.300507705923642732e+00
2.300507705923642732e+00
2.622455030976286849e+00
2.622455030976286849e+00
2.622455030976286849e+00
3.003279152806177077e+00
3.003279152806177077e+00
3.015654530472732020e+00
3.015654530472732020e+00
2.952465102084414372e+00
2.952465102084414372e+00
2.615142307809686706e+00
2.615142307809686706e+00
2.233380657368694511e+00
2.233380657368694511e+00
1.846556352427747516e+00
1.846556352427747516e+00
1.530796716208380426e+00
1.530796716208380426e+00
1.304477309488204506e+00
1.304477309488204506e+00
1.309727469710379566e+00
1.309727469710379566e+00
1.424668477431562330e+00
1.424668477431562330e+00
1.679863765373698969e+00
1.679863765373698969e+00
1.679863765373698969e+00
1.948184453871272925e+00
1.948184453871272925e+00
2.193254432813501520e+00
2.193254432813501520e+00
2.462887661366619074e+00
2.462887661366619074e+00
2.615329813531907188e+00
2.615329813531907188e+00
2.646830774864955327e+00
2.646830774864955327e+00
2.635767937253944648e+00
2.635767937253944648e+00
2.690144596697897406e+00
2.690144596697897406e+00
2.700269905697806117e+00
2.700269905697806117e+00
2.700269905697806117e+00
2.508451551866206941e+00
2.508451551866206941e+00
2.144127933591723156e+00
2.144127933591723156e+00
1.881619922482985929e+00
1.881619922482985929e+00
1.744365733817560216e+00
1.744365733817560216e+00
1.836806054872280214e+00
1.836806054872280214e+00
2.066500564592425260e+00
2.066500564592425260e+00
2.465887752922147680e+00
2.465887752922147680e+00
2.767584459974974820e+00
2.767584459974974820e+00
2.767584459974974820e+00
2.637080477309488025e+00
2.637080477309488025e+00
2.592079103976562049e+00
2.592079103976562049e+00
2.521764458143864296e+00
2.521764458143864296e+00
2.156315805536057617e+00
2.156315805536057617e+00
1.930746421704764071e+00
1.930746421704764071e+00
1.996935941648609880e+00
1.996935941648609880e+00
1.880307382427442331e+00
1.880307382427442331e+00
1.742678182317575653e+00
1.742678182317575653e+00
1.742678182317575653e+00
1.641050080874050021e+00
1.641050080874050021e+00
1.542797082430494182e+00
1.542797082430494182e+00
1.626049623096408103e+00
1.626049623096408103e+00
1.518608844264046187e+00
1.518608844264046187e+00
1.289664357432783071e+00
1.289664357432783071e+00
1.448294198431348656e+00
1.448294198431348656e+00
1.859681752983184388e+00
1.859681752983184388e+00
2.237318277535325084e+00
2.237318277535325084e+00
2.237318277535325084e+00
2.522139469588305261e+00
2.522139469588305261e+00
2.855899655140842874e+00
2.855899655140842874e+00
3.505044465468306392e+00
3.505044465468306392e+00
3.812553849909970705e+00
3.812553849909970705e+00
3.831491927854243418e+00
3.831491927854243418e+00
3.714113345744193939e+00
3.714113345744193939e+00
2.912713888973662790e+00
2.912713888973662790e+00
2.194941984313486305e+00
2.194941984313486305e+00
2.194941984313486305e+00
1.913495895260475699e+00
1.913495895260475699e+00
1.744178228095339733e+00
1.744178228095339733e+00
1.583298318430127916e+00
1.583298318430127916e+00
1.462357127597888162e+00
1.462357127597888162e+00
1.509421063875240554e+00
1.509421063875240554e+00
1.921558641315958216e+00
1.921558641315958216e+00
2.446762169255653596e+00
2.446762169255653596e+00
2.809773247474593116e+00
2.809773247474593116e+00
2.809773247474593116e+00
2.854024597918638051e+00
2.854024597918638051e+00
2.680206793420209177e+00
2.680206793420209177e+00
2.131377544480727693e+00
2.131377544480727693e+00
1.511483626819666082e+00
1.511483626819666082e+00
1.262288521988586210e+00
1.262288521988586210e+00
1.287039277321695430e+00
1.287039277321695430e+00
1.589298501541184683e+00
1.589298501541184683e+00
1.661113193151646517e+00
1.661113193151646517e+00
1.661113193151646517e+00
1.581610766930143130e+00
1.581610766930143130e+00
1.771554063539536816e+00
1.771554063539536816e+00
2.046249946592608282e+00
2.046249946592608282e+00
2.044937406537064906e+00
2.044937406537064906e+00
2.073063264870143918e+00
2.073063264870143918e+00
2.204504776146733125e+00
2.204504776146733125e+00
2.839586657307657358e+00
2.839586657307657358e+00
3.066656086916714763e+00
3.066656086916714763e+00
3.066656086916714763e+00
3.067406109805597136e+00
3.067406109805597136e+00
3.261662038026063026e+00
3.261662038026063026e+00
2.773959654530472552e+00
2.773959654530472552e+00
2.482388256477553679e+00
2.482388256477553679e+00
2.417698782311472172e+00
2.417698782311472172e+00
2.349259193700979687e+00
2.349259193700979687e+00
2.254381298257393418e+00
2.254381298257393418e+00
2.258318918424023991e+00
2.258318918424023991e+00
2.258318918424023991e+00
2.224005371257667729e+00
2.224005371257667729e+00
2.343259010589922919e+00
2.343259010589922919e+00
2.489700979644154266e+00
2.489700979644154266e+00
2.654331003753776841e+00
2.654331003753776841e+00
2.927339335306863521e+00
2.927339335306863521e+00
2.526077089754936722e+00
2.526077089754936722e+00
1.923433698538163483e+00
1.923433698538163483e+00
1.524984038819544141e+00
1.524984038819544141e+00
1.473607470931119767e+00
1.473607470931119767e+00
1.247100558488723365e+00
1.247100558488723365e+00
1.247100558488723365e+00
1.065032502212591936e+00
1.065032502212591936e+00
8.972148808252204955e-01
8.972148808252204955e-01
9.032150639362773736e-01
9.032150639362773736e-01
1.285164220099490384e+00
1.285164220099490384e+00
1.997685964537492032e+00
1.997685964537492032e+00
2.785209997863704157e+00
2.785209997863704157e+00
3.274599932859279416e+00
3.274599932859279416e+00
3.223973387859737194e+00
3.223973387859737194e+00
3.111282448805200662e+00
3.111282448805200662e+00
3.111282448805200662e+00
3.369102816858424720e+00
3.369102816858424720e+00
3.289225379192480148e+00
3.289225379192480148e+00
2.764959379863887623e+00
2.764959379863887623e+00
1.958122257148960932e+00
1.958122257148960932e+00
1.559672597430341590e+00
1.559672597430341590e+00
1.579173192541276416e+00
1.579173192541276416e+00
1.766866420484023648e+00
1.766866420484023648e+00
2.352634296700948813e+00
2.352634296700948813e+00
2.352634296700948813e+00
2.607642078920865636e+00
2.607642078920865636e+00
2.262256538590655452e+00
2.262256538590655452e+00
1.977622852259895758e+00
1.977622852259895758e+00
1.961872371593371245e+00
1.961872371593371245e+00
2.252693746757408633e+00
2.252693746757408633e+00
2.816898464918973666e+00
2.816898464918973666e+00
3.096657002471999487e+00
3.096657002471999487e+00
2.993153843806268810e+00
2.993153843806268810e+00
2.993153843806268810e+00
2.762146794030579500e+00
2.762146794030579500e+00
2.146565507980590315e+00
2.146565507980590315e+00
1.759928708761864247e+00
1.759928708761864247e+00
1.751115939817499356e+00
1.751115939817499356e+00
1.696551774651326117e+00
1.696551774651326117e+00
1.842806237983336981e+00
1.842806237983336981e+00
2.185191686758019003e+00
2.185191686758019003e+00
2.789522629474776583e+00
2.789522629474776583e+00
2.789522629474776583e+00
2.962402905362102157e+00
2.962402905362102157e+00
2.614954802087466224e+00
2.614954802087466224e+00
2.064250495925779028e+00
2.064250495925779028e+00
1.134222113711966351e+00
1.134222113711966351e+00
9.350910367137669210e-01
9.350910367137669210e-01
9.793423871578111894e-01
9.793423871578111894e-01
1.353978820154423612e+00
1.353978820154423612e+00
1.937121616260262025e+00
1.937121616260262025e+00
1.937121616260262025e+00
2.649080843531602003e+00
2.649080843531602003e+00
3.229036042359691550e+00
3.229036042359691550e+00
3.435854853968932421e+00
3.435854853968932421e+00
3.258849452192754903e+00
3.258849452192754903e+00
3.057093295083467943e+00
3.057093295083467943e+00
2.403448347422711961e+00
2.403448347422711961e+00
1.667300881984923988e+00
1.667300881984923988e+00
1.565110263374736910e+00
1.565110263374736910e+00
1.565110263374736910e+00
1.806055116428113783e+00
1.806055116428113783e+00
1.812055299539170550e+00
1.812055299539170550e+00
1.940871730704672338e+00
1.940871730704672338e+00
2.359196996978667915e+00
2.359196996978667915e+00
2.716770409253212115e+00
2.716770409253212115e+00
2.597329264198736443e+00
2.597329264198736443e+00
2.231880611590930208e+00
2.231880611590930208e+00
1.958122257148960932e+00
1.958122257148960932e+00
1.958122257148960932e+00
1.754116031373027740e+00
1.754116031373027740e+00
2.062750450148014725e+00
2.062750450148014725e+00
2.307070406201360946e+00
2.307070406201360946e+00
2.466262764366588645e+00
2.466262764366588645e+00
2.480700704977568893e+00
2.480700704977568893e+00
2.401948301644947659e+00
2.401948301644947659e+00
2.297132602923673161e+00
2.297132602923673161e+00
2.441136997589037794e+00
2.441136997589037794e+00
2.441136997589037794e+00
2.631080294198431702e+00
2.631080294198431702e+00
2.670081484420300910e+00
2.670081484420300910e+00
2.554952970976897664e+00
2.554952970976897664e+00
2.539389996032593633e+00
2.539389996032593633e+00
2.430824182866909045e+00
2.430824182866909045e+00
2.088813745536667987e+00
2.088813745536667987e+00
1.845993835261085847e+00
1.845993835261085847e+00
1.717552415540025024e+00
1.717552415540025024e+00
1.717552415540025024e+00
1.999186010315256334e+00
1.999186010315256334e+00
2.571640980254524589e+00
2.571640980254524589e+00
2.901651051362651668e+00
2.901651051362651668e+00
2.841836725974303590e+00
2.841836725974303590e+00
2.691457136753440782e+00
2.691457136753440782e+00
2.659956175420392643e+00
2.659956175420392643e+00
2.654331003753776841e+00
2.654331003753776841e+00
2.515389263588366120e+00
2.515389263588366120e+00
2.040624774925992480e+00
2.040624774925992480e+00
1.688676534318063860e+00
1.688676534318063860e+00
1.688676534318063860e+00
1.687176488540299779e+00
1.687176488540299779e+00
1.752615985595263659e+00
1.752615985595263659e+00
1.648925321207312278e+00
1.648925321207312278e+00
1.707614612262337239e+00
1.707614612262337239e+00
1.926246284371471162e+00
1.926246284371471162e+00
1.854244087038789068e+00
1.854244087038789068e+00
1.932996490371410303e+00
1.932996490371410303e+00
1.932996490371410303e+00
1.909745780816064942e+00
1.909745780816064942e+00
1.640675069429609056e+00
1.640675069429609056e+00
1.630924771874141754e+00
1.630924771874141754e+00
2.162315988647114828e+00
2.162315988647114828e+00
2.494013611255226248e+00
2.494013611255226248e+00
2.365759697256386129e+00
2.365759697256386129e+00
1.957934751426740450e+00
1.957934751426740450e+00
2.299757683034760802e+00
2.299757683034760802e+00
2.299757683034760802e+00
3.124220343638417052e+00
3.124220343638417052e+00
3.752177007354960736e+00
3.752177007354960736e+00
3.820804101687673704e+00
3.820804101687673704e+00
3.267849726859340276e+00
3.267849726859340276e+00
2.939527207251197982e+00
2.939527207251197982e+00
2.572766014587847927e+00
2.572766014587847927e+00
2.302007751701407035e+00
2.302007751701407035e+00
1.800617450483718462e+00
1.800617450483718462e+00
1.800617450483718462e+00
1.648925321207312278e+00
1.648925321207312278e+00
1.824430677205725271e+00
1.824430677205725271e+00
2.145065462202826012e+00
2.145065462202826012e+00
2.312133060701315301e+00
2.312133060701315301e+00
2.361822077089755112e+00
2.361822077089755112e+00
2.320195806756797818e+00
2.320195806756797818e+00
2.228693014313181120e+00
2.228693014313181120e+00
2.026936857203894160e+00
2.026936857203894160e+00
1.931683950315866705e+00
1.931683950315866705e+00
1.539796990874965577e+00
1.539796990874965577e+00
1.539796990874965577e+00
1.514108706930753501e+00
1.514108706930753501e+00
1.805305093539231631e+00
1.805305093539231631e+00
1.924933744315927786e+00
1.924933744315927786e+00
1.969372600482192537e+00
1.969372600482192537e+00
2.313258095034638639e+00
2.313258095034638639e+00
2.560578142643513466e+00
2.560578142643513466e+00
2.361822077089755112e+00
2.361822077089755112e+00
2.347196630756553937e+00
2.347196630756553937e+00
2.347196630756553937e+00
2.586453932309945802e+00
2.586453932309945802e+00
2.578953703421124732e+00
2.578953703421124732e+00
2.604266975920896066e+00
2.604266975920896066e+00
3.015092013306070129e+00
3.015092013306070129e+00
3.006654255806146647e+00
3.006654255806146647e+00
2.668206427198095643e+00
2.668206427198095643e+00
2.317008209479048730e+00
2.317008209479048730e+00
2.182379100924710880e+00
2.182379100924710880e+00
2.182379100924710880e+00
2.211629993591112786e+00
2.211629993591112786e+00
2.466825281533250092e+00
2.466825281533250092e+00
2.618142399365215311e+00
2.618142399365215311e+00
2.532827295754875419e+00
2.532827295754875419e+00
2.255131321146275347e+00
2.255131321146275347e+00
1.924933744315927786e+00
1.924933744315927786e+00
1.895682851649525658e+00
1.895682851649525658e+00
1.953809625537888728e+00
1.953809625537888728e+00
1.953809625537888728e+00
1.865494430372020673e+00
1.865494430372020673e+00
1.775679189428388316e+00
1.775679189428388316e+00
1.741178136539811350e+00
1.741178136539811350e+00
1.828743308816797475e+00
1.828743308816797475e+00
2.383197729422894984e+00
2.383197729422894984e+00
2.554015442365794808e+00
2.554015442365794808e+00
2.617954893642994829e+00
2.617954893642994829e+00
2.838461622974334020e+00
2.838461622974334020e+00
2.682831873531296818e+00
2.682831873531296818e+00
2.100814111758781966e+00
2.100814111758781966e+00
2.100814111758781966e+00
1.768553971984008211e+00
1.768553971984008211e+00
2.125189855647450443e+00
2.125189855647450443e+00
2.152003173924985191e+00
2.152003173924985191e+00
1.913870906704916663e+00
1.913870906704916663e+00
1.547859736930448316e+00
1.547859736930448316e+00
1.567547837763603846e+00
1.567547837763603846e+00
1.806992645039216416e+00
1.806992645039216416e+00
2.037249671926022909e+00
2.037249671926022909e+00
2.636517960142826578e+00
2.636517960142826578e+00
3.376978057191686755e+00
3.376978057191686755e+00
3.628985747856074973e+00
3.628985747856074973e+00
3.405853938413648141e+00
3.405853938413648141e+00
2.948902493362224320e+00
2.948902493362224320e+00
2.948902493362224320e+00
2.425386516922513280e+00
2.425386516922513280e+00
2.168878688924833043e+00
2.168878688924833043e+00
1.642550126651814324e+00
1.642550126651814324e+00
1.238662800988799884e+00
1.238662800988799884e+00
1.492170537430951738e+00
1.492170537430951738e+00
1.710052186651203954e+00
1.710052186651203954e+00
2.089751274147770843e+00
2.089751274147770843e+00
2.693894711142307941e+00
2.693894711142307941e+00
2.693894711142307941e+00
3.456292977690969437e+00
3.456292977690969437e+00
3.798303415021210494e+00
3.798303415021210494e+00
3.422541947691274622e+00
3.422541947691274622e+00
2.715832880642109259e+00
2.715832880642109259e+00
2.343071504867702437e+00
2.343071504867702437e+00
2.272194341868343237e+00
2.272194341868343237e+00
2.027311868648335125e+00
2.027311868648335125e+00
1.996373424481948211e+00
1.996373424481948211e+00
2.060125370036927084e+00
2.060125370036927084e+00
2.060125370036927084e+00
2.008373790704061967e+00
2.008373790704061967e+00
1.931683950315866705e+00
1.931683950315866705e+00
2.021874202703940249e+00
2.021874202703940249e+00
2.340821436201055761e+00
2.340821436201055761e+00
2.477700613422040732e+00
2.477700613422040732e+00
2.289444868312631609e+00
2.289444868312631609e+00
2.161378460036011973e+00
2.161378460036011973e+00
2.123502304147465658e+00
2.123502304147465658e+00
2.123502304147465658e+00
2.016061525315103520e+00
2.016061525315103520e+00
1.899620471816156453e+00
1.899620471816156453e+00
1.756178594317453490e+00
1.756178594317453490e+00
1.865306924649800191e+00
1.865306924649800191e+00
2.242568437757499922e+00
2.242568437757499922e+00
2.424261482589190386e+00
2.424261482589190386e+00
2.260943998535111632e+00
2.260943998535111632e+00
2.253631275368511044e+00
2.253631275368511044e+00
2.253631275368511044e+00
2.432136722922452865e+00
2.432136722922452865e+00
2.754646565141758430e+00
2.754646565141758430e+00
2.883087984862819475e+00
2.883087984862819475e+00
2.785772515030365604e+00
2.785772515030365604e+00
2.555890499588000075e+00
2.555890499588000075e+00
2.317945738090151586e+00
2.317945738090151586e+00
1.895870357371746140e+00
1.895870357371746140e+00
1.378917081209753759e+00
1.378917081209753759e+00
1.378917081209753759e+00
1.457856990264595476e+00
1.457856990264595476e+00
1.707614612262337239e+00
1.707614612262337239e+00
2.015499008148442073e+00
2.015499008148442073e+00
2.393510544145024177e+00
2.393510544145024177e+00
2.676831690420240051e+00
2.676831690420240051e+00
2.797210364085817691e+00
2.797210364085817691e+00
3.124782860805078499e+00
3.124782860805078499e+00
3.286975310525833915e+00
3.286975310525833915e+00
3.286975310525833915e+00
3.052218146305734514e+00
3.052218146305734514e+00
2.871087618640705497e+00
2.871087618640705497e+00
2.544452650532547988e+00
2.544452650532547988e+00
2.290757408368175430e+00
2.290757408368175430e+00
2.006123722037415735e+00
2.006123722037415735e+00
1.783741935483871055e+00
1.783741935483871055e+00
1.797054841761528188e+00
1.797054841761528188e+00
1.997498458815271549e+00
1.997498458815271549e+00
1.997498458815271549e+00
2.161003448591571008e+00
2.161003448591571008e+00
2.458012512588885201e+00
2.458012512588885201e+00
2.672144047364726660e+00
2.672144047364726660e+00
2.612142216254158100e+00
2.612142216254158100e+00
2.572391003143406518e+00
2.572391003143406518e+00
2.303507797479171337e+00
2.303507797479171337e+00
1.974997772148808339e+00
1.974997772148808339e+00
2.025999328592791304e+00
2.025999328592791304e+00
2.025999328592791304e+00
2.100064088869899592e+00
2.100064088869899592e+00
1.974060243537705706e+00
1.974060243537705706e+00
2.086751182592242237e+00
2.086751182592242237e+00
2.209754936368907963e+00
2.209754936368907963e+00
2.371947386089663379e+00
2.371947386089663379e+00
2.551015350810266202e+00
2.551015350810266202e+00
2.725208166753136041e+00
2.725208166753136041e+00
2.725208166753136041e+00
2.564703268532364966e+00
2.564703268532364966e+00
2.184441663869136629e+00
2.184441663869136629e+00
2.004811181981871915e+00
2.004811181981871915e+00
2.146753013702810797e+00
2.146753013702810797e+00
2.108126834925382109e+00
2.108126834925382109e+00
2.488388439588610446e+00
2.488388439588610446e+00
2.774897183141575407e+00
2.774897183141575407e+00
2.563953245643482592e+00
2.563953245643482592e+00
2.318133243812372069e+00
2.318133243812372069e+00
2.223817865535447247e+00
2.223817865535447247e+00
2.089376262703329878e+00
2.089376262703329878e+00
2.089376262703329878e+00
2.248943632312997654e+00
2.248943632312997654e+00
2.382447706534013054e+00
2.382447706534013054e+00
2.160628437147130043e+00
2.160628437147130043e+00
1.994685872981963648e+00
1.994685872981963648e+00
1.750178411206396500e+00
1.750178411206396500e+00
1.551609851374858851e+00
1.551609851374858851e+00
2.057500289925840331e+00
2.057500289925840331e+00
2.662018738364818393e+00
2.662018738364818393e+00
2.937652150028992271e+00
2.937652150028992271e+00
2.937652150028992271e+00
3.160596453749198620e+00
3.160596453749198620e+00
3.202597735526596878e+00
3.202597735526596878e+00
2.948339976195562873e+00
2.948339976195562873e+00
2.687894528031251173e+00
2.687894528031251173e+00
2.243505966368602778e+00
2.243505966368602778e+00
2.215380108035523765e+00
2.215380108035523765e+00
2.079813470870083059e+00
2.079813470870083059e+00
1.823680654316843119e+00
1.823680654316843119e+00
1.823680654316843119e+00
1.735365459150975065e+00
1.735365459150975065e+00
1.617236854152043213e+00
1.617236854152043213e+00
1.604298959318826823e+00
1.604298959318826823e+00
1.891745231482894418e+00
1.891745231482894418e+00
2.144315439313944083e+00
2.144315439313944083e+00
2.711145237586596313e+00
2.711145237586596313e+00
3.077906430249946812e+00
3.077906430249946812e+00
2.985091097750785849e+00
2.985091097750785849e+00
2.985091097750785849e+00
2.799272927030243885e+00
2.799272927030243885e+00
2.629767754142887881e+00
2.629767754142887881e+00
2.320570818201239227e+00
2.320570818201239227e+00
2.139065279091769245e+00
2.139065279091769245e+00
2.064438001647999510e+00
2.064438001647999510e+00
2.064625507370219992e+00
2.064625507370219992e+00
2.314383129367961978e+00
2.314383129367961978e+00
2.307257911923581428e+00
2.307257911923581428e+00
2.307257911923581428e+00
2.106814294869838289e+00
2.106814294869838289e+00
2.105314249092073986e+00
2.105314249092073986e+00
2.170753746147038310e+00
2.170753746147038310e+00
2.598641804254280263e+00
2.598641804254280263e+00
2.576328623310037536e+00
2.576328623310037536e+00
2.249693655201880027e+00
2.249693655201880027e+00
1.944809350871303355e+00
1.944809350871303355e+00
1.712864772484511855e+00
1.712864772484511855e+00
1.712864772484511855e+00
2.040437269203771997e+00
2.040437269203771997e+00
2.222317819757682944e+00
2.222317819757682944e+00
2.644580706198309095e+00
2.644580706198309095e+00
2.935214575640126000e+00
2.935214575640126000e+00
3.058405835139011764e+00
3.058405835139011764e+00
2.907651234473708435e+00
2.907651234473708435e+00
2.845774346140934608e+00
2.845774346140934608e+00
2.596579241309854513e+00
2.596579241309854513e+00
2.596579241309854513e+00
2.058062807092501334e+00
2.058062807092501334e+00
1.919683584093752948e+00
1.919683584093752948e+00
1.925121250038148268e+00
1.925121250038148268e+00
1.970497634815515653e+00
1.970497634815515653e+00
1.995248390148625317e+00
1.995248390148625317e+00
1.965997497482223189e+00
1.965997497482223189e+00
2.119377178258613714e+00
2.119377178258613714e+00
2.339696401867732423e+00
2.339696401867732423e+00
2.339696401867732423e+00
2.463825189977721486e+00
2.463825189977721486e+00
2.614579790643025259e+00
2.614579790643025259e+00
2.668581438642536607e+00
2.668581438642536607e+00
2.683394390697958265e+00
2.683394390697958265e+00
2.607642078920865636e+00
2.607642078920865636e+00
2.493263588366343875e+00
2.493263588366343875e+00
2.388635395367290304e+00
2.388635395367290304e+00
2.389385418256172233e+00
2.389385418256172233e+00
2.389385418256172233e+00
2.328446058534500818e+00
2.328446058534500818e+00
1.967310037537766565e+00
1.967310037537766565e+00
1.628674703207495300e+00
1.628674703207495300e+00
1.656425550096133126e+00
1.656425550096133126e+00
1.864931913205359004e+00
1.864931913205359004e+00
2.157253334147160473e+00
2.157253334147160473e+00
2.221380291146580532e+00
2.221380291146580532e+00
2.171691274758141166e+00
2.171691274758141166e+00
2.171691274758141166e+00
2.223817865535447247e+00
2.223817865535447247e+00
2.450324777977843649e+00
2.450324777977843649e+00
2.455762443922238969e+00
2.455762443922238969e+00
2.256256355479598685e+00
2.256256355479598685e+00
2.474513016144291644e+00
2.474513016144291644e+00
2.887775627918332866e+00
2.887775627918332866e+00
3.190222357860042379e+00
3.190222357860042379e+00
2.832461439863276809e+00
2.832461439863276809e+00
2.263756584368419311e+00
2.263756584368419311e+00
2.323195898312326424e+00
2.323195898312326424e+00
2.323195898312326424e+00
2.221567796868801015e+00
2.221567796868801015e+00
1.913495895260475699e+00
1.913495895260475699e+00
1.993560838648640532e+00
1.993560838648640532e+00
2.070438184759056277e+00
2.070438184759056277e+00
2.179003997924741309e+00
2.179003997924741309e+00
2.302007751701407035e+00
2.302007751701407035e+00
2.410948576311533031e+00
2.410948576311533031e+00
2.666518875698111302e+00
2.666518875698111302e+00
2.666518875698111302e+00
2.884775536362804260e+00
2.884775536362804260e+00
2.758771691030610373e+00
2.758771691030610373e+00
2.506388988921781191e+00
2.506388988921781191e+00
2.408323496200445835e+00
2.408323496200445835e+00
2.238630817590868904e+00
2.238630817590868904e+00
2.059562852870265637e+00
2.059562852870265637e+00
2.227755485702078264e+00
2.227755485702078264e+00
2.441324503311258276e+00
2.441324503311258276e+00
2.441324503311258276e+00
2.490263496810816157e+00
2.490263496810816157e+00
2.402885830256050514e+00
2.402885830256050514e+00
2.193066927091281038e+00
2.193066927091281038e+00
2.106626789147617806e+00
2.106626789147617806e+00
1.917433515427106494e+00
1.917433515427106494e+00
2.031249488814966586e+00
2.031249488814966586e+00
2.246881069368571904e+00
2.246881069368571904e+00
2.266756675923947917e+00
2.266756675923947917e+00
2.266756675923947917e+00
2.172628803369243577e+00
2.172628803369243577e+00
2.024311777092806519e+00
2.024311777092806519e+00
2.078125919370098273e+00
2.078125919370098273e+00
2.534702352977080686e+00
2.534702352977080686e+00
2.707207617419965295e+00
2.707207617419965295e+00
2.543140110477004168e+00
2.543140110477004168e+00
2.330133610034486047e+00
2.330133610034486047e+00
2.177878963591417971e+00
2.177878963591417971e+00
2.177878963591417971e+00
2.320758323923459709e+00
2.320758323923459709e+00
2.491951048310800498e+00
2.491951048310800498e+00
2.466075258644368162e+00
2.466075258644368162e+00
2.569953428754539804e+00
2.569953428754539804e+00
2.555515488143559111e+00
2.555515488143559111e+00
2.357884456923124095e+00
2.357884456923124095e+00
2.398573198644978088e+00
2.398573198644978088e+00
2.424636494033631351e+00
2.424636494033631351e+00
2.424636494033631351e+00
2.393323038422803695e+00
2.393323038422803695e+00
2.247631092257453833e+00
2.247631092257453833e+00
2.283069673757133433e+00
2.283069673757133433e+00
2.127252418591876193e+00
2.127252418591876193e+00
1.983623035370952525e+00
1.983623035370952525e+00
2.125189855647450443e+00
2.125189855647450443e+00
2.348696676534318240e+00
2.348696676534318240e+00
2.349634205145421095e+00
2.349634205145421095e+00
2.252131229590746742e+00
2.252131229590746742e+00
2.252131229590746742e+00
2.299570177312540320e+00
2.299570177312540320e+00
2.366697225867488541e+00
2.366697225867488541e+00
2.423136448255867048e+00
2.423136448255867048e+00
2.521014435254982367e+00
2.521014435254982367e+00
2.500576311532944906e+00
2.500576311532944906e+00
2.250818689535202921e+00
2.250818689535202921e+00
2.100064088869899592e+00
2.100064088869899592e+00
2.155003265480513797e+00
2.155003265480513797e+00
2.155003265480513797e+00
2.092188848536637558e+00
2.092188848536637558e+00
2.176191412091433186e+00
2.176191412091433186e+00
2.398010681478316641e+00
2.398010681478316641e+00
2.646455763420514362e+00
2.646455763420514362e+00
2.498701254310739639e+00
2.498701254310739639e+00
2.306132877590258534e+00
2.306132877590258534e+00
2.475263039033173573e+00
2.475263039033173573e+00
2.586828943754386767e+00
2.586828943754386767e+00
2.586828943754386767e+00
2.545952696310312291e+00
2.545952696310312291e+00
2.501138828699606353e+00
2.501138828699606353e+00
2.328258552812280335e+00
2.328258552812280335e+00
2.239755851924192243e+00
2.239755851924192243e+00
2.103251686147648680e+00
2.103251686147648680e+00
2.152565691091647082e+00
2.152565691091647082e+00
2.290944914090395912e+00
2.290944914090395912e+00
2.356571916867580274e+00
2.356571916867580274e+00
2.356571916867580274e+00
2.437949400311288706e+00
2.437949400311288706e+00
2.376635029145176325e+00
2.376635029145176325e+00
2.365759697256386129e+00
2.365759697256386129e+00
2.593204138309884943e+00
2.593204138309884943e+00
2.585141392254402426e+00
2.585141392254402426e+00
2.344571550645466296e+00
2.344571550645466296e+00
2.329196081423383191e+00
2.329196081423383191e+00
2.485013336588640875e+00
2.485013336588640875e+00
2.418448805200354101e+00
2.418448805200354101e+00
2.107001800592058771e+00
2.107001800592058771e+00
2.107001800592058771e+00
2.034999603259376677e+00
2.034999603259376677e+00
2.166253608813745402e+00
2.166253608813745402e+00
2.374009949034089573e+00
2.374009949034089573e+00
2.373072420422986717e+00
2.373072420422986717e+00
2.381510177922910199e+00
2.381510177922910199e+00
2.468887844477675397e+00
2.468887844477675397e+00
2.399323221533860018e+00
2.399323221533860018e+00
2.529264687032685366e+00
2.529264687032685366e+00
2.529264687032685366e+00
2.440949491866817311e+00
2.440949491866817311e+00
2.362197088534196077e+00
2.362197088534196077e+00
2.316445692312387283e+00
2.316445692312387283e+00
2.073625782036805365e+00
2.073625782036805365e+00
1.933934018982512937e+00
1.933934018982512937e+00
1.986060609759819240e+00
1.986060609759819240e+00
1.962434888760032914e+00
1.962434888760032914e+00
2.115252052369762659e+00
2.115252052369762659e+00
2.115252052369762659e+00
2.406635944700461049e+00
2.406635944700461049e+00
2.516701803643909940e+00
2.516701803643909940e+00
2.647580797753837700e+00
2.647580797753837700e+00
2.473012970366527341e+00
2.473012970366527341e+00
2.225317911313211550e+00
2.225317911313211550e+00
2.321320841090121156e+00
2.321320841090121156e+00
2.363509628589739453e+00
2.363509628589739453e+00
2.498888760032960121e+00
2.498888760032960121e+00
2.498888760032960121e+00
2.540890041810357936e+00
2.540890041810357936e+00
2.406073427533799602e+00
2.406073427533799602e+00
2.277819513534959039e+00
2.277819513534959039e+00
2.265819147312845505e+00
2.265819147312845505e+00
2.243505966368602778e+00
2.243505966368602778e+00
2.317570726645710621e+00
2.317570726645710621e+00
2.316633198034607766e+00
2.316633198034607766e+00
2.318320749534592551e+00
2.318320749534592551e+00
2.318320749534592551e+00
2.391260475478377501e+00
2.391260475478377501e+00
2.298820154423657947e+00
2.298820154423657947e+00
2.295445051423688376e+00
2.295445051423688376e+00
2.545015167699209435e+00
2.545015167699209435e+00
2.638768028809472810e+00
2.638768028809472810e+00
2.645143223364970542e+00
2.645143223364970542e+00
2.473387981810968306e+00
2.473387981810968306e+00
2.302945280312509890e+00
2.302945280312509890e+00
2.302945280312509890e+00
2.256631366924039650e+00
2.256631366924039650e+00
2.243505966368602778e+00
2.243505966368602778e+00
2.260381481368449741e+00
2.260381481368449741e+00
2.318695760979033516e+00
2.318695760979033516e+00
2.284007202368236289e+00
2.284007202368236289e+00
2.309320474868007622e+00
2.309320474868007622e+00
2.369134800256355700e+00
2.369134800256355700e+00
2.495326151310770069e+00
2.495326151310770069e+00
2.495326151310770069e+00
2.528702169866023475e+00
2.528702169866023475e+00
2.441699514755699685e+00
2.441699514755699685e+00
2.244818506424146598e+00
2.244818506424146598e+00
2.180879055146946577e+00
2.180879055146946577e+00
2.179566515091402756e+00
2.179566515091402756e+00
2.070063173314615312e+00
2.070063173314615312e+00
2.150315622425000850e+00
2.150315622425000850e+00
2.183129123813593253e+00
2.183129123813593253e+00
2.183129123813593253e+00
2.245006012146367080e+00
2.245006012146367080e+00
2.357696951200903612e+00
2.357696951200903612e+00
2.373072420422986717e+00
2.373072420422986717e+00
2.456512466811120898e+00
2.456512466811120898e+00
2.627142674031800240e+00
2.627142674031800240e+00
2.513701712088381779e+00
2.513701712088381779e+00
2.401948301644947659e+00
2.401948301644947659e+00
2.346071596423230599e+00
2.346071596423230599e+00
2.346071596423230599e+00
2.396323129978331856e+00
2.396323129978331856e+00
2.352071779534287366e+00
2.352071779534287366e+00
2.189691824091311467e+00
2.189691824091311467e+00
2.275756950590533290e+00
2.275756950590533290e+00
2.260193975646229259e+00
2.260193975646229259e+00
2.119752189703054679e+00
2.119752189703054679e+00
2.116752098147526517e+00
2.116752098147526517e+00
2.309507980590228104e+00
2.309507980590228104e+00
2.309507980590228104e+00
2.434386791589098653e+00
2.570515945921201251e+00
2.570515945921201251e+00
2.570515945921201251e+00
2.431386700033570492e+00
2.431386700033570492e+00
2.221380291146580532e+00
2.221380291146580532e+00
2.185191686758019003e+00
2.185191686758019003e+00
2.232068117313150690e+00
2.232068117313150690e+00
2.321508346812341639e+00
2.321508346812341639e+00
2.296945097201452679e+00
2.296945097201452679e+00
2.267881710257271255e+00
2.267881710257271255e+00
2.333508713034455617e+00
2.333508713034455617e+00
2.409448530533769173e+00
2.409448530533769173e+00
2.409448530533769173e+00
2.487825922421948999e+00
2.487825922421948999e+00
2.534139835810419239e+00
2.534139835810419239e+00
2.614017273476363368e+00
2.614017273476363368e+00
2.638580523087252327e+00
2.638580523087252327e+00
2.609329630420849977e+00
2.609329630420849977e+00
2.497013702810754854e+00
2.497013702810754854e+00
2.455949949644459451e+00
2.455949949644459451e+00
2.400073244422742391e+00
2.400073244422742391e+00
2.400073244422742391e+00
2.231130588702047834e+00
2.231130588702047834e+00
2.195879512924588717e+00
2.195879512924588717e+00
2.130065004425183872e+00
2.130065004425183872e+00
2.067250587481307633e+00
2.067250587481307633e+00
2.066688070314646186e+00
2.066688070314646186e+00
2.039687246314890068e+00
2.039687246314890068e+00
2.097626514481032878e+00
2.097626514481032878e+00
2.133627613147373925e+00
2.133627613147373925e+00
2.133627613147373925e+00
2.302195257423627517e+00
2.302195257423627517e+00
2.501701345866268245e+00
2.501701345866268245e+00
2.648330820642719630e+00
2.648330820642719630e+00
2.638768028809472810e+00
2.638768028809472810e+00
2.555702993865779593e+00
2.555702993865779593e+00
2.397073152867214230e+00
2.397073152867214230e+00
2.234130680257575996e+00
2.234130680257575996e+00
2.177691457869197489e+00
2.177691457869197489e+00
2.177691457869197489e+00
2.143565416425061709e+00
2.143565416425061709e+00
2.160440931424909561e+00
2.160440931424909561e+00
2.211629993591112786e+00
2.211629993591112786e+00
2.406823450422681532e+00
2.406823450422681532e+00
2.445262123477889293e+00
2.445262123477889293e+00
2.392948026978362286e+00
2.392948026978362286e+00
2.331071138645588459e+00
2.331071138645588459e+00
2.363322122867518971e+00
2.363322122867518971e+00
2.363322122867518971e+00
2.329196081423383191e+00
2.329196081423383191e+00
2.289257362590411127e+00
2.289257362590411127e+00
2.295632557145908859e+00
2.295632557145908859e+00
2.210317453535568966e+00
2.210317453535568966e+00
2.274819421979430434e+00
2.274819421979430434e+00
2.363697134311959935e+00
2.363697134311959935e+00
2.335571275978881367e+00
2.335571275978881367e+00
2.255506332590716312e+00
2.255506332590716312e+00
2.255506332590716312e+00
2.230568071535386387e+00
2.230568071535386387e+00
2.184816675313578038e+00
2.184816675313578038e+00
2.227380474257637299e+00
2.227380474257637299e+00
2.307820429090243319e+00
2.307820429090243319e+00
2.320008301034577336e+00
2.320008301034577336e+00
2.392198004089480357e+00
2.392198004089480357e+00
2.430636677144688562e+00
2.430636677144688562e+00
2.345696584978789634e+00
2.345696584978789634e+00
2.345696584978789634e+00
2.388635395367290304e+00
2.388635395367290304e+00
2.335196264534440402e+00
2.335196264534440402e+00
2.347009125034333454e+00
2.347009125034333454e+00
2.370072328867458111e+00
2.370072328867458111e+00
2.478263130588702179e+00
2.478263130588702179e+00
2.643455671864986201e+00
2.643455671864986201e+00
2.618329905087435794e+00
2.618329905087435794e+00
2.571078463087863142e+00
2.571078463087863142e+00
2.571078463087863142e+00
2.512951689199499850e+00
2.512951689199499850e+00
2.308007934812463802e+00
2.308007934812463802e+00
2.260943998535111632e+00
2.260943998535111632e+00
2.300507705923642732e+00
2.300507705923642732e+00
2.309320474868007622e+00
2.309320474868007622e+00
2.354696859645375007e+00
2.354696859645375007e+00
2.345696584978789634e+00
2.345696584978789634e+00
2.154628254036072832e+00
2.154628254036072832e+00
2.154628254036072832e+00
2.082063539536728847e+00
2.082063539536728847e+00
2.104564226203192501e+00
2.104564226203192501e+00
2.206567339091158875e+00
2.206567339091158875e+00
2.262631550035096417e+00
2.262631550035096417e+00
2.268069215979491737e+00
2.268069215979491737e+00
2.347196630756553937e+00
2.347196630756553937e+00
2.375697500534073914e+00
2.375697500534073914e+00
2.387322855311746483e+00
2.387322855311746483e+00
2.387322855311746483e+00
2.468512833033234433e+00
2.468512833033234433e+00
2.390885464033936536e+00
2.390885464033936536e+00
2.287757316812646824e+00
2.287757316812646824e+00
2.260568987090670667e+00
2.260568987090670667e+00
2.248568620868556689e+00
2.248568620868556689e+00
2.236380748924222672e+00
2.236380748924222672e+00
2.247068575090792386e+00
2.247068575090792386e+00
2.230755577257606870e+00
2.230755577257606870e+00
2.238255806146427940e+00
2.238255806146427940e+00
2.305195348979155678e+00
2.305195348979155678e+00
2.305195348979155678e+00
2.338571367534409973e+00
2.338571367534409973e+00
2.405323404644917229e+00
2.405323404644917229e+00
2.443949583422345917e+00
2.443949583422345917e+00
2.462700155644398592e+00
2.462700155644398592e+00
2.480138187810907002e+00
2.480138187810907002e+00
2.355821893978697901e+00
2.355821893978697901e+00
2.296757591479232197e+00
2.296757591479232197e+00
2.347196630756553937e+00
2.347196630756553937e+00
2.347196630756553937e+00
2.265819147312845505e+00
2.265819147312845505e+00
2.254568803979613900e+00
2.254568803979613900e+00
2.225505417035432032e+00
2.225505417035432032e+00
2.149565599536118921e+00
2.149565599536118921e+00
2.159315897091586223e+00
2.159315897091586223e+00
2.294132511368144556e+00
2.294132511368144556e+00
2.387697866756187448e+00
2.387697866756187448e+00
2.382635212256233537e+00
2.382635212256233537e+00
2.382635212256233537e+00
2.374197454756310055e+00
2.374197454756310055e+00
2.467200292977691056e+00
2.467200292977691056e+00
2.578766197698904250e+00
2.578766197698904250e+00
2.480325693533127485e+00
2.480325693533127485e+00
2.353571825312051669e+00
2.353571825312051669e+00
2.359009491256446989e+00
2.359009491256446989e+00
2.320008301034577336e+00
2.320008301034577336e+00
2.269194250312814631e+00
2.269194250312814631e+00
2.269194250312814631e+00
2.204317270424512643e+00
2.204317270424512643e+00
2.131190038758506766e+00
2.131190038758506766e+00
2.077938413647877791e+00
2.077938413647877791e+00
2.158565874202703849e+00
2.158565874202703849e+00
2.303507797479171337e+00
2.303507797479171337e+00
2.407948484756004870e+00
2.407948484756004870e+00
2.419386333811456957e+00
2.419386333811456957e+00
2.462137638477736701e+00
2.462137638477736701e+00
2.502451368755150174e+00
2.502451368755150174e+00
2.502451368755150174e+00
2.456699972533341381e+00
2.456699972533341381e+00
2.480888210699789376e+00
2.480888210699789376e+00
2.454824915311136557e+00
2.454824915311136557e+00
2.398385692922757606e+00
2.398385692922757606e+00
2.334446241645558029e+00
2.334446241645558029e+00
2.221192785424360050e+00
2.221192785424360050e+00
2.156878322702719064e+00
2.156878322702719064e+00
2.139440290536210654e+00
2.139440290536210654e+00
2.149190588091677956e+00
2.149190588091677956e+00
2.149190588091677956e+00
2.220442762535478121e+00
2.220442762535478121e+00
2.235068208868678852e+00
2.235068208868678852e+00
2.202254707480086449e+00
2.202254707480086449e+00
2.257943906979583026e+00
2.257943906979583026e+00
2.288132328257088233e+00
2.288132328257088233e+00
2.309507980590228104e+00
2.309507980590228104e+00
2.386572832422864110e+00
2.386572832422864110e+00
2.306320383312479017e+00
2.306320383312479017e+00
2.306320383312479017e+00
2.321695852534562121e+00
2.321695852534562121e+00
2.408698507644886799e+00
2.408698507644886799e+00
2.357696951200903612e+00
2.357696951200903612e+00
2.380760155034028269e+00
2.380760155034028269e+00
2.400823267311624321e+00
2.400823267311624321e+00
2.347946653645436310e+00
2.347946653645436310e+00
2.423886471144749422e+00
2.423886471144749422e+00
2.484450819421979428e+00
2.484450819421979428e+00
2.484450819421979428e+00
2.425949034089175171e+00
2.425949034089175171e+00
2.426886562700277583e+00
2.426886562700277583e+00
2.382072695089572090e+00
2.382072695089572090e+00
2.403448347422711961e+00
2.403448347422711961e+00
2.433636768700216724e+00
2.433636768700216724e+00
2.322445875423444495e+00
2.322445875423444495e+00
2.255131321146275347e+00
2.255131321146275347e+00
2.239755851924192243e+00
2.239755851924192243e+00
2.193066927091281038e+00
2.193066927091281038e+00
2.193066927091281038e+00
2.192879421369060555e+00
2.192879421369060555e+00
2.199254615924558287e+00
2.199254615924558287e+00
2.225505417035432032e+00
2.225505417035432032e+00
2.273506881923887057e+00
2.273506881923887057e+00
2.368384777367473326e+00
2.368384777367473326e+00
2.431011688589129527e+00
2.431011688589129527e+00
2.479013153477584552e+00
2.479013153477584552e+00
2.441512009033478758e+00
2.441512009033478758e+00
2.448637226477858864e+00
2.448637226477858864e+00
2.471512924588763038e+00
2.471512924588763038e+00
2.380197637867366822e+00
2.380197637867366822e+00
2.335758781701101849e+00
2.335758781701101849e+00
2.335758781701101849e+00
2.313633106479079604e+00
2.313633106479079604e+00
2.287944822534867306e+00
2.287944822534867306e+00
2.250443678090761956e+00
2.250443678090761956e+00
2.182004089480269915e+00
2.182004089480269915e+00
2.173191320535905025e+00
2.173191320535905025e+00
2.221005279702139568e+00
2.221005279702139568e+00
2.217817682424390480e+00
2.217817682424390480e+00
2.292819971312600735e+00
2.292819971312600735e+00
2.292819971312600735e+00
2.337821344645527599e+00
2.337821344645527599e+00
2.334071230201117064e+00
2.334071230201117064e+00
2.454449903866695148e+00
2.454449903866695148e+00
2.456699972533341381e+00
2.456699972533341381e+00
2.378510086367381593e+00
2.378510086367381593e+00
2.357509445478682686e+00
2.357509445478682686e+00
2.288882351145970162e+00
2.288882351145970162e+00
2.258318918424023991e+00
2.258318918424023991e+00
2.258318918424023991e+00
2.289444868312631609e+00
2.289444868312631609e+00
2.298445142979216982e+00
2.298445142979216982e+00
2.314383129367961978e+00
2.314383129367961978e+00
2.324320932645649762e+00
2.324320932645649762e+00
2.350571733756523507e+00
2.350571733756523507e+00
2.433074251533554833e+00
2.433074251533554833e+00
2.413386150700399746e+00
2.413386150700399746e+00
2.398573198644978088e+00
2.398573198644978088e+00
2.398573198644978088e+00
2.478825647755364070e+00
2.478825647755364070e+00
2.375322489089632505e+00
2.375322489089632505e+00
2.247631092257453833e+00
2.247631092257453833e+00
2.210879970702230857e+00
2.210879970702230857e+00
2.146940519425031280e+00
2.146940519425031280e+00
2.145440473647266977e+00
2.145440473647266977e+00
2.174128849147007880e+00
2.174128849147007880e+00
2.200942167424543072e+00
2.200942167424543072e+00
2.200942167424543072e+00
2.265256630146183614e+00
2.265256630146183614e+00
2.318883266701254442e+00
2.318883266701254442e+00
2.368197271645252844e+00
2.368197271645252844e+00
2.455012421033357040e+00
2.455012421033357040e+00
2.454074892422254184e+00
2.454074892422254184e+00
2.482575762199774161e+00
2.482575762199774161e+00
2.533577318643757348e+00
2.533577318643757348e+00
2.372322397534104788e+00
2.372322397534104788e+00
2.273694387646107540e+00
2.273694387646107540e+00
2.273694387646107540e+00
2.209004913480026033e+00
2.209004913480026033e+00
2.160065919980468152e+00
2.160065919980468152e+00
2.180129032258064647e+00
2.180129032258064647e+00
2.205817316202276945e+00
2.205817316202276945e+00
2.236005737479781263e+00
2.236005737479781263e+00
2.281194616534928166e+00
2.281194616534928166e+00
2.287944822534867306e+00
2.287944822534867306e+00
2.345884090701010116e+00
2.345884090701010116e+00
2.345884090701010116e+00
2.368947294534135217e+00
2.368947294534135217e+00
2.350759239478743989e+00
2.350759239478743989e+00
2.421823908200323228e+00
2.421823908200323228e+00
2.414511185033723084e+00
2.414511185033723084e+00
2.314570635090182460e+00
2.314570635090182460e+00
2.320758323923459709e+00
2.320758323923459709e+00
2.268444227423932702e+00
2.268444227423932702e+00
2.268444227423932702e+00
2.228318002868740155e+00
2.228318002868740155e+00
2.241818414868617992e+00
2.241818414868617992e+00
2.231505600146489243e+00
2.231505600146489243e+00
2.250818689535202921e+00
2.250818689535202921e+00
2.288319833979308715e+00
2.288319833979308715e+00
2.316258186590166801e+00
2.316258186590166801e+00
2.338008850367748082e+00
2.338008850367748082e+00
2.329196081423383191e+00
2.329196081423383191e+00
2.329196081423383191e+00
2.306132877590258534e+00
2.306132877590258534e+00
2.404010864589373409e+00
2.404010864589373409e+00
2.383197729422894984e+00
2.383197729422894984e+00
2.312133060701315301e+00
2.312133060701315301e+00
2.291882442701498768e+00
2.291882442701498768e+00
2.289819879757073018e+00
2.289819879757073018e+00
2.302945280312509890e+00
2.302945280312509890e+00
2.313445600756859122e+00
2.313445600756859122e+00
2.313445600756859122e+00
2.293757499923703591e+00
2.293757499923703591e+00
2.338008850367748082e+00
2.338008850367748082e+00
2.431574205755790974e+00
2.431574205755790974e+00
2.460450086977751916e+00
2.460450086977751916e+00
2.485013336588640875e+00
2.485013336588640875e+00
2.458762535477767130e+00
2.458762535477767130e+00
2.449762260811182202e+00
2.449762260811182202e+00
2.465137730033265306e+00
2.465137730033265306e+00
2.339321390423291458e+00
2.339321390423291458e+00
2.266006653035065987e+00
2.266006653035065987e+00
2.210317453535568966e+00
2.210317453535568966e+00
2.210317453535568966e+00
2.104376720480972018e+00
2.104376720480972018e+00
2.074750816370128703e+00
2.074750816370128703e+00
2.098376537369914807e+00
2.098376537369914807e+00
2.161940977202673420e+00
2.161940977202673420e+00
2.244818506424146598e+00
2.244818506424146598e+00
2.322445875423444495e+00
2.322445875423444495e+00
2.410948576311533031e+00
2.410948576311533031e+00
2.495888668477431516e+00
2.495888668477431516e+00
2.479763176366466482e+00
2.479763176366466482e+00
2.479763176366466482e+00
2.494951139866329104e+00
2.494951139866329104e+00
2.499638782921842051e+00
2.499638782921842051e+00
2.370447340311899076e+00
2.370447340311899076e+00
2.310633014923550999e+00
2.310633014923550999e+00
2.253818781090731527e+00
2.253818781090731527e+00
2.195504501480147752e+00
2.195504501480147752e+00
2.212942533646656607e+00
2.212942533646656607e+00
2.226067934202093479e+00
2.226067934202093479e+00
2.226067934202093479e+00
2.270319284646137969e+00
2.270319284646137969e+00
2.324695944090090727e+00
2.324695944090090727e+00
2.335758781701101849e+00
2.335758781701101849e+00
2.372884914700766235e+00
2.372884914700766235e+00
2.381697683645130681e+00
2.381697683645130681e+00
2.332383678701132279e+00
2.332383678701132279e+00
2.362572099978637485e+00
2.362572099978637485e+00
2.311383037812433372e+00
2.311383037812433372e+00
2.311383037812433372e+00
2.218567705313272853e+00
2.218567705313272853e+00
2.206567339091158875e+00
2.206567339091158875e+00
2.168691183202612560e+00
2.168691183202612560e+00
2.161940977202673420e+00
2.161940977202673420e+00
2.224567888424329176e+00
2.224567888424329176e+00
2.263569078646198829e+00
2.263569078646198829e+00
2.331633655812249906e+00
2.331633655812249906e+00
2.380010132145145896e+00
2.380010132145145896e+00
2.380010132145145896e+00
2.404760887478255782e+00
2.404760887478255782e+00
2.459137546922208095e+00
2.459137546922208095e+00
2.440949491866817311e+00
2.440949491866817311e+00
2.398573198644978088e+00
2.398573198644978088e+00
2.454262398144474666e+00
2.454262398144474666e+00
2.357321939756462204e+00
2.357321939756462204e+00
2.283069673757133433e+00
2.283069673757133433e+00
2.262256538590655452e+00
2.262256538590655452e+00
2.200192144535660699e+00
2.200192144535660699e+00
2.193629444257942485e+00
2.193629444257942485e+00
2.193629444257942485e+00
2.214442579424420909e+00
2.214442579424420909e+00
2.227192968535416817e+00
2.227192968535416817e+00
2.275006927701650916e+00
2.275006927701650916e+00
2.312695577867977192e+00
2.312695577867977192e+00
2.329196081423383191e+00
2.329196081423383191e+00
2.369697317423017147e+00
2.369697317423017147e+00
2.330133610034486047e+00
2.330133610034486047e+00
2.319258278145695407e+00
2.319258278145695407e+00
2.369509811700796664e+00
2.369509811700796664e+00
2.369509811700796664e+00
2.298632648701437464e+00
2.298632648701437464e+00
2.272944364757225166e+00
2.272944364757225166e+00
2.257943906979583026e+00
2.257943906979583026e+00
2.219880245368816230e+00
2.219880245368816230e+00
2.265631641590625023e+00
2.265631641590625023e+00
2.311758049256874337e+00
2.311758049256874337e+00
2.364634662923062791e+00
2.364634662923062791e+00
2.402885830256050514e+00
2.402885830256050514e+00
2.402885830256050514e+00
2.403073335978270997e+00
2.403073335978270997e+00
2.417698782311472172e+00
2.417698782311472172e+00
2.428011597033600921e+00
2.428011597033600921e+00
2.374572466200750576e+00
2.374572466200750576e+00
2.401573290200506694e+00
2.401573290200506694e+00
2.387135349589526001e+00
2.387135349589526001e+00
2.281944639423810539e+00
2.281944639423810539e+00
2.248006103701895242e+00
2.248006103701895242e+00
2.248006103701895242e+00
2.181254066591387542e+00
2.181254066591387542e+00
2.142252876369517889e+00
2.142252876369517889e+00
2.178253975035859380e+00
2.178253975035859380e+00
2.221567796868801015e+00
2.221567796868801015e+00
2.271256813257240381e+00
2.271256813257240381e+00
2.328633564256721744e+00
2.328633564256721744e+00
2.339321390423291458e+00
2.339321390423291458e+00
2.414323679311502602e+00
2.414323679311502602e+00
2.414323679311502602e+00
2.426324045533616136e+00
2.426324045533616136e+00
2.379447614978484449e+00
2.379447614978484449e+00
2.440949491866817311e+00
2.440949491866817311e+00
2.378885097811823002e+00
2.378885097811823002e+00
2.286444776757103448e+00
2.286444776757103448e+00
2.247631092257453833e+00
2.247631092257453833e+00
2.184629169591357556e+00
2.184629169591357556e+00
2.178628986480300345e+00
2.178628986480300345e+00
2.208817407757805107e+00
2.208817407757805107e+00
2.208817407757805107e+00
2.201692190313425002e+00
2.201692190313425002e+00
2.226817957090975852e+00
2.226817957090975852e+00
2.237318277535325084e+00
2.237318277535325084e+00
2.262819055757316900e+00
2.262819055757316900e+00
2.358634479812006024e+00
2.358634479812006024e+00
2.359384502700888397e+00
2.359384502700888397e+00
2.369134800256355700e+00
2.369134800256355700e+00
2.461950132755516218e+00
2.461950132755516218e+00
2.461950132755516218e+00
2.412823633533738299e+00
2.412823633533738299e+00
2.380197637867366822e+00
2.380197637867366822e+00
2.385447798089541660e+00
2.385447798089541660e+00
2.354134342478713116e+00
2.354134342478713116e+00
2.328821069978942226e+00
2.328821069978942226e+00
2.304070314645832784e+00
2.304070314645832784e+00
2.302382763145847999e+00
2.302382763145847999e+00
2.329196081423383191e+00
2.329196081423383191e+00
2.329196081423383191e+00
2.345884090701010116e+00
2.345884090701010116e+00
2.369134800256355700e+00
2.369134800256355700e+00
2.413386150700399746e+00
2.413386150700399746e+00
2.367259743034150432e+00
2.367259743034150432e+00
2.371759880367442896e+00
2.371759880367442896e+00
2.398573198644978088e+00
2.398573198644978088e+00
2.290007385479293500e+00
2.290007385479293500e+00
2.242005920590838475e+00
2.242005920590838475e+00
2.242005920590838475e+00
2.202817224646748340e+00
2.202817224646748340e+00
2.165503585924863472e+00
2.165503585924863472e+00
2.177878963591417971e+00
2.177878963591417971e+00
2.194941984313486305e+00
2.194941984313486305e+00
2.229068025757622085e+00
2.229068025757622085e+00
2.279507065034943825e+00
2.279507065034943825e+00
2.313258095034638639e+00
2.313258095034638639e+00
2.372509903256325270e+00
2.372509903256325270e+00
2.410761070589312105e+00
2.410761070589312105e+00
2.381322672200689716e+00
2.381322672200689716e+00
2.432324228644673347e+00
2.432324228644673347e+00
2.432324228644673347e+00
2.398948210089419053e+00
2.398948210089419053e+00
2.297882625812555535e+00
2.297882625812555535e+00
2.271069307535019899e+00
2.271069307535019899e+00
2.208817407757805107e+00
2.208817407757805107e+00
2.181816583758049433e+00
2.181816583758049433e+00
2.214255073702200427e+00
2.214255073702200427e+00
2.224942899868770141e+00
2.224942899868770141e+00
2.266944181646168399e+00
2.266944181646168399e+00
2.266944181646168399e+00
2.311195532090212890e+00
2.311195532090212890e+00
2.310445509201330516e+00
2.310445509201330516e+00
2.370634846034120002e+00
2.370634846034120002e+00
2.374947477645191540e+00
2.374947477645191540e+00
2.363509628589739453e+00
2.363509628589739453e+00
2.424261482589190386e+00
2.424261482589190386e+00
2.352634296700948813e+00
2.352634296700948813e+00
2.279319559312723342e+00
2.279319559312723342e+00
2.269756767479476078e+00
2.269756767479476078e+00
2.269756767479476078e+00
2.212755027924436124e+00
2.212755027924436124e+00
2.222505325479903426e+00
2.222505325479903426e+00
2.262819055757316900e+00
2.262819055757316900e+00
2.278194524979400004e+00
2.278194524979400004e+00
2.326195989867855030e+00
2.326195989867855030e+00
2.358446974089785542e+00
2.358446974089785542e+00
