2.200192144535660699e+00
2.200192144535660699e+00
2.175816400646992221e+00
2.175816400646992221e+00
2.175816400646992221e+00
2.215005096591082356e+00
2.215005096591082356e+00
2.215005096591082356e+00
2.223630359813226764e+00
2.223630359813226764e+00
2.223630359813226764e+00
2.223630359813226764e+00
2.255693838312936794e+00
2.255693838312936794e+00
2.255693838312936794e+00
2.333133701590014208e+00
2.333133701590014208e+00
2.333133701590014208e+00
2.364634662923062791e+00
2.364634662923062791e+00
2.364634662923062791e+00
2.364634662923062791e+00
2.404198370311593891e+00
2.404198370311593891e+00
2.404198370311593891e+00
2.421636402478102745e+00
2.421636402478102745e+00
2.421636402478102745e+00
2.374009949034089573e+00
2.374009949034089573e+00
2.374009949034089573e+00
2.374009949034089573e+00
2.396510635700552783e+00
2.396510635700552783e+00
2.396510635700552783e+00
2.368947294534135217e+00
2.368947294534135217e+00
2.368947294534135217e+00
2.276881984923856628e+00
2.276881984923856628e+00
2.276881984923856628e+00
2.276881984923856628e+00
2.253443769646290562e+00
2.253443769646290562e+00
2.253443769646290562e+00
2.203942258980071234e+00
2.203942258980071234e+00
2.203942258980071234e+00
2.186691732535783306e+00
2.186691732535783306e+00
2.186691732535783306e+00
2.186691732535783306e+00
2.217067659535508550e+00
2.217067659535508550e+00
2.217067659535508550e+00
2.226442945646534444e+00
2.226442945646534444e+00
2.226442945646534444e+00
2.226442945646534444e+00
2.272756859035004684e+00
2.272756859035004684e+00
2.272756859035004684e+00
2.320570818201239227e+00
2.320570818201239227e+00
2.320570818201239227e+00
2.341196447645496725e+00
2.341196447645496725e+00
2.341196447645496725e+00
2.341196447645496725e+00
2.398385692922757606e+00
2.398385692922757606e+00
2.398385692922757606e+00
2.407010956144902014e+00
2.407010956144902014e+00
2.407010956144902014e+00
2.374197454756310055e+00
2.374197454756310055e+00
2.374197454756310055e+00
2.374197454756310055e+00
2.415073702200384531e+00
2.415073702200384531e+00
2.415073702200384531e+00
2.337633838923307117e+00
2.337633838923307117e+00
2.337633838923307117e+00
2.337633838923307117e+00
2.275569444868312807e+00
2.275569444868312807e+00
2.275569444868312807e+00
2.263569078646198829e+00
2.263569078646198829e+00
2.263569078646198829e+00
2.197004547257912055e+00
2.197004547257912055e+00
2.197004547257912055e+00
2.185379192480239485e+00
2.185379192480239485e+00
2.185379192480239485e+00
2.185379192480239485e+00
2.219130222479934300e+00
2.219130222479934300e+00
2.219130222479934300e+00
2.240880886257515137e+00
2.240880886257515137e+00
2.240880886257515137e+00
2.302382763145847999e+00
2.302382763145847999e+00
2.302382763145847999e+00
2.302382763145847999e+00
2.344196539201025331e+00
2.344196539201025331e+00
2.344196539201025331e+00
2.357321939756462204e+00
2.357321939756462204e+00
2.357321939756462204e+00
2.357321939756462204e+00
2.413386150700399746e+00
2.413386150700399746e+00
2.413386150700399746e+00
2.401385784478286212e+00
2.401385784478286212e+00
2.401385784478286212e+00
2.381135166478469234e+00
2.381135166478469234e+00
2.381135166478469234e+00
2.381135166478469234e+00
2.401948301644947659e+00
2.401948301644947659e+00
2.401948301644947659e+00
2.302195257423627517e+00
2.302195257423627517e+00
2.302195257423627517e+00
2.254943815424054865e+00
2.254943815424054865e+00
2.254943815424054865e+00
2.233380657368694511e+00
2.233380657368694511e+00
2.233380657368694511e+00
2.233380657368694511e+00
2.179191503646961792e+00
2.179191503646961792e+00
2.179191503646961792e+00
2.187066743980223826e+00
2.187066743980223826e+00
2.187066743980223826e+00
2.202629718924527857e+00
2.202629718924527857e+00
2.202629718924527857e+00
2.202629718924527857e+00
2.242193426313058957e+00
2.242193426313058957e+00
2.242193426313058957e+00
2.320383312479018745e+00
2.320383312479018745e+00
2.320383312479018745e+00
2.343071504867702437e+00
2.343071504867702437e+00
2.343071504867702437e+00
2.343071504867702437e+00
2.376072511978514878e+00
2.376072511978514878e+00
2.376072511978514878e+00
2.406260933256020085e+00
2.406260933256020085e+00
2.406260933256020085e+00
2.377947569200720146e+00
2.377947569200720146e+00
2.377947569200720146e+00
2.377947569200720146e+00
2.390885464033936536e+00
2.390885464033936536e+00
2.390885464033936536e+00
2.390885464033936536e+00
2.390885464033936536e+00
2.390885464033936536e+00
2.291319925534837321e+00
2.291319925534837321e+00
2.291319925534837321e+00
2.291319925534837321e+00
2.250256172368541474e+00
2.250256172368541474e+00
2.250256172368541474e+00
2.209192419202246516e+00
2.209192419202246516e+00
2.209192419202246516e+00
2.181066560869167059e+00
2.181066560869167059e+00
2.181066560869167059e+00
2.181066560869167059e+00
2.212005005035553751e+00
2.212005005035553751e+00
2.212005005035553751e+00
2.218005188146610962e+00
2.218005188146610962e+00
2.218005188146610962e+00
2.266006653035065987e+00
2.266006653035065987e+00
2.266006653035065987e+00
2.266006653035065987e+00
2.335571275978881367e+00
2.335571275978881367e+00
2.335571275978881367e+00
2.372884914700766235e+00
2.372884914700766235e+00
2.372884914700766235e+00
2.372884914700766235e+00
2.407760979033784388e+00
2.407760979033784388e+00
2.407760979033784388e+00
2.419573839533677440e+00
2.419573839533677440e+00
2.419573839533677440e+00
2.370822351756340485e+00
2.370822351756340485e+00
2.370822351756340485e+00
2.370822351756340485e+00
2.404010864589373409e+00
2.404010864589373409e+00
2.404010864589373409e+00
2.358634479812006024e+00
2.358634479812006024e+00
2.358634479812006024e+00
2.267506698812830290e+00
2.267506698812830290e+00
2.267506698812830290e+00
2.267506698812830290e+00
2.238443311868648422e+00
2.238443311868648422e+00
2.238443311868648422e+00
2.189691824091311467e+00
2.189691824091311467e+00
2.189691824091311467e+00
2.182754112369151844e+00
2.182754112369151844e+00
2.182754112369151844e+00
2.182754112369151844e+00
2.227567979979857782e+00
2.227567979979857782e+00
2.227567979979857782e+00
2.243505966368602778e+00
2.243505966368602778e+00
2.243505966368602778e+00
2.294882534257026929e+00
2.294882534257026929e+00
2.294882534257026929e+00
2.294882534257026929e+00
2.334071230201117064e+00
2.334071230201117064e+00
2.334071230201117064e+00
2.346259102145451525e+00
2.346259102145451525e+00
2.346259102145451525e+00
2.390697958311716054e+00
2.390697958311716054e+00
2.390697958311716054e+00
2.390697958311716054e+00
2.383010223700674501e+00
2.383010223700674501e+00
2.383010223700674501e+00
2.354696859645375007e+00
2.354696859645375007e+00
2.354696859645375007e+00
2.390322946867275089e+00
2.390322946867275089e+00
2.390322946867275089e+00
2.390322946867275089e+00
2.309882992034669069e+00
2.309882992034669069e+00
2.309882992034669069e+00
2.237693288979766049e+00
2.237693288979766049e+00
2.237693288979766049e+00
2.231318094424268317e+00
2.231318094424268317e+00
2.231318094424268317e+00
2.231318094424268317e+00
2.206567339091158875e+00
2.206567339091158875e+00
2.206567339091158875e+00
2.212380016479995160e+00
2.212380016479995160e+00
2.212380016479995160e+00
2.228130497146519229e+00
2.228130497146519229e+00
2.228130497146519229e+00
2.228130497146519229e+00
2.253818781090731527e+00
2.253818781090731527e+00
2.253818781090731527e+00
2.315508163701284872e+00
2.315508163701284872e+00
2.315508163701284872e+00
2.357321939756462204e+00
2.357321939756462204e+00
2.357321939756462204e+00
2.357321939756462204e+00
2.380385143589587305e+00
2.380385143589587305e+00
2.380385143589587305e+00
2.424448988311410869e+00
2.424448988311410869e+00
2.424448988311410869e+00
2.404760887478255782e+00
2.404760887478255782e+00
2.404760887478255782e+00
2.404760887478255782e+00
2.388447889645069822e+00
2.388447889645069822e+00
2.388447889645069822e+00
2.389385418256172233e+00
2.389385418256172233e+00
2.389385418256172233e+00
2.389385418256172233e+00
2.287194799645985377e+00
2.287194799645985377e+00
2.287194799645985377e+00
2.254568803979613900e+00
2.254568803979613900e+00
2.254568803979613900e+00
2.220067751091036712e+00
2.220067751091036712e+00
2.220067751091036712e+00
2.220067751091036712e+00
2.182004089480269915e+00
2.182004089480269915e+00
2.182004089480269915e+00
2.208067384868923178e+00
2.208067384868923178e+00
2.208067384868923178e+00
2.224567888424329176e+00
2.224567888424329176e+00
2.224567888424329176e+00
2.224567888424329176e+00
2.256443861201819168e+00
2.256443861201819168e+00
2.256443861201819168e+00
2.329571092867824156e+00
2.329571092867824156e+00
2.329571092867824156e+00
2.353384319589831186e+00
2.353384319589831186e+00
2.353384319589831186e+00
2.353384319589831186e+00
2.392010498367259874e+00
2.392010498367259874e+00
2.392010498367259874e+00
2.415636219367045978e+00
2.415636219367045978e+00
2.415636219367045978e+00
2.374197454756310055e+00
2.374197454756310055e+00
2.374197454756310055e+00
2.374197454756310055e+00
2.390510452589495571e+00
2.390510452589495571e+00
2.390510452589495571e+00
2.367634754478591397e+00
2.367634754478591397e+00
2.367634754478591397e+00
2.276319467757194737e+00
2.276319467757194737e+00
2.276319467757194737e+00
2.276319467757194737e+00
2.239568346201971760e+00
2.239568346201971760e+00
2.239568346201971760e+00
2.178066469313638454e+00
2.178066469313638454e+00
2.178066469313638454e+00
2.161753471480452937e+00
2.161753471480452937e+00
2.161753471480452937e+00
2.161753471480452937e+00
2.194004455702383449e+00
2.194004455702383449e+00
2.194004455702383449e+00
2.228880520035401602e+00
2.228880520035401602e+00
2.228880520035401602e+00
2.290757408368175430e+00
2.290757408368175430e+00
2.290757408368175430e+00
2.290757408368175430e+00
2.348134159367656792e+00
2.348134159367656792e+00
2.348134159367656792e+00
2.355071871089815971e+00
2.355071871089815971e+00
2.355071871089815971e+00
2.355071871089815971e+00
2.411511093478194478e+00
2.411511093478194478e+00
2.411511093478194478e+00
2.408511001922666317e+00
2.408511001922666317e+00
2.408511001922666317e+00
2.360322031311990809e+00
2.360322031311990809e+00
2.360322031311990809e+00
2.360322031311990809e+00
2.394823084200567997e+00
2.394823084200567997e+00
2.394823084200567997e+00
2.344571550645466296e+00
2.344571550645466296e+00
2.344571550645466296e+00
2.270694296090578934e+00
2.270694296090578934e+00
2.270694296090578934e+00
2.270694296090578934e+00
2.261694021423993561e+00
2.261694021423993561e+00
2.261694021423993561e+00
2.211067476424451339e+00
2.211067476424451339e+00
2.211067476424451339e+00
2.198129581591235393e+00
2.198129581591235393e+00
2.198129581591235393e+00
2.198129581591235393e+00
2.216317636646626177e+00
2.216317636646626177e+00
2.216317636646626177e+00
2.228880520035401602e+00
2.228880520035401602e+00
2.228880520035401602e+00
2.292257454145939732e+00
2.292257454145939732e+00
2.292257454145939732e+00
2.327883541367839371e+00
2.327883541367839371e+00
2.327883541367839371e+00
2.327883541367839371e+00
2.353759331034272151e+00
2.353759331034272151e+00
2.353759331034272151e+00
2.406448438978240567e+00
2.406448438978240567e+00
2.406448438978240567e+00
2.398198187200537124e+00
2.398198187200537124e+00
2.398198187200537124e+00
2.398198187200537124e+00
2.377385052034058699e+00
2.377385052034058699e+00
2.377385052034058699e+00
2.410948576311533031e+00
2.410948576311533031e+00
2.410948576311533031e+00
2.308945463423566213e+00
2.308945463423566213e+00
2.308945463423566213e+00
2.308945463423566213e+00
2.262444044312875935e+00
2.262444044312875935e+00
2.262444044312875935e+00
2.238818323313089387e+00
2.238818323313089387e+00
2.238818323313089387e+00
2.194566972869045340e+00
2.194566972869045340e+00
2.194566972869045340e+00
2.194566972869045340e+00
2.204317270424512643e+00
2.204317270424512643e+00
2.204317270424512643e+00
2.222505325479903426e+00
2.222505325479903426e+00
2.222505325479903426e+00
2.253818781090731527e+00
2.253818781090731527e+00
2.253818781090731527e+00
2.253818781090731527e+00
2.318883266701254442e+00
2.318883266701254442e+00
2.318883266701254442e+00
2.341196447645496725e+00
2.341196447645496725e+00
2.341196447645496725e+00
2.341196447645496725e+00
2.375322489089632505e+00
2.375322489089632505e+00
2.375322489089632505e+00
2.415823725089266905e+00
2.415823725089266905e+00
2.415823725089266905e+00
2.371009857478560967e+00
2.371009857478560967e+00
2.371009857478560967e+00
2.371009857478560967e+00
2.381885189367351607e+00
2.381885189367351607e+00
2.381885189367351607e+00
2.392760521256141804e+00
2.392760521256141804e+00
2.392760521256141804e+00
2.302007751701407035e+00
2.302007751701407035e+00
2.302007751701407035e+00
2.302007751701407035e+00
2.261319009979552597e+00
2.261319009979552597e+00
2.261319009979552597e+00
2.220817773979919085e+00
2.220817773979919085e+00
2.220817773979919085e+00
2.188941801202429094e+00
2.188941801202429094e+00
2.188941801202429094e+00
2.188941801202429094e+00
2.205817316202276945e+00
2.205817316202276945e+00
2.205817316202276945e+00
2.221755302591021497e+00
2.221755302591021497e+00
2.221755302591021497e+00
2.271256813257240381e+00
2.271256813257240381e+00
2.271256813257240381e+00
2.271256813257240381e+00
2.328821069978942226e+00
2.328821069978942226e+00
2.328821069978942226e+00
2.350196722312082542e+00
2.350196722312082542e+00
2.350196722312082542e+00
2.406448438978240567e+00
2.406448438978240567e+00
2.406448438978240567e+00
2.406448438978240567e+00
2.420136356700338887e+00
2.420136356700338887e+00
2.420136356700338887e+00
2.365759697256386129e+00
2.365759697256386129e+00
2.365759697256386129e+00
2.386760338145085036e+00
2.386760338145085036e+00
2.386760338145085036e+00
2.386760338145085036e+00
2.338196356089969008e+00
2.338196356089969008e+00
2.338196356089969008e+00
2.255318826868495830e+00
2.255318826868495830e+00
2.255318826868495830e+00
2.237130771813104602e+00
2.237130771813104602e+00
2.237130771813104602e+00
2.237130771813104602e+00
2.181816583758049433e+00
2.181816583758049433e+00
2.181816583758049433e+00
2.162315988647114828e+00
2.162315988647114828e+00
2.162315988647114828e+00
2.207129856257820322e+00
2.207129856257820322e+00
2.207129856257820322e+00
2.207129856257820322e+00
2.232255623035371173e+00
2.232255623035371173e+00
2.232255623035371173e+00
2.293382488479262626e+00
2.293382488479262626e+00
2.293382488479262626e+00
2.339883907589953349e+00
2.339883907589953349e+00
2.339883907589953349e+00
2.339883907589953349e+00
2.362947111423078006e+00
2.362947111423078006e+00
2.362947111423078006e+00
2.422761436811426083e+00
2.422761436811426083e+00
2.422761436811426083e+00
2.422761436811426083e+00
2.412636127811517817e+00
2.412636127811517817e+00
2.412636127811517817e+00
2.373072420422986717e+00
2.373072420422986717e+00
2.373072420422986717e+00
2.404948393200476264e+00
2.404948393200476264e+00
2.404948393200476264e+00
2.404948393200476264e+00
2.324508438367870244e+00
2.324508438367870244e+00
2.324508438367870244e+00
2.259068941312906365e+00
2.259068941312906365e+00
2.259068941312906365e+00
2.250631183812982439e+00
2.250631183812982439e+00
2.250631183812982439e+00
2.250631183812982439e+00
2.202254707480086449e+00
2.202254707480086449e+00
2.202254707480086449e+00
2.188004272591326682e+00
2.188004272591326682e+00
2.188004272591326682e+00
2.217255165257729033e+00
2.217255165257729033e+00
2.217255165257729033e+00
2.217255165257729033e+00
2.235255714590899334e+00
2.235255714590899334e+00
2.235255714590899334e+00
2.300132694479201767e+00
2.300132694479201767e+00
2.300132694479201767e+00
2.339321390423291458e+00
2.339321390423291458e+00
2.339321390423291458e+00
2.339321390423291458e+00
2.362197088534196077e+00
2.362197088534196077e+00
2.362197088534196077e+00
2.413948667867061193e+00
2.413948667867061193e+00
2.413948667867061193e+00
2.413948667867061193e+00
2.383385235145115466e+00
2.383385235145115466e+00
2.383385235145115466e+00
2.378135074922940628e+00
2.378135074922940628e+00
2.378135074922940628e+00
2.394635578478347071e+00
2.394635578478347071e+00
2.394635578478347071e+00
2.394635578478347071e+00
2.310070497756889552e+00
2.310070497756889552e+00
2.310070497756889552e+00
2.273319376201666131e+00
2.273319376201666131e+00
2.273319376201666131e+00
2.232443128757591655e+00
2.232443128757591655e+00
2.232443128757591655e+00
2.232443128757591655e+00
2.189691824091311467e+00
2.189691824091311467e+00
2.189691824091311467e+00
2.203754753257850751e+00
2.203754753257850751e+00
2.203754753257850751e+00
2.224192876979888212e+00
2.224192876979888212e+00
2.224192876979888212e+00
2.224192876979888212e+00
2.260756492812891150e+00
2.260756492812891150e+00
2.260756492812891150e+00
2.322070863979003530e+00
2.322070863979003530e+00
2.322070863979003530e+00
2.335571275978881367e+00
2.335571275978881367e+00
2.335571275978881367e+00
2.335571275978881367e+00
2.374009949034089573e+00
2.374009949034089573e+00
2.374009949034089573e+00
2.398760704367198571e+00
2.398760704367198571e+00
2.398760704367198571e+00
2.362759605700857524e+00
2.362759605700857524e+00
2.362759605700857524e+00
2.362759605700857524e+00
2.384322763756218322e+00
2.384322763756218322e+00
2.384322763756218322e+00
2.368572283089693808e+00
2.368572283089693808e+00
2.368572283089693808e+00
2.277444502090518075e+00
2.277444502090518075e+00
2.277444502090518075e+00
2.277444502090518075e+00
2.256443861201819168e+00
2.256443861201819168e+00
2.256443861201819168e+00
2.214817590868861874e+00
2.214817590868861874e+00
2.214817590868861874e+00
2.185754203924680450e+00
2.185754203924680450e+00
2.185754203924680450e+00
2.185754203924680450e+00
2.219505233924375265e+00
2.219505233924375265e+00
2.219505233924375265e+00
2.234880703146458369e+00
2.234880703146458369e+00
2.234880703146458369e+00
2.285132236701559627e+00
2.285132236701559627e+00
2.285132236701559627e+00
2.285132236701559627e+00
2.340258919034394314e+00
2.340258919034394314e+00
2.340258919034394314e+00
2.346821619312112972e+00
2.346821619312112972e+00
2.346821619312112972e+00
2.391260475478377501e+00
2.391260475478377501e+00
2.391260475478377501e+00
2.391260475478377501e+00
2.401573290200506694e+00
2.401573290200506694e+00
2.401573290200506694e+00
2.363509628589739453e+00
2.363509628589739453e+00
2.363509628589739453e+00
2.399698232978301426e+00
2.399698232978301426e+00
2.399698232978301426e+00
2.399698232978301426e+00
2.346821619312112972e+00
2.346821619312112972e+00
2.346821619312112972e+00
2.259443952757347329e+00
2.259443952757347329e+00
2.259443952757347329e+00
2.243880977813043742e+00
2.243880977813043742e+00
2.243880977813043742e+00
2.243880977813043742e+00
2.204129764702292160e+00
2.204129764702292160e+00
2.204129764702292160e+00
2.197942075869014911e+00
2.197942075869014911e+00
2.197942075869014911e+00
2.197942075869014911e+00
2.230380565813165905e+00
2.230380565813165905e+00
2.230380565813165905e+00
2.240880886257515137e+00
2.240880886257515137e+00
2.240880886257515137e+00
2.298632648701437464e+00
2.298632648701437464e+00
2.298632648701437464e+00
2.298632648701437464e+00
2.338571367534409973e+00
2.338571367534409973e+00
2.338571367534409973e+00
2.355071871089815971e+00
2.355071871089815971e+00
2.355071871089815971e+00
2.407948484756004870e+00
2.407948484756004870e+00
2.407948484756004870e+00
2.407948484756004870e+00
2.382822717978454019e+00
2.382822717978454019e+00
2.382822717978454019e+00
2.353759331034272151e+00
2.353759331034272151e+00
2.353759331034272151e+00
2.391635486922818910e+00
2.391635486922818910e+00
2.391635486922818910e+00
2.391635486922818910e+00
2.308195440534684284e+00
2.308195440534684284e+00
2.308195440534684284e+00
2.286819788201544412e+00
2.286819788201544412e+00
2.286819788201544412e+00
2.242943449201941331e+00
2.242943449201941331e+00
2.242943449201941331e+00
2.242943449201941331e+00
2.184441663869136629e+00
2.184441663869136629e+00
2.184441663869136629e+00
2.196817041535691573e+00
2.196817041535691573e+00
2.196817041535691573e+00
2.225505417035432032e+00
2.225505417035432032e+00
2.225505417035432032e+00
2.225505417035432032e+00
2.260756492812891150e+00
2.260756492812891150e+00
2.260756492812891150e+00
2.320383312479018745e+00
2.320383312479018745e+00
2.320383312479018745e+00
2.344759056367687222e+00
2.344759056367687222e+00
2.344759056367687222e+00
2.344759056367687222e+00
2.363697134311959935e+00
2.363697134311959935e+00
2.363697134311959935e+00
2.404385876033814373e+00
2.404385876033814373e+00
2.404385876033814373e+00
2.404385876033814373e+00
2.370259834589678594e+00
2.370259834589678594e+00
2.370259834589678594e+00
2.375697500534073914e+00
2.375697500534073914e+00
2.375697500534073914e+00
2.386197820978423145e+00
2.386197820978423145e+00
2.386197820978423145e+00
2.386197820978423145e+00
2.291132419812616394e+00
2.291132419812616394e+00
2.291132419812616394e+00
2.255693838312936794e+00
2.255693838312936794e+00
2.255693838312936794e+00
2.222505325479903426e+00
2.222505325479903426e+00
2.222505325479903426e+00
2.222505325479903426e+00
2.193441938535722002e+00
2.193441938535722002e+00
2.193441938535722002e+00
2.217255165257729033e+00
2.217255165257729033e+00
2.217255165257729033e+00
2.227380474257637299e+00
2.227380474257637299e+00
2.227380474257637299e+00
2.227380474257637299e+00
2.262819055757316900e+00
2.262819055757316900e+00
2.262819055757316900e+00
2.316445692312387283e+00
2.316445692312387283e+00
2.316445692312387283e+00
2.344946562089907705e+00
2.344946562089907705e+00
2.344946562089907705e+00
2.344946562089907705e+00
2.394260567033906106e+00
2.394260567033906106e+00
2.394260567033906106e+00
2.407760979033784388e+00
2.407760979033784388e+00
2.407760979033784388e+00
2.367822260200811879e+00
2.367822260200811879e+00
2.367822260200811879e+00
2.367822260200811879e+00
2.397823175756096159e+00
2.397823175756096159e+00
2.397823175756096159e+00
2.374572466200750576e+00
2.374572466200750576e+00
2.374572466200750576e+00
2.286819788201544412e+00
2.286819788201544412e+00
2.286819788201544412e+00
2.286819788201544412e+00
2.256818872646260132e+00
2.256818872646260132e+00
2.256818872646260132e+00
2.196254524369030126e+00
2.196254524369030126e+00
2.196254524369030126e+00
2.173003814813684542e+00
2.173003814813684542e+00
2.173003814813684542e+00
2.173003814813684542e+00
2.204129764702292160e+00
2.204129764702292160e+00
2.204129764702292160e+00
2.227192968535416817e+00
2.227192968535416817e+00
2.227192968535416817e+00
2.286444776757103448e+00
2.286444776757103448e+00
2.286444776757103448e+00
2.286444776757103448e+00
2.334258735923337547e+00
2.334258735923337547e+00
2.334258735923337547e+00
2.350196722312082542e+00
2.350196722312082542e+00
2.350196722312082542e+00
2.396885647144993747e+00
2.396885647144993747e+00
2.396885647144993747e+00
2.396885647144993747e+00
2.400073244422742391e+00
2.400073244422742391e+00
2.400073244422742391e+00
2.368947294534135217e+00
2.368947294534135217e+00
2.368947294534135217e+00
2.399323221533860018e+00
2.399323221533860018e+00
2.399323221533860018e+00
2.399323221533860018e+00
2.323383404034546906e+00
2.323383404034546906e+00
2.323383404034546906e+00
2.262069032868434526e+00
2.262069032868434526e+00
2.262069032868434526e+00
2.262069032868434526e+00
2.249693655201880027e+00
2.249693655201880027e+00
2.249693655201880027e+00
2.207129856257820322e+00
2.207129856257820322e+00
2.207129856257820322e+00
2.203004730368968822e+00
2.203004730368968822e+00
2.203004730368968822e+00
2.229630542924283532e+00
2.229630542924283532e+00
2.229630542924283532e+00
2.229630542924283532e+00
2.248193609424115724e+00
2.248193609424115724e+00
2.248193609424115724e+00
2.308570451979125249e+00
2.308570451979125249e+00
2.308570451979125249e+00
2.342133976256599581e+00
2.342133976256599581e+00
2.342133976256599581e+00
2.342133976256599581e+00
2.354321848200934042e+00
2.354321848200934042e+00
2.354321848200934042e+00
2.396885647144993747e+00
2.396885647144993747e+00
2.396885647144993747e+00
2.379447614978484449e+00
2.379447614978484449e+00
2.379447614978484449e+00
2.379447614978484449e+00
2.370634846034120002e+00
2.370634846034120002e+00
2.370634846034120002e+00
2.385447798089541660e+00
2.385447798089541660e+00
2.385447798089541660e+00
2.385447798089541660e+00
2.290757408368175430e+00
2.290757408368175430e+00
2.290757408368175430e+00
2.245381023590808045e+00
2.245381023590808045e+00
2.245381023590808045e+00
2.215005096591082356e+00
2.215005096591082356e+00
2.215005096591082356e+00
2.177503952146977007e+00
2.177503952146977007e+00
2.177503952146977007e+00
2.211442487868892304e+00
2.211442487868892304e+00
2.211442487868892304e+00
2.211442487868892304e+00
2.241443403424177028e+00
2.241443403424177028e+00
2.241443403424177028e+00
2.275006927701650916e+00
2.275006927701650916e+00
2.275006927701650916e+00
2.331258644367808941e+00
2.331258644367808941e+00
2.331258644367808941e+00
2.331258644367808941e+00
2.347946653645436310e+00
2.347946653645436310e+00
2.347946653645436310e+00
2.382447706534013054e+00
2.382447706534013054e+00
2.382447706534013054e+00
2.414323679311502602e+00
2.414323679311502602e+00
2.414323679311502602e+00
2.414323679311502602e+00
2.376447523422955843e+00
2.376447523422955843e+00
2.376447523422955843e+00
2.385072786645100695e+00
2.385072786645100695e+00
2.385072786645100695e+00
2.378697592089602519e+00
2.378697592089602519e+00
2.378697592089602519e+00
2.378697592089602519e+00
2.295257545701467894e+00
2.295257545701467894e+00
2.295257545701467894e+00
2.265631641590625023e+00
2.265631641590625023e+00
2.265631641590625023e+00
2.212192510757774677e+00
2.212192510757774677e+00
2.212192510757774677e+00
2.212192510757774677e+00
2.181629078035828950e+00
2.181629078035828950e+00
2.181629078035828950e+00
2.203379741813409787e+00
2.203379741813409787e+00
2.203379741813409787e+00
2.224380382702108694e+00
2.224380382702108694e+00
2.224380382702108694e+00
2.224380382702108694e+00
2.269944273201696561e+00
2.269944273201696561e+00
2.269944273201696561e+00
2.323945921201208797e+00
2.323945921201208797e+00
2.323945921201208797e+00
2.343634022034363884e+00
2.343634022034363884e+00
2.343634022034363884e+00
2.343634022034363884e+00
2.402698324533829588e+00
2.402698324533829588e+00
2.402698324533829588e+00
2.408323496200445835e+00
2.408323496200445835e+00
2.408323496200445835e+00
2.365759697256386129e+00
2.365759697256386129e+00
2.365759697256386129e+00
2.365759697256386129e+00
2.401573290200506694e+00
2.401573290200506694e+00
2.401573290200506694e+00
2.354134342478713116e+00
2.354134342478713116e+00
2.354134342478713116e+00
2.354134342478713116e+00
2.273881893368328022e+00
2.273881893368328022e+00
2.273881893368328022e+00
2.246881069368571904e+00
2.246881069368571904e+00
2.246881069368571904e+00
2.196817041535691573e+00
2.196817041535691573e+00
2.196817041535691573e+00
2.196817041535691573e+00
2.190066835535752432e+00
2.190066835535752432e+00
2.190066835535752432e+00
2.218942716757713818e+00
2.218942716757713818e+00
2.218942716757713818e+00
2.230943082979827352e+00
2.230943082979827352e+00
2.230943082979827352e+00
2.230943082979827352e+00
2.295632557145908859e+00
2.295632557145908859e+00
2.295632557145908859e+00
2.336883816034425188e+00
2.336883816034425188e+00
2.336883816034425188e+00
2.353759331034272151e+00
2.353759331034272151e+00
2.353759331034272151e+00
2.409448530533769173e+00
2.409448530533769173e+00
2.409448530533769173e+00
2.409448530533769173e+00
2.398385692922757606e+00
2.398385692922757606e+00
2.398385692922757606e+00
2.372134891811884305e+00
2.372134891811884305e+00
2.372134891811884305e+00
2.405323404644917229e+00
2.405323404644917229e+00
2.405323404644917229e+00
2.405323404644917229e+00
2.307820429090243319e+00
2.307820429090243319e+00
2.307820429090243319e+00
2.247068575090792386e+00
2.247068575090792386e+00
2.247068575090792386e+00
2.247068575090792386e+00
2.228880520035401602e+00
2.228880520035401602e+00
2.228880520035401602e+00
2.184629169591357556e+00
2.184629169591357556e+00
2.184629169591357556e+00
2.203942258980071234e+00
2.203942258980071234e+00
2.203942258980071234e+00
2.203942258980071234e+00
2.228130497146519229e+00
2.228130497146519229e+00
2.228130497146519229e+00
2.247818597979674760e+00
2.247818597979674760e+00
2.247818597979674760e+00
2.314758140812402942e+00
2.314758140812402942e+00
2.314758140812402942e+00
2.314758140812402942e+00
2.352071779534287366e+00
2.352071779534287366e+00
2.352071779534287366e+00
2.384885280922879769e+00
2.384885280922879769e+00
2.384885280922879769e+00
2.415073702200384531e+00
2.415073702200384531e+00
2.415073702200384531e+00
2.415073702200384531e+00
2.374947477645191540e+00
2.374947477645191540e+00
2.374947477645191540e+00
2.374572466200750576e+00
2.374572466200750576e+00
2.374572466200750576e+00
2.398760704367198571e+00
2.398760704367198571e+00
2.398760704367198571e+00
2.398760704367198571e+00
2.296945097201452679e+00
2.296945097201452679e+00
2.296945097201452679e+00
2.255506332590716312e+00
2.255506332590716312e+00
2.255506332590716312e+00
2.209192419202246516e+00
2.209192419202246516e+00
2.209192419202246516e+00
2.209192419202246516e+00
2.185754203924680450e+00
2.185754203924680450e+00
2.185754203924680450e+00
2.204504776146733125e+00
2.204504776146733125e+00
2.204504776146733125e+00
2.215942625202185212e+00
2.215942625202185212e+00
2.215942625202185212e+00
2.215942625202185212e+00
2.258318918424023991e+00
2.258318918424023991e+00
2.258318918424023991e+00
2.325445966978973100e+00
2.325445966978973100e+00
2.325445966978973100e+00
2.351696768089846401e+00
2.351696768089846401e+00
2.351696768089846401e+00
2.351696768089846401e+00
2.393323038422803695e+00
2.393323038422803695e+00
2.393323038422803695e+00
2.412823633533738299e+00
2.412823633533738299e+00
2.412823633533738299e+00
2.412823633533738299e+00
2.369884823145237629e+00
2.369884823145237629e+00
2.369884823145237629e+00
2.392948026978362286e+00
2.392948026978362286e+00
2.392948026978362286e+00
2.368009765923032361e+00
2.368009765923032361e+00
2.368009765923032361e+00
2.368009765923032361e+00
2.284569719534897736e+00
2.284569719534897736e+00
2.284569719534897736e+00
2.263194067201757864e+00
2.263194067201757864e+00
2.263194067201757864e+00
2.208629902035584625e+00
2.208629902035584625e+00
2.208629902035584625e+00
2.208629902035584625e+00
2.179941526535844165e+00
2.179941526535844165e+00
2.179941526535844165e+00
2.203192236091189304e+00
2.203192236091189304e+00
2.203192236091189304e+00
2.219317728202154782e+00
2.219317728202154782e+00
2.219317728202154782e+00
2.219317728202154782e+00
2.274256904812768987e+00
2.274256904812768987e+00
2.274256904812768987e+00
2.330696127201147494e+00
2.330696127201147494e+00
2.330696127201147494e+00
2.348134159367656792e+00
2.348134159367656792e+00
2.348134159367656792e+00
2.348134159367656792e+00
2.401385784478286212e+00
2.401385784478286212e+00
2.401385784478286212e+00
2.404385876033814373e+00
2.404385876033814373e+00
2.404385876033814373e+00
2.369697317423017147e+00
2.369697317423017147e+00
2.369697317423017147e+00
2.369697317423017147e+00
2.405885921811578676e+00
2.405885921811578676e+00
2.405885921811578676e+00
2.336883816034425188e+00
2.336883816034425188e+00
2.336883816034425188e+00
2.263569078646198829e+00
2.263569078646198829e+00
2.263569078646198829e+00
2.263569078646198829e+00
2.241068391979735619e+00
2.241068391979735619e+00
2.241068391979735619e+00
2.203192236091189304e+00
2.203192236091189304e+00
2.203192236091189304e+00
2.216880153813287624e+00
2.216880153813287624e+00
2.216880153813287624e+00
2.216880153813287624e+00
2.251381206701864812e+00
2.251381206701864812e+00
2.251381206701864812e+00
2.259631458479567812e+00
2.259631458479567812e+00
2.259631458479567812e+00
2.302382763145847999e+00
2.302382763145847999e+00
2.302382763145847999e+00
2.302382763145847999e+00
2.341758964812158617e+00
2.341758964812158617e+00
2.341758964812158617e+00
2.358446974089785542e+00
2.358446974089785542e+00
2.358446974089785542e+00
2.401198278756065729e+00
2.401198278756065729e+00
2.401198278756065729e+00
2.401198278756065729e+00
2.379822626422925413e+00
2.379822626422925413e+00
2.379822626422925413e+00
2.362384594256416559e+00
2.362384594256416559e+00
2.362384594256416559e+00
2.391447981200597983e+00
2.391447981200597983e+00
2.391447981200597983e+00
2.391447981200597983e+00
2.293569994201483109e+00
2.293569994201483109e+00
2.293569994201483109e+00
2.242943449201941331e+00
2.242943449201941331e+00
2.242943449201941331e+00
2.211629993591112786e+00
2.211629993591112786e+00
2.211629993591112786e+00
2.211629993591112786e+00
2.176566423535874595e+00
2.176566423535874595e+00
2.176566423535874595e+00
2.213317545091097571e+00
2.213317545091097571e+00
2.213317545091097571e+00
2.233380657368694511e+00
2.233380657368694511e+00
2.233380657368694511e+00
2.233380657368694511e+00
2.258693929868464956e+00
2.258693929868464956e+00
2.258693929868464956e+00
2.317008209479048730e+00
2.317008209479048730e+00
2.317008209479048730e+00
2.343259010589922919e+00
2.343259010589922919e+00
2.343259010589922919e+00
2.343259010589922919e+00
2.387322855311746483e+00
2.387322855311746483e+00
2.387322855311746483e+00
2.417886288033692654e+00
2.417886288033692654e+00
2.417886288033692654e+00
2.370072328867458111e+00
2.370072328867458111e+00
2.370072328867458111e+00
2.370072328867458111e+00
2.384135258033997840e+00
2.384135258033997840e+00
2.384135258033997840e+00
2.378697592089602519e+00
2.378697592089602519e+00
2.378697592089602519e+00
2.288319833979308715e+00
2.288319833979308715e+00
2.288319833979308715e+00
2.288319833979308715e+00
2.261131504257332114e+00
2.261131504257332114e+00
2.261131504257332114e+00
2.217255165257729033e+00
2.217255165257729033e+00
2.217255165257729033e+00
2.217255165257729033e+00
2.191379375591296252e+00
2.191379375591296252e+00
2.191379375591296252e+00
2.223067842646564873e+00
2.223067842646564873e+00
2.223067842646564873e+00
2.241443403424177028e+00
2.241443403424177028e+00
2.241443403424177028e+00
2.241443403424177028e+00
2.276319467757194737e+00
2.276319467757194737e+00
2.276319467757194737e+00
2.325820978423414065e+00
2.325820978423414065e+00
2.325820978423414065e+00
2.343821527756584366e+00
2.343821527756584366e+00
2.343821527756584366e+00
2.343821527756584366e+00
2.389197912533951751e+00
2.389197912533951751e+00
2.389197912533951751e+00
2.397823175756096159e+00
2.397823175756096159e+00
2.397823175756096159e+00
2.353196813867610704e+00
2.353196813867610704e+00
2.353196813867610704e+00
2.353196813867610704e+00
2.386197820978423145e+00
2.386197820978423145e+00
2.386197820978423145e+00
2.350384228034303025e+00
2.350384228034303025e+00
2.350384228034303025e+00
2.282882168034912951e+00
2.282882168034912951e+00
2.282882168034912951e+00
2.282882168034912951e+00
2.263381572923978347e+00
2.263381572923978347e+00
2.263381572923978347e+00
2.212942533646656607e+00
2.212942533646656607e+00
2.212942533646656607e+00
2.212192510757774677e+00
2.212192510757774677e+00
2.212192510757774677e+00
2.212192510757774677e+00
2.243693472090823260e+00
2.243693472090823260e+00
2.243693472090823260e+00
2.251006195257423848e+00
2.251006195257423848e+00
2.251006195257423848e+00
2.297320108645893644e+00
2.297320108645893644e+00
2.297320108645893644e+00
2.297320108645893644e+00
2.348696676534318240e+00
2.348696676534318240e+00
2.348696676534318240e+00
2.363509628589739453e+00
2.363509628589739453e+00
2.363509628589739453e+00
2.397823175756096159e+00
2.397823175756096159e+00
2.397823175756096159e+00
2.397823175756096159e+00
2.384322763756218322e+00
2.384322763756218322e+00
2.384322763756218322e+00
2.345321573534348669e+00
2.345321573534348669e+00
2.345321573534348669e+00
2.383947752311777357e+00
2.383947752311777357e+00
2.383947752311777357e+00
2.383947752311777357e+00
2.309507980590228104e+00
2.309507980590228104e+00
2.309507980590228104e+00
2.236755760368663637e+00
2.236755760368663637e+00
2.236755760368663637e+00
2.236755760368663637e+00
2.200754661702322146e+00
2.200754661702322146e+00
2.200754661702322146e+00
2.158753379924924776e+00
2.158753379924924776e+00
2.158753379924924776e+00
2.183129123813593253e+00
2.183129123813593253e+00
2.183129123813593253e+00
2.183129123813593253e+00
2.241068391979735619e+00
2.241068391979735619e+00
2.241068391979735619e+00
2.262444044312875935e+00
2.262444044312875935e+00
2.262444044312875935e+00
2.317945738090151586e+00
2.317945738090151586e+00
2.317945738090151586e+00
2.317945738090151586e+00
2.348134159367656792e+00
2.348134159367656792e+00
2.348134159367656792e+00
2.380197637867366822e+00
2.380197637867366822e+00
2.380197637867366822e+00
2.427824091311380439e+00
2.427824091311380439e+00
2.427824091311380439e+00
2.427824091311380439e+00
2.406073427533799602e+00
2.406073427533799602e+00
2.406073427533799602e+00
2.391260475478377501e+00
2.391260475478377501e+00
2.391260475478377501e+00
2.395573107089449927e+00
2.395573107089449927e+00
2.395573107089449927e+00
2.395573107089449927e+00
2.294695028534806447e+00
2.294695028534806447e+00
2.294695028534806447e+00
2.253631275368511044e+00
2.253631275368511044e+00
2.253631275368511044e+00
2.213880062257759462e+00
2.213880062257759462e+00
2.213880062257759462e+00
2.213880062257759462e+00
2.175628894924771739e+00
2.175628894924771739e+00
2.175628894924771739e+00
2.200004638813440216e+00
2.200004638813440216e+00
2.200004638813440216e+00
2.223630359813226764e+00
2.223630359813226764e+00
2.223630359813226764e+00
2.223630359813226764e+00
2.270506790368358452e+00
2.270506790368358452e+00
2.270506790368358452e+00
2.328446058534500818e+00
2.328446058534500818e+00
2.328446058534500818e+00
2.338571367534409973e+00
2.338571367534409973e+00
2.338571367534409973e+00
2.338571367534409973e+00
2.374947477645191540e+00
2.374947477645191540e+00
2.374947477645191540e+00
2.404760887478255782e+00
2.404760887478255782e+00
2.404760887478255782e+00
2.367259743034150432e+00
2.367259743034150432e+00
2.367259743034150432e+00
2.367259743034150432e+00
2.379635120700704931e+00
2.379635120700704931e+00
2.379635120700704931e+00
2.359384502700888397e+00
2.359384502700888397e+00
2.359384502700888397e+00
2.275194433423871843e+00
2.275194433423871843e+00
2.275194433423871843e+00
2.275194433423871843e+00
2.243880977813043742e+00
2.243880977813043742e+00
2.243880977813043742e+00
2.180691549424726094e+00
2.180691549424726094e+00
2.180691549424726094e+00
2.180691549424726094e+00
2.179379009369182274e+00
2.179379009369182274e+00
2.179379009369182274e+00
2.227380474257637299e+00
2.227380474257637299e+00
2.227380474257637299e+00
2.240318369090853690e+00
2.240318369090853690e+00
2.240318369090853690e+00
2.240318369090853690e+00
2.278194524979400004e+00
2.278194524979400004e+00
2.278194524979400004e+00
2.337446333201086635e+00
2.337446333201086635e+00
2.337446333201086635e+00
2.366134708700827094e+00
2.366134708700827094e+00
2.366134708700827094e+00
2.430449171422468080e+00
2.430449171422468080e+00
2.430449171422468080e+00
2.430449171422468080e+00
2.426886562700277583e+00
2.426886562700277583e+00
2.426886562700277583e+00
2.370447340311899076e+00
2.370447340311899076e+00
2.370447340311899076e+00
2.370447340311899076e+00
2.402323313089388623e+00
2.402323313089388623e+00
2.402323313089388623e+00
2.340071413312173831e+00
2.340071413312173831e+00
2.340071413312173831e+00
2.274444410534989469e+00
2.274444410534989469e+00
2.274444410534989469e+00
2.274444410534989469e+00
2.246881069368571904e+00
2.246881069368571904e+00
2.246881069368571904e+00
2.191754387035737217e+00
2.191754387035737217e+00
2.191754387035737217e+00
2.188941801202429094e+00
2.188941801202429094e+00
2.188941801202429094e+00
2.188941801202429094e+00
2.223630359813226764e+00
2.223630359813226764e+00
2.223630359813226764e+00
2.239943357646412725e+00
2.239943357646412725e+00
2.239943357646412725e+00
2.298070131534776017e+00
2.298070131534776017e+00
2.298070131534776017e+00
2.298070131534776017e+00
2.346071596423230599e+00
2.346071596423230599e+00
2.346071596423230599e+00
2.364447157200842309e+00
2.364447157200842309e+00
2.364447157200842309e+00
2.407385967589342979e+00
2.407385967589342979e+00
2.407385967589342979e+00
2.407385967589342979e+00
2.384697775200659287e+00
2.384697775200659287e+00
2.384697775200659287e+00
2.368197271645252844e+00
2.368197271645252844e+00
2.368197271645252844e+00
2.389947935422834124e+00
2.389947935422834124e+00
2.389947935422834124e+00
2.389947935422834124e+00
2.296195074312570750e+00
2.296195074312570750e+00
2.251193700979644330e+00
2.251193700979644330e+00
2.232068117313150690e+00
2.232068117313150690e+00
2.184441663869136629e+00
2.184441663869136629e+00
2.203004730368968822e+00
2.203004730368968822e+00
2.233193151646474028e+00
2.233193151646474028e+00
2.260943998535111632e+00
2.260943998535111632e+00
2.319258278145695407e+00
2.319258278145695407e+00
2.319258278145695407e+00
2.338758873256630455e+00
2.338758873256630455e+00
2.373259926145207199e+00
2.373259926145207199e+00
2.416761253700369316e+00
2.416761253700369316e+00
2.387322855311746483e+00
2.387322855311746483e+00
2.391822992645039392e+00
2.391822992645039392e+00
2.392573015533921321e+00
2.392573015533921321e+00
2.285694753868221074e+00
2.285694753868221074e+00
2.252131229590746742e+00
2.252131229590746742e+00
2.252131229590746742e+00
2.208629902035584625e+00
2.208629902035584625e+00
2.175441389202551257e+00
2.175441389202551257e+00
2.205067293313394572e+00
2.205067293313394572e+00
2.216505142368846659e+00
2.216505142368846659e+00
2.254568803979613900e+00
2.254568803979613900e+00
2.316258186590166801e+00
2.316258186590166801e+00
2.337258827478866152e+00
2.337258827478866152e+00
2.401010773033844803e+00
2.401010773033844803e+00
2.401010773033844803e+00
2.421448896755882263e+00
2.421448896755882263e+00
2.371009857478560967e+00
2.371009857478560967e+00
2.392948026978362286e+00
2.392948026978362286e+00
2.365759697256386129e+00
2.365759697256386129e+00
2.284194708090456771e+00
2.284194708090456771e+00
2.257381389812921579e+00
2.257381389812921579e+00
2.207317361980041248e+00
2.207317361980041248e+00
2.188004272591326682e+00
2.188004272591326682e+00
2.225692922757652514e+00
2.225692922757652514e+00
2.225692922757652514e+00
2.238068300424207457e+00
2.238068300424207457e+00
2.278569536423841413e+00
2.278569536423841413e+00
2.323008392590105942e+00
2.323008392590105942e+00
2.337446333201086635e+00
2.337446333201086635e+00
2.394260567033906106e+00
2.394260567033906106e+00
2.396135624256111374e+00
2.396135624256111374e+00
2.359384502700888397e+00
2.359384502700888397e+00
2.359384502700888397e+00
2.407948484756004870e+00
2.407948484756004870e+00
2.329946104312265120e+00
2.329946104312265120e+00
2.261881527146214044e+00
2.261881527146214044e+00
2.241068391979735619e+00
2.241068391979735619e+00
2.201129673146763555e+00
2.201129673146763555e+00
2.213880062257759462e+00
2.213880062257759462e+00
2.248381115146336207e+00
2.248381115146336207e+00
2.256818872646260132e+00
2.256818872646260132e+00
2.306320383312479017e+00
2.306320383312479017e+00
2.306320383312479017e+00
2.336508804589983779e+00
2.336508804589983779e+00
2.356384411145359792e+00
2.356384411145359792e+00
2.404573381756035300e+00
2.404573381756035300e+00
2.372134891811884305e+00
2.372134891811884305e+00
2.359572008423108880e+00
2.359572008423108880e+00
2.381697683645130681e+00
2.381697683645130681e+00
2.302382763145847999e+00
2.302382763145847999e+00
2.269944273201696561e+00
2.269944273201696561e+00
2.269944273201696561e+00
2.241255897701956545e+00
2.241255897701956545e+00
2.201317178868984037e+00
2.201317178868984037e+00
2.216692648091067142e+00
2.216692648091067142e+00
2.230380565813165905e+00
2.230380565813165905e+00
2.264694112979522167e+00
2.264694112979522167e+00
2.326383495590075512e+00
2.326383495590075512e+00
2.349821710867641578e+00
2.349821710867641578e+00
2.382635212256233537e+00
2.382635212256233537e+00
2.416573747978148834e+00
2.416573747978148834e+00
2.377760063478499664e+00
2.377760063478499664e+00
2.390135441145054607e+00
2.390135441145054607e+00
2.390135441145054607e+00
2.370822351756340485e+00
2.370822351756340485e+00
2.278194524979400004e+00
2.278194524979400004e+00
2.255318826868495830e+00
2.255318826868495830e+00
2.206379833368938392e+00
2.206379833368938392e+00
2.181066560869167059e+00
2.181066560869167059e+00
2.207692373424482213e+00
2.207692373424482213e+00
2.225130405590991067e+00
2.225130405590991067e+00
2.225130405590991067e+00
2.283632190923795324e+00
2.283632190923795324e+00
2.338946378978850937e+00
2.338946378978850937e+00
2.345884090701010116e+00
2.345884090701010116e+00
2.395010589922788480e+00
2.395010589922788480e+00
2.402885830256050514e+00
2.402885830256050514e+00
2.363322122867518971e+00
2.363322122867518971e+00
2.395198095645008962e+00
2.395198095645008962e+00
2.340446424756614796e+00
2.340446424756614796e+00
2.258693929868464956e+00
2.258693929868464956e+00
2.258693929868464956e+00
2.229068025757622085e+00
2.229068025757622085e+00
2.182004089480269915e+00
2.182004089480269915e+00
2.189316812646870059e+00
2.189316812646870059e+00
2.227192968535416817e+00
2.227192968535416817e+00
2.238068300424207457e+00
2.238068300424207457e+00
2.290007385479293500e+00
2.290007385479293500e+00
2.331821161534470832e+00
2.331821161534470832e+00
2.353196813867610704e+00
2.353196813867610704e+00
2.353196813867610704e+00
2.408511001922666317e+00
2.408511001922666317e+00
2.404010864589373409e+00
2.404010864589373409e+00
2.390510452589495571e+00
2.390510452589495571e+00
2.419573839533677440e+00
2.419573839533677440e+00
2.322445875423444495e+00
2.322445875423444495e+00
2.256631366924039650e+00
2.256631366924039650e+00
2.233380657368694511e+00
2.233380657368694511e+00
2.185191686758019003e+00
2.185191686758019003e+00
2.197192052980132537e+00
2.197192052980132537e+00
2.229443037202063049e+00
2.229443037202063049e+00
2.229443037202063049e+00
2.249318643757439062e+00
2.249318643757439062e+00
2.314008117923521013e+00
2.314008117923521013e+00
2.345321573534348669e+00
2.345321573534348669e+00
2.364634662923062791e+00
2.364634662923062791e+00
2.404573381756035300e+00
2.404573381756035300e+00
2.369322305978576182e+00
2.369322305978576182e+00
2.371759880367442896e+00
2.371759880367442896e+00
2.393323038422803695e+00
2.393323038422803695e+00
2.304257820368053267e+00
2.304257820368053267e+00
2.304257820368053267e+00
2.261694021423993561e+00
2.261694021423993561e+00
2.228130497146519229e+00
2.228130497146519229e+00
2.192879421369060555e+00
2.192879421369060555e+00
2.203004730368968822e+00
2.203004730368968822e+00
2.215942625202185212e+00
2.215942625202185212e+00
2.266944181646168399e+00
2.266944181646168399e+00
2.329383587145603673e+00
2.329383587145603673e+00
2.335946287423322332e+00
2.335946287423322332e+00
2.335946287423322332e+00
2.377947569200720146e+00
2.377947569200720146e+00
2.408135990478225352e+00
2.408135990478225352e+00
2.376635029145176325e+00
2.376635029145176325e+00
2.401948301644947659e+00
2.401948301644947659e+00
2.365384685811944721e+00
2.365384685811944721e+00
2.275756950590533290e+00
2.275756950590533290e+00
2.249131138035218136e+00
2.249131138035218136e+00
2.198879604480116878e+00
2.198879604480116878e+00
2.198879604480116878e+00
2.180879055146946577e+00
2.180879055146946577e+00
2.213505050813318054e+00
2.213505050813318054e+00
2.233193151646474028e+00
2.233193151646474028e+00
2.283069673757133433e+00
2.283069673757133433e+00
2.325258461256752618e+00
2.325258461256752618e+00
2.340071413312173831e+00
2.340071413312173831e+00
2.385635303811762142e+00
2.385635303811762142e+00
2.383947752311777357e+00
2.383947752311777357e+00
2.383947752311777357e+00
2.346259102145451525e+00
2.346259102145451525e+00
2.381697683645130681e+00
2.381697683645130681e+00
2.312883083590197675e+00
2.312883083590197675e+00
2.251568712424085295e+00
2.251568712424085295e+00
2.246318552201910457e+00
2.246318552201910457e+00
2.196442030091250608e+00
2.196442030091250608e+00
2.213505050813318054e+00
2.213505050813318054e+00
2.236755760368663637e+00
2.236755760368663637e+00
2.255881344035157721e+00
2.255881344035157721e+00
2.255881344035157721e+00
2.304632831812494231e+00
2.304632831812494231e+00
2.331071138645588459e+00
2.331071138645588459e+00
2.343071504867702437e+00
2.343071504867702437e+00
2.386010315256203107e+00
2.386010315256203107e+00
2.353946836756492633e+00
2.353946836756492633e+00
2.338196356089969008e+00
2.338196356089969008e+00
2.370822351756340485e+00
2.370822351756340485e+00
2.303320291756950855e+00
2.303320291756950855e+00
2.283069673757133433e+00
2.283069673757133433e+00
2.283069673757133433e+00
2.233005645924253102e+00
2.233005645924253102e+00
2.152565691091647082e+00
2.152565691091647082e+00
2.114127018036439321e+00
2.114127018036439321e+00
2.121252235480818982e+00
2.121252235480818982e+00
2.168503677480392078e+00
2.168503677480392078e+00
2.263194067201757864e+00
2.263194067201757864e+00
2.317383220923490139e+00
2.317383220923490139e+00
2.382635212256233537e+00
2.382635212256233537e+00
2.382635212256233537e+00
2.444699606311227846e+00
2.444699606311227846e+00
2.456137455366679934e+00
2.456137455366679934e+00
2.483325785088656090e+00
2.483325785088656090e+00
2.443949583422345917e+00
2.443949583422345917e+00
2.293194982757042144e+00
2.293194982757042144e+00
2.222880336924344391e+00
2.222880336924344391e+00
2.170191228980376863e+00
2.170191228980376863e+00
2.147690542313913653e+00
2.147690542313913653e+00
2.166253608813745402e+00
2.166253608813745402e+00
2.166253608813745402e+00
2.176753929258095077e+00
2.176753929258095077e+00
2.236943266090884119e+00
2.236943266090884119e+00
2.304820337534714714e+00
2.304820337534714714e+00
2.302195257423627517e+00
2.302195257423627517e+00
2.333508713034455617e+00
2.333508713034455617e+00
2.289819879757073018e+00
2.289819879757073018e+00
2.234130680257575996e+00
2.234130680257575996e+00
2.279132053590502860e+00
2.279132053590502860e+00
2.237318277535325084e+00
2.237318277535325084e+00
2.237318277535325084e+00
2.175066377758110736e+00
2.175066377758110736e+00
2.178066469313638454e+00
2.178066469313638454e+00
2.183879146702475182e+00
2.183879146702475182e+00
2.272006836146122755e+00
2.272006836146122755e+00
2.312883083590197675e+00
2.312883083590197675e+00
2.353571825312051669e+00
2.353571825312051669e+00
2.419573839533677440e+00
2.419573839533677440e+00
2.434761803033539618e+00
2.434761803033539618e+00
2.434761803033539618e+00
2.422198919644764192e+00
2.422198919644764192e+00
2.449574755088961275e+00
2.449574755088961275e+00
2.429886654255806189e+00
2.429886654255806189e+00
2.358634479812006024e+00
2.358634479812006024e+00
2.371947386089663379e+00
2.371947386089663379e+00
2.318508255256813033e+00
2.318508255256813033e+00
2.257006378368480615e+00
2.257006378368480615e+00
2.224755394146549659e+00
2.224755394146549659e+00
2.224755394146549659e+00
1.989810724204229997e+00
1.989810724204229997e+00
1.857056672872096970e+00
1.857056672872096970e+00
1.854056581316568586e+00
1.854056581316568586e+00
1.866619464705344011e+00
1.866619464705344011e+00
1.941809259315775193e+00
1.941809259315775193e+00
2.027686880092776089e+00
2.027686880092776089e+00
2.158940885647145258e+00
2.158940885647145258e+00
2.359196996978667915e+00
2.359196996978667915e+00
2.359196996978667915e+00
2.504138920255134515e+00
2.504138920255134515e+00
2.673081575975829516e+00
2.673081575975829516e+00
2.799835444196905332e+00
2.799835444196905332e+00
2.701394940031129011e+00
2.701394940031129011e+00
2.648143314920499147e+00
2.648143314920499147e+00
2.558515579699087716e+00
2.558515579699087716e+00
2.423323953978087530e+00
2.423323953978087530e+00
2.395573107089449927e+00
2.395573107089449927e+00
2.395573107089449927e+00
2.341008941923276243e+00
2.341008941923276243e+00
2.347384136478774419e+00
2.347384136478774419e+00
2.390885464033936536e+00
2.390885464033936536e+00
2.374759971922971058e+00
2.374759971922971058e+00
2.391822992645039392e+00
2.391822992645039392e+00
2.390135441145054607e+00
2.390135441145054607e+00
2.325633472701193583e+00
2.325633472701193583e+00
2.331258644367808941e+00
2.331258644367808941e+00
2.331258644367808941e+00
2.310633014923550999e+00
2.310633014923550999e+00
2.222317819757682944e+00
2.222317819757682944e+00
2.211629993591112786e+00
2.211629993591112786e+00
2.170941251869258792e+00
2.170941251869258792e+00
2.126314889980773337e+00
2.126314889980773337e+00
2.166816125980407293e+00
2.166816125980407293e+00
2.174878872035889810e+00
2.174878872035889810e+00
2.235818231757560781e+00
2.235818231757560781e+00
2.235818231757560781e+00
2.279132053590502860e+00
2.279132053590502860e+00
2.319820795312356854e+00
2.319820795312356854e+00
2.415448713644825496e+00
2.415448713644825496e+00
2.463825189977721486e+00
2.463825189977721486e+00
2.445074617755668811e+00
2.445074617755668811e+00
2.477138096255378841e+00
2.477138096255378841e+00
2.356384411145359792e+00
2.356384411145359792e+00
2.129502487258521981e+00
2.129502487258521981e+00
1.992248298593096711e+00
1.992248298593096711e+00
1.992248298593096711e+00
1.895120334482863989e+00
1.895120334482863989e+00
1.953997131260109432e+00
1.953997131260109432e+00
2.058812829981383707e+00
2.058812829981383707e+00
2.107189306314279698e+00
2.107189306314279698e+00
2.176378917813653668e+00
2.176378917813653668e+00
2.281757133701590057e+00
2.281757133701590057e+00
2.370634846034120002e+00
2.370634846034120002e+00
2.461012604144413807e+00
2.461012604144413807e+00
2.461012604144413807e+00
2.547077730643635629e+00
2.547077730643635629e+00
2.594516678365428763e+00
2.594516678365428763e+00
2.593016632587664461e+00
2.593016632587664461e+00
2.353009308145390222e+00
2.353009308145390222e+00
2.163441022980437278e+00
2.163441022980437278e+00
2.184629169591357556e+00
2.184629169591357556e+00
2.284944730979339145e+00
2.284944730979339145e+00
2.353571825312051669e+00
2.353571825312051669e+00
2.353571825312051669e+00
2.355259376812036454e+00
2.355259376812036454e+00
2.356759422589800756e+00
2.356759422589800756e+00
2.320383312479018745e+00
2.320383312479018745e+00
2.236005737479781263e+00
2.236005737479781263e+00
2.265069124423963132e+00
2.265069124423963132e+00
2.344571550645466296e+00
2.344571550645466296e+00
2.333883724478896582e+00
2.333883724478896582e+00
2.373634937589648164e+00
2.373634937589648164e+00
2.356009399700918827e+00
2.356009399700918827e+00
2.356009399700918827e+00
2.234693197424237443e+00
2.234693197424237443e+00
2.202817224646748340e+00
2.202817224646748340e+00
2.144877956480605530e+00
2.144877956480605530e+00
2.122002258369701355e+00
2.122002258369701355e+00
2.185754203924680450e+00
2.185754203924680450e+00
2.214255073702200427e+00
2.214255073702200427e+00
2.272944364757225166e+00
2.272944364757225166e+00
2.293194982757042144e+00
2.293194982757042144e+00
2.293194982757042144e+00
2.297507614368114126e+00
2.297507614368114126e+00
2.382072695089572090e+00
2.382072695089572090e+00
2.402885830256050514e+00
2.402885830256050514e+00
2.334446241645558029e+00
2.334446241645558029e+00
2.425011505478072316e+00
2.425011505478072316e+00
2.431386700033570492e+00
2.431386700033570492e+00
2.362947111423078006e+00
2.362947111423078006e+00
2.413198644978179264e+00
2.413198644978179264e+00
2.413198644978179264e+00
2.457074983977782345e+00
2.457074983977782345e+00
2.458950041199987613e+00
2.458950041199987613e+00
2.392385509811700839e+00
2.392385509811700839e+00
2.307257911923581428e+00
2.307257911923581428e+00
2.279694570757164307e+00
2.279694570757164307e+00
2.288507339701529197e+00
2.288507339701529197e+00
2.218005188146610962e+00
2.218005188146610962e+00
2.188004272591326682e+00
2.188004272591326682e+00
2.188004272591326682e+00
2.182004089480269915e+00
2.182004089480269915e+00
2.207317361980041248e+00
2.207317361980041248e+00
2.308007934812463802e+00
2.308007934812463802e+00
2.310445509201330516e+00
2.310445509201330516e+00
2.292069948423719250e+00
2.292069948423719250e+00
2.263381572923978347e+00
2.263381572923978347e+00
2.198129581591235393e+00
2.198129581591235393e+00
2.167941160313730187e+00
2.167941160313730187e+00
2.277819513534959039e+00
2.277819513534959039e+00
2.277819513534959039e+00
2.380760155034028269e+00
2.380760155034028269e+00
2.441324503311258276e+00
2.441324503311258276e+00
2.433261757255775315e+00
2.433261757255775315e+00
2.418261299478133619e+00
2.418261299478133619e+00
2.455574938200018487e+00
2.455574938200018487e+00
2.371384868923001932e+00
2.371384868923001932e+00
2.261131504257332114e+00
2.261131504257332114e+00
2.200567155980101663e+00
2.200567155980101663e+00
2.200567155980101663e+00
2.020561662648396428e+00
2.020561662648396428e+00
1.906933194982757040e+00
1.906933194982757040e+00
1.938246650593584919e+00
1.938246650593584919e+00
2.052437635425885976e+00
2.052437635425885976e+00
2.161753471480452937e+00
2.161753471480452937e+00
2.173378826258125951e+00
2.173378826258125951e+00
2.170378734702597345e+00
2.170378734702597345e+00
2.328633564256721744e+00
2.328633564256721744e+00
2.328633564256721744e+00
2.433074251533554833e+00
2.433074251533554833e+00
2.499826288644062977e+00
2.499826288644062977e+00
2.562640705587938772e+00
2.562640705587938772e+00
2.564890774254585448e+00
2.564890774254585448e+00
2.632017822809534113e+00
2.632017822809534113e+00
2.678894253364665801e+00
2.678894253364665801e+00
2.506201483199560265e+00
2.506201483199560265e+00
2.267319193090609808e+00
2.267319193090609808e+00
2.109814386425366894e+00
2.109814386425366894e+00
2.109814386425366894e+00
2.103814203314310571e+00
2.103814203314310571e+00
2.120877224036378017e+00
2.120877224036378017e+00
2.086751182592242237e+00
2.086751182592242237e+00
2.150878139591662741e+00
2.150878139591662741e+00
2.272381847590563719e+00
2.272381847590563719e+00
2.180504043702505612e+00
2.180504043702505612e+00
2.129689992980742907e+00
2.129689992980742907e+00
2.218380199591051927e+00
2.218380199591051927e+00
2.218380199591051927e+00
2.220442762535478121e+00
2.220442762535478121e+00
2.278007019257179522e+00
2.278007019257179522e+00
2.288507339701529197e+00
2.288507339701529197e+00
2.341571459089938134e+00
2.341571459089938134e+00
2.456137455366679934e+00
2.456137455366679934e+00
2.461762627033295736e+00
2.461762627033295736e+00
2.330883632923367976e+00
2.330883632923367976e+00
2.331446150090029423e+00
2.331446150090029423e+00
2.364447157200842309e+00
2.364447157200842309e+00
2.364447157200842309e+00
2.333696218756676100e+00
2.333696218756676100e+00
2.236943266090884119e+00
2.236943266090884119e+00
2.275381939146092325e+00
2.275381939146092325e+00
2.440574480422376347e+00
2.440574480422376347e+00
2.544452650532547988e+00
2.544452650532547988e+00
2.582703817865535711e+00
2.582703817865535711e+00
2.547827753532517558e+00
2.547827753532517558e+00
2.295070039979247412e+00
2.295070039979247412e+00
2.295070039979247412e+00
2.177503952146977007e+00
2.177503952146977007e+00
2.030499465926084213e+00
2.030499465926084213e+00
1.889495162816248186e+00
1.889495162816248186e+00
1.914620929593798593e+00
1.914620929593798593e+00
2.023374248481704107e+00
2.023374248481704107e+00
2.100251594592120075e+00
2.100251594592120075e+00
2.167003631702627775e+00
2.167003631702627775e+00
2.188566789757988129e+00
2.188566789757988129e+00
2.232818140202032620e+00
2.232818140202032620e+00
2.232818140202032620e+00
2.296195074312570750e+00
2.296195074312570750e+00
2.357134434034241721e+00
2.357134434034241721e+00
2.512764183477279367e+00
2.512764183477279367e+00
2.593579149754326352e+00
2.593579149754326352e+00
2.517076815088350905e+00
2.517076815088350905e+00
2.458200018311105683e+00
2.458200018311105683e+00
2.266756675923947917e+00
2.266756675923947917e+00
2.023186742759483625e+00
2.023186742759483625e+00
2.023186742759483625e+00
2.039499740592669585e+00
2.039499740592669585e+00
2.142065370647297406e+00
2.142065370647297406e+00
2.218567705313272853e+00
2.218567705313272853e+00
2.338008850367748082e+00
2.338008850367748082e+00
2.338946378978850937e+00
2.338946378978850937e+00
2.333883724478896582e+00
2.333883724478896582e+00
2.132315073091830104e+00
2.132315073091830104e+00
2.037999694814905283e+00
2.037999694814905283e+00
2.037999694814905283e+00
2.216317636646626177e+00
2.216317636646626177e+00
2.330133610034486047e+00
2.330133610034486047e+00
2.270319284646137969e+00
2.270319284646137969e+00
2.157628345591601438e+00
2.157628345591601438e+00
2.042312326425977265e+00
2.042312326425977265e+00
1.998248481704153479e+00
1.998248481704153479e+00
2.026561845759453195e+00
2.026561845759453195e+00
2.072125736259041062e+00
2.072125736259041062e+00
2.072125736259041062e+00
2.179754020813623683e+00
2.179754020813623683e+00
2.248568620868556689e+00
2.248568620868556689e+00
2.261131504257332114e+00
2.261131504257332114e+00
2.360134525589770327e+00
2.360134525589770327e+00
2.381135166478469234e+00
2.381135166478469234e+00
2.375697500534073914e+00
2.375697500534073914e+00
2.503388897366253030e+00
2.503388897366253030e+00
2.483888302255317981e+00
2.483888302255317981e+00
2.483888302255317981e+00
2.412636127811517817e+00
2.412636127811517817e+00
2.385447798089541660e+00
2.385447798089541660e+00
2.307445417645802355e+00
2.307445417645802355e+00
2.277632007812738557e+00
2.277632007812738557e+00
2.472825464644306859e+00
2.472825464644306859e+00
2.585703909421063873e+00
2.585703909421063873e+00
2.416198736533707869e+00
2.416198736533707869e+00
2.132315073091830104e+00
2.132315073091830104e+00
1.936559099093600356e+00
1.936559099093600356e+00
1.936559099093600356e+00
1.973872737815485001e+00
1.973872737815485001e+00
2.075125827814569668e+00
2.075125827814569668e+00
2.114877040925321250e+00
2.114877040925321250e+00
2.130815027314065802e+00
2.130815027314065802e+00
2.028436902981658463e+00
2.028436902981658463e+00
2.044937406537064906e+00
2.044937406537064906e+00
2.045874935148167761e+00
2.045874935148167761e+00
1.973872737815485001e+00
1.973872737815485001e+00
2.207692373424482213e+00
2.207692373424482213e+00
2.207692373424482213e+00
2.508264046143986459e+00
2.508264046143986459e+00
2.566390820032349751e+00
2.566390820032349751e+00
2.687519516586810209e+00
2.687519516586810209e+00
2.587203955198828176e+00
2.587203955198828176e+00
2.468887844477675397e+00
2.468887844477675397e+00
2.464575212866603859e+00
2.464575212866603859e+00
2.386947843867305519e+00
2.386947843867305519e+00
2.259443952757347329e+00
2.259443952757347329e+00
2.167753654591509704e+00
2.167753654591509704e+00
2.167753654591509704e+00
2.024124271370586037e+00
2.024124271370586037e+00
2.001248573259681862e+00
2.001248573259681862e+00
1.849556443983275900e+00
1.849556443983275900e+00
1.751865962706381508e+00
1.751865962706381508e+00
1.812430310983611736e+00
1.812430310983611736e+00
1.803992553483687811e+00
1.803992553483687811e+00
1.836806054872280214e+00
1.836806054872280214e+00
2.040999786370433888e+00
2.040999786370433888e+00
2.040999786370433888e+00
2.330133610034486047e+00
2.330133610034486047e+00
2.698207342753379923e+00
2.698207342753379923e+00
2.799835444196905332e+00
2.799835444196905332e+00
2.560953154087954431e+00
2.560953154087954431e+00
2.468137821588793912e+00
2.468137821588793912e+00
2.339883907589953349e+00
2.339883907589953349e+00
2.176378917813653668e+00
2.176378917813653668e+00
2.102501663258766751e+00
2.102501663258766751e+00
2.102501663258766751e+00
2.102314157536546269e+00
2.102314157536546269e+00
2.304257820368053267e+00
2.304257820368053267e+00
2.522139469588305261e+00
2.522139469588305261e+00
2.435511825922421991e+00
2.435511825922421991e+00
2.303132786034730373e+00
2.303132786034730373e+00
2.270319284646137969e+00
2.270319284646137969e+00
2.251193700979644330e+00
2.251193700979644330e+00
2.307070406201360946e+00
2.307070406201360946e+00
2.500576311532944906e+00
2.500576311532944906e+00
2.419761345255897922e+00
2.419761345255897922e+00
2.449199743644520311e+00
2.449199743644520311e+00
2.449199743644520311e+00
2.193441938535722002e+00
2.193441938535722002e+00
1.970310129093295171e+00
1.970310129093295171e+00
2.036499649037140980e+00
2.036499649037140980e+00
1.993560838648640532e+00
1.993560838648640532e+00
1.984373058259834677e+00
1.984373058259834677e+00
2.011561387981810611e+00
2.011561387981810611e+00
2.017186559648426858e+00
2.017186559648426858e+00
2.125564867091891408e+00
2.125564867091891408e+00
2.125564867091891408e+00
2.389385418256172233e+00
2.389385418256172233e+00
2.607267067476424671e+00
2.607267067476424671e+00
2.777334757530442122e+00
2.777334757530442122e+00
2.642893154698324754e+00
2.642893154698324754e+00
2.389197912533951751e+00
2.389197912533951751e+00
2.144315439313944083e+00
2.144315439313944083e+00
1.952309579760124647e+00
1.952309579760124647e+00
2.042312326425977265e+00
2.042312326425977265e+00
2.042312326425977265e+00
2.180879055146946577e+00
2.180879055146946577e+00
2.234693197424237443e+00
2.234693197424237443e+00
2.236380748924222672e+00
2.236380748924222672e+00
2.213692556535538980e+00
2.213692556535538980e+00
2.091063814203314664e+00
2.091063814203314664e+00
2.041562303537095335e+00
2.041562303537095335e+00
1.927746330149235465e+00
1.927746330149235465e+00
1.774366649372844496e+00
1.774366649372844496e+00
1.774366649372844496e+00
1.688301522873622895e+00
1.688301522873622895e+00
1.842806237983336981e+00
1.842806237983336981e+00
2.155753288369396170e+00
2.155753288369396170e+00
2.489325968199713301e+00
2.489325968199713301e+00
2.589079012421033443e+00
2.589079012421033443e+00
2.356196905423139309e+00
2.356196905423139309e+00
2.285882259590441556e+00
2.285882259590441556e+00
2.622830042420728258e+00
2.622830042420728258e+00
2.622830042420728258e+00
2.961465376750999301e+00
2.961465376750999301e+00
2.970090639973143709e+00
2.970090639973143709e+00
2.781647389141514548e+00
2.781647389141514548e+00
2.627517685476241649e+00
2.627517685476241649e+00
2.507139011810663121e+00
2.507139011810663121e+00
2.279694570757164307e+00
2.279694570757164307e+00
2.069875667592394830e+00
2.069875667592394830e+00
2.044749900814844423e+00
2.044749900814844423e+00
2.019811639759514499e+00
2.019811639759514499e+00
1.878807336649678250e+00
1.878807336649678250e+00
1.878807336649678250e+00
1.863244361705374219e+00
1.863244361705374219e+00
1.921746147038178698e+00
1.921746147038178698e+00
1.853494064149906917e+00
1.853494064149906917e+00
1.893245277260658721e+00
1.893245277260658721e+00
2.073438276314584883e+00
2.073438276314584883e+00
1.989810724204229997e+00
1.989810724204229997e+00
1.813367839594714370e+00
1.813367839594714370e+00
1.745678273873104036e+00
1.745678273873104036e+00
1.745678273873104036e+00
1.841681203650013865e+00
1.841681203650013865e+00
2.101751640369884377e+00
2.101751640369884377e+00
2.534327341532639721e+00
2.534327341532639721e+00
2.925464278084658698e+00
2.925464278084658698e+00
2.926964323862422557e+00
2.926964323862422557e+00
2.441324503311258276e+00
2.441324503311258276e+00
2.122189764091921838e+00
2.122189764091921838e+00
2.126877407147435228e+00
2.126877407147435228e+00
2.126877407147435228e+00
2.416198736533707869e+00
2.416198736533707869e+00
2.671956541642506178e+00
2.671956541642506178e+00
2.595829218420972584e+00
2.595829218420972584e+00
2.282319650868251504e+00
2.282319650868251504e+00
2.218005188146610962e+00
2.218005188146610962e+00
2.175816400646992221e+00
2.175816400646992221e+00
2.098939054536576698e+00
2.098939054536576698e+00
2.245568529313028083e+00
2.245568529313028083e+00
2.245568529313028083e+00
2.347196630756553937e+00
2.347196630756553937e+00
2.541265053254798900e+00
2.541265053254798900e+00
2.243318460646382295e+00
2.243318460646382295e+00
1.978185369426557427e+00
1.978185369426557427e+00
2.199254615924558287e+00
2.199254615924558287e+00
2.005936216315195253e+00
2.005936216315195253e+00
1.841868709372234347e+00
1.841868709372234347e+00
2.109814386425366894e+00
2.109814386425366894e+00
2.515951780755027567e+00
2.515951780755027567e+00
2.515951780755027567e+00
2.553452925199133361e+00
2.553452925199133361e+00
2.513139194921720332e+00
2.513139194921720332e+00
2.185004181035798521e+00
2.185004181035798521e+00
2.219317728202154782e+00
2.219317728202154782e+00
2.264319101535081202e+00
2.264319101535081202e+00
2.311383037812433372e+00
2.311383037812433372e+00
2.119189672536393232e+00
2.119189672536393232e+00
2.088813745536667987e+00
2.088813745536667987e+00
2.018499099703970678e+00
2.018499099703970678e+00
2.018499099703970678e+00
1.901683034760582425e+00
1.901683034760582425e+00
1.710614703817865623e+00
1.710614703817865623e+00
2.083376079592272667e+00
2.083376079592272667e+00
2.188754295480208611e+00
2.188754295480208611e+00
1.787867061372722555e+00
1.787867061372722555e+00
1.560422620319223741e+00
1.560422620319223741e+00
1.595486190374462154e+00
1.595486190374462154e+00
1.884057496871852866e+00
1.884057496871852866e+00
1.884057496871852866e+00
2.400073244422742391e+00
2.400073244422742391e+00
2.451824823755607952e+00
2.451824823755607952e+00
2.555140476699118146e+00
2.555140476699118146e+00
2.726708212530899900e+00
2.726708212530899900e+00
2.500576311532944906e+00
2.500576311532944906e+00
2.342696493423261028e+00
2.342696493423261028e+00
2.362947111423078006e+00
2.362947111423078006e+00
2.029936948759422766e+00
2.029936948759422766e+00
2.029936948759422766e+00
1.767241431928464834e+00
1.767241431928464834e+00
1.999373516037476817e+00
1.999373516037476817e+00
2.106439283425397324e+00
2.106439283425397324e+00
2.352446790978728330e+00
2.352446790978728330e+00
2.267506698812830290e+00
2.267506698812830290e+00
2.292632465590380253e+00
2.292632465590380253e+00
2.989216223639637349e+00
2.989216223639637349e+00
3.345289590136418134e+00
3.345289590136418134e+00
3.345289590136418134e+00
2.820273567918942792e+00
2.820273567918942792e+00
1.841681203650013865e+00
1.841681203650013865e+00
1.745490768150883554e+00
1.745490768150883554e+00
2.204692281868953607e+00
2.204692281868953607e+00
2.013811456648457288e+00
2.013811456648457288e+00
1.772679097872859932e+00
1.772679097872859932e+00
1.704614520706808634e+00
1.704614520706808634e+00
1.751303445539719839e+00
1.751303445539719839e+00
1.751303445539719839e+00
1.984185552537614194e+00
1.984185552537614194e+00
2.350759239478743989e+00
2.350759239478743989e+00
2.933714529862361697e+00
2.933714529862361697e+00
3.051655629139073067e+00
3.051655629139073067e+00
2.520076906643879511e+00
2.520076906643879511e+00
1.858744224372081755e+00
1.858744224372081755e+00
1.831930906094546563e+00
1.831930906094546563e+00
2.004248664815210468e+00
2.004248664815210468e+00
2.158190862758262885e+00
2.158190862758262885e+00
1.530984221930600908e+00
1.530984221930600908e+00
7.140217902157658392e-01
7.140217902157658392e-01
7.140217902157658392e-01
1.063907467879268820e+00
1.063907467879268820e+00
1.937309121982482507e+00
1.937309121982482507e+00
2.158003357036042402e+00
2.158003357036042402e+00
2.244068483535264225e+00
2.244068483535264225e+00
2.825148716696676665e+00
2.825148716696676665e+00
3.067218604083376654e+00
3.067218604083376654e+00
2.873712698751793138e+00
2.873712698751793138e+00
2.774334665974913516e+00
2.774334665974913516e+00
2.774334665974913516e+00
2.775272194586016372e+00
2.775272194586016372e+00
2.191004364146854844e+00
2.191004364146854844e+00
2.122189764091921838e+00
2.122189764091921838e+00
2.408323496200445835e+00
2.408323496200445835e+00
2.823086153752250915e+00
2.823086153752250915e+00
2.801710501419110599e+00
2.801710501419110599e+00
2.641205603198339968e+00
2.641205603198339968e+00
2.944027344584490447e+00
2.944027344584490447e+00
2.944027344584490447e+00
3.069281167027802404e+00
3.069281167027802404e+00
2.715832880642109259e+00
2.715832880642109259e+00
2.483138279366435608e+00
2.483138279366435608e+00
2.373072420422986717e+00
2.373072420422986717e+00
2.263381572923978347e+00
2.263381572923978347e+00
2.222692831202123909e+00
2.222692831202123909e+00
2.223067842646564873e+00
2.223067842646564873e+00
1.910308297982726611e+00
1.910308297982726611e+00
1.850306466872157829e+00
1.850306466872157829e+00
1.850306466872157829e+00
1.715114841151158087e+00
1.715114841151158087e+00
2.157065828424939546e+00
2.157065828424939546e+00
2.550265327921384717e+00
2.550265327921384717e+00
2.309132969145787140e+00
2.309132969145787140e+00
2.114877040925321250e+00
2.114877040925321250e+00
2.059375347148045154e+00
2.059375347148045154e+00
2.138502761925107798e+00
2.138502761925107798e+00
2.124814844203009478e+00
2.124814844203009478e+00
1.945371868037965024e+00
1.945371868037965024e+00
1.945371868037965024e+00
1.828555803094576770e+00
1.828555803094576770e+00
1.704239509262367669e+00
1.704239509262367669e+00
2.072313241981261545e+00
2.072313241981261545e+00
2.065000518814661401e+00
2.065000518814661401e+00
2.041937314981536300e+00
2.041937314981536300e+00
2.450512283700064131e+00
2.450512283700064131e+00
2.312133060701315301e+00
2.312133060701315301e+00
2.062000427259132795e+00
2.062000427259132795e+00
2.062000427259132795e+00
2.185754203924680450e+00
2.185754203924680450e+00
2.383572740867336393e+00
2.383572740867336393e+00
2.462887661366619074e+00
2.462887661366619074e+00
2.604454481643116548e+00
2.604454481643116548e+00
2.433824274422437206e+00
2.433824274422437206e+00
2.463450178533280521e+00
2.463450178533280521e+00
2.555140476699118146e+00
2.555140476699118146e+00
2.524202032532731454e+00
2.524202032532731454e+00
2.524202032532731454e+00
2.615142307809686706e+00
2.615142307809686706e+00
2.279694570757164307e+00
2.279694570757164307e+00
2.316633198034607766e+00
2.316633198034607766e+00
2.373259926145207199e+00
2.373259926145207199e+00
1.944434339426862390e+00
1.944434339426862390e+00
1.787117038483840403e+00
1.787117038483840403e+00
1.971435163426618287e+00
1.971435163426618287e+00
1.939184179204687553e+00
1.939184179204687553e+00
1.939184179204687553e+00
1.912370860927152361e+00
1.912370860927152361e+00
1.907308206427198227e+00
1.907308206427198227e+00
2.318508255256813033e+00
2.318508255256813033e+00
2.711145237586596313e+00
2.711145237586596313e+00
2.888713156529435278e+00
2.888713156529435278e+00
2.702894985808892869e+00
2.702894985808892869e+00
2.588141483809930588e+00
2.588141483809930588e+00
2.363697134311959935e+00
2.363697134311959935e+00
2.363697134311959935e+00
2.264694112979522167e+00
2.264694112979522167e+00
1.842243720816675312e+00
1.842243720816675312e+00
1.094658406323435029e+00
1.094658406323435029e+00
1.041031769768364423e+00
1.041031769768364423e+00
1.247475569933164552e+00
1.247475569933164552e+00
2.305757866145817125e+00
2.305757866145817125e+00
2.850274483474227072e+00
2.850274483474227072e+00
3.080531510361034009e+00
3.080531510361034009e+00
2.997278969695119866e+00
2.997278969695119866e+00
2.997278969695119866e+00
2.997466475417340348e+00
2.997466475417340348e+00
3.032905056917019948e+00
3.032905056917019948e+00
2.877837824640644637e+00
2.877837824640644637e+00
2.583641346476638123e+00
2.583641346476638123e+00
2.335946287423322332e+00
2.335946287423322332e+00
2.259256447035126847e+00
2.259256447035126847e+00
2.218567705313272853e+00
2.218567705313272853e+00
1.991123264259773595e+00
1.991123264259773595e+00
2.161003448591571008e+00
2.161003448591571008e+00
2.161003448591571008e+00
2.311945554979094819e+00
2.311945554979094819e+00
1.940121707815790408e+00
1.940121707815790408e+00
1.850306466872157829e+00
1.850306466872157829e+00
1.838681112094485259e+00
1.838681112094485259e+00
2.016249031037324002e+00
2.016249031037324002e+00
2.240130863368633207e+00
2.240130863368633207e+00
2.583828852198858606e+00
2.583828852198858606e+00
2.857962218085268624e+00
2.857962218085268624e+00
2.857962218085268624e+00
2.858337229529709589e+00
2.858337229529709589e+00
2.527202124088259172e+00
2.527202124088259172e+00
2.620579973754082026e+00
2.620579973754082026e+00
2.623580065309610188e+00
2.623580065309610188e+00
2.318508255256813033e+00
2.318508255256813033e+00
2.012873928037354432e+00
2.012873928037354432e+00
1.919121066927091501e+00
1.919121066927091501e+00
2.044374889370403459e+00
2.044374889370403459e+00
2.044374889370403459e+00
2.202442213202307375e+00
2.202442213202307375e+00
1.992998321481978863e+00
1.992998321481978863e+00
2.061812921536912313e+00
2.061812921536912313e+00
1.994310861537522683e+00
1.994310861537522683e+00
2.146190496536149350e+00
2.146190496536149350e+00
2.386010315256203107e+00
2.386010315256203107e+00
2.366884731589709023e+00
2.366884731589709023e+00
2.431949217200232383e+00
2.431949217200232383e+00
2.431949217200232383e+00
2.525139561143833866e+00
2.525139561143833866e+00
2.047187475203710694e+00
2.047187475203710694e+00
2.031812005981628033e+00
2.031812005981628033e+00
2.294320017090365038e+00
2.294320017090365038e+00
2.061250404370250422e+00
2.061250404370250422e+00
2.116939603869747000e+00
2.116939603869747000e+00
2.474513016144291644e+00
2.474513016144291644e+00
2.623392559587389705e+00
2.623392559587389705e+00
2.623392559587389705e+00
2.986028626361888261e+00
2.986028626361888261e+00
2.927526841029084004e+00
2.927526841029084004e+00
2.654331003753776841e+00
2.654331003753776841e+00
2.642705648976104271e+00
2.642705648976104271e+00
2.618704916531876759e+00
2.618704916531876759e+00
2.445824640644550740e+00
2.445824640644550740e+00
2.241068391979735619e+00
2.241068391979735619e+00
2.210879970702230857e+00
2.210879970702230857e+00
2.210879970702230857e+00
2.149003082369457029e+00
2.149003082369457029e+00
2.013623950926236805e+00
2.013623950926236805e+00
1.950809533982360344e+00
1.950809533982360344e+00
2.207317361980041248e+00
2.207317361980041248e+00
2.364822168645283273e+00
2.364822168645283273e+00
2.287007293923764895e+00
2.287007293923764895e+00
2.327696035645618888e+00
2.327696035645618888e+00
2.329383587145603673e+00
2.329383587145603673e+00
2.329383587145603673e+00
2.158003357036042402e+00
2.158003357036042402e+00
2.170566240424817828e+00
2.170566240424817828e+00
2.102689168980987233e+00
2.102689168980987233e+00
2.053937681203650278e+00
2.053937681203650278e+00
2.022811731315042216e+00
2.022811731315042216e+00
2.132690084536271069e+00
2.132690084536271069e+00
2.224567888424329176e+00
2.224567888424329176e+00
2.362009582811975594e+00
2.362009582811975594e+00
2.362009582811975594e+00
2.714145329142124918e+00
2.714145329142124918e+00
2.659206152531510270e+00
2.659206152531510270e+00
2.251381206701864812e+00
2.251381206701864812e+00
2.023936765648365554e+00
2.023936765648365554e+00
2.069313150425733383e+00
2.069313150425733383e+00
2.159878414258247670e+00
2.159878414258247670e+00
2.299382671590319838e+00
2.299382671590319838e+00
2.021499191259499284e+00
2.021499191259499284e+00
2.021499191259499284e+00
1.849743949705496382e+00
1.849743949705496382e+00
2.230193060090945423e+00
2.230193060090945423e+00
2.639705557420575666e+00
2.639705557420575666e+00
2.726145695364238897e+00
2.726145695364238897e+00
2.676831690420240051e+00
2.676831690420240051e+00
2.528702169866023475e+00
2.528702169866023475e+00
2.631267799920652184e+00
2.631267799920652184e+00
2.807335673085726846e+00
2.807335673085726846e+00
2.587953978087710105e+00
2.587953978087710105e+00
2.587953978087710105e+00
2.536014893032624506e+00
2.536014893032624506e+00
2.559640614032411055e+00
2.559640614032411055e+00
2.535827387310404024e+00
2.535827387310404024e+00
2.352259285256507848e+00
2.352259285256507848e+00
2.220817773979919085e+00
2.220817773979919085e+00
2.145252967925046494e+00
2.145252967925046494e+00
2.053937681203650278e+00
2.053937681203650278e+00
1.730115298928800449e+00
1.730115298928800449e+00
1.698801843317972349e+00
1.698801843317972349e+00
1.680051271095919674e+00
1.680051271095919674e+00
1.680051271095919674e+00
2.088251228370006540e+00
2.088251228370006540e+00
2.464012695699941968e+00
2.464012695699941968e+00
2.411323587755973996e+00
2.411323587755973996e+00
2.148253059480575100e+00
2.148253059480575100e+00
2.322820886867885459e+00
2.322820886867885459e+00
2.529827204199346813e+00
2.529827204199346813e+00
2.321695852534562121e+00
2.321695852534562121e+00
2.355821893978697901e+00
2.355821893978697901e+00
2.355821893978697901e+00
2.572766014587847927e+00
2.572766014587847927e+00
2.659393658253730752e+00
2.659393658253730752e+00
2.405510910367137711e+00
2.405510910367137711e+00
2.356571916867580274e+00
2.356571916867580274e+00
2.304070314645832784e+00
2.304070314645832784e+00
2.305195348979155678e+00
2.305195348979155678e+00
2.134940153202917745e+00
2.134940153202917745e+00
2.036499649037140980e+00
2.036499649037140980e+00
2.036499649037140980e+00
2.232818140202032620e+00
2.232818140202032620e+00
2.471887936033204003e+00
2.471887936033204003e+00
2.590016541032135855e+00
2.590016541032135855e+00
2.278007019257179522e+00
2.278007019257179522e+00
1.989060701315347846e+00
1.989060701315347846e+00
1.992810815759758380e+00
1.992810815759758380e+00
2.253256263924070080e+00
2.253256263924070080e+00
2.541452558977019383e+00
2.541452558977019383e+00
2.541452558977019383e+00
2.502826380199591139e+00
2.502826380199591139e+00
2.530952238532670151e+00
2.530952238532670151e+00
2.617954893642994829e+00
2.617954893642994829e+00
2.490638508255257122e+00
2.490638508255257122e+00
2.482575762199774161e+00
2.482575762199774161e+00
2.338196356089969008e+00
2.338196356089969008e+00
2.188379284035767647e+00
2.188379284035767647e+00
2.263756584368419311e+00
2.263756584368419311e+00
2.263756584368419311e+00
2.329758598590044638e+00
2.329758598590044638e+00
2.394448072756126589e+00
2.394448072756126589e+00
2.401948301644947659e+00
2.401948301644947659e+00
2.305007843256935196e+00
2.305007843256935196e+00
2.185379192480239485e+00
2.185379192480239485e+00
2.286632282479323930e+00
2.286632282479323930e+00
2.189129306924649576e+00
2.189129306924649576e+00
2.016249031037324002e+00
2.016249031037324002e+00
2.256443861201819168e+00
2.256443861201819168e+00
2.256443861201819168e+00
2.415636219367045978e+00
2.415636219367045978e+00
2.382260200811792572e+00
2.382260200811792572e+00
2.258131412701803509e+00
2.258131412701803509e+00
2.295820062868129341e+00
2.295820062868129341e+00
2.411698599200414961e+00
2.411698599200414961e+00
2.375885006256294396e+00
2.375885006256294396e+00
2.607079561754204189e+00
2.607079561754204189e+00
2.795897824030274759e+00
2.795897824030274759e+00
2.795897824030274759e+00
2.455574938200018487e+00
2.455574938200018487e+00
2.047937498092593067e+00
2.047937498092593067e+00
1.884057496871852866e+00
1.884057496871852866e+00
1.692426648762474395e+00
1.692426648762474395e+00
1.737990539262062484e+00
1.737990539262062484e+00
1.809805230872524096e+00
1.809805230872524096e+00
2.018499099703970678e+00
2.018499099703970678e+00
2.425949034089175171e+00
2.425949034089175171e+00
2.425949034089175171e+00
2.719958006530961203e+00
2.719958006530961203e+00
2.761584276863917609e+00
2.761584276863917609e+00
2.871650135807367388e+00
2.871650135807367388e+00
2.904088625751518382e+00
2.904088625751518382e+00
2.514639240699484635e+00
2.514639240699484635e+00
2.640643086031678521e+00
2.640643086031678521e+00
2.421261391033662225e+00
2.421261391033662225e+00
2.199817133091219734e+00
2.199817133091219734e+00
2.199817133091219734e+00
2.391635486922818910e+00
2.391635486922818910e+00
2.320758323923459709e+00
2.320758323923459709e+00
2.067813104647969080e+00
2.067813104647969080e+00
1.944809350871303355e+00
1.944809350871303355e+00
2.098939054536576698e+00
2.098939054536576698e+00
2.218567705313272853e+00
2.218567705313272853e+00
2.206567339091158875e+00
2.206567339091158875e+00
2.458012512588885201e+00
2.458012512588885201e+00
2.416948759422589799e+00
2.416948759422589799e+00
2.230005554368724940e+00
2.230005554368724940e+00
2.230005554368724940e+00
2.270694296090578934e+00
2.270694296090578934e+00
2.116189580980865070e+00
2.116189580980865070e+00
2.110564409314249268e+00
2.110564409314249268e+00
2.145252967925046494e+00
2.145252967925046494e+00
2.199817133091219734e+00
2.199817133091219734e+00
2.432886745811334794e+00
2.432886745811334794e+00
2.604454481643116548e+00
2.604454481643116548e+00
2.489138462477492819e+00
2.489138462477492819e+00
2.489138462477492819e+00
2.406823450422681532e+00
2.406823450422681532e+00
2.221005279702139568e+00
2.221005279702139568e+00
2.036312143314920498e+00
2.036312143314920498e+00
2.171878780480361648e+00
2.171878780480361648e+00
2.438886928922391562e+00
2.438886928922391562e+00
2.443949583422345917e+00
2.443949583422345917e+00
2.503763908810693550e+00
2.503763908810693550e+00
2.445824640644550740e+00
2.445824640644550740e+00
2.445824640644550740e+00
2.552327890865810023e+00
2.552327890865810023e+00
2.424261482589190386e+00
2.424261482589190386e+00
1.972560197759941625e+00
1.972560197759941625e+00
2.236568254646443155e+00
2.236568254646443155e+00
2.247818597979674760e+00
2.247818597979674760e+00
2.347946653645436310e+00
2.347946653645436310e+00
2.459512558366649504e+00
2.459512558366649504e+00
2.663331278420362214e+00
2.663331278420362214e+00
2.727083223975340864e+00
2.727083223975340864e+00
2.727083223975340864e+00
2.661268715475936020e+00
2.661268715475936020e+00
2.554577959532456255e+00
2.554577959532456255e+00
2.480513199255348411e+00
2.480513199255348411e+00
2.563203222754600663e+00
2.563203222754600663e+00
2.297882625812555535e+00
2.297882625812555535e+00
2.168691183202612560e+00
2.168691183202612560e+00
2.076438367870113488e+00
2.076438367870113488e+00
2.091063814203314664e+00
2.091063814203314664e+00
2.091063814203314664e+00
2.163816034424878687e+00
2.163816034424878687e+00
2.215942625202185212e+00
2.215942625202185212e+00
2.260756492812891150e+00
2.260756492812891150e+00
2.324320932645649762e+00
2.324320932645649762e+00
2.200567155980101663e+00
2.200567155980101663e+00
2.344009033478804849e+00
2.344009033478804849e+00
2.457074983977782345e+00
2.457074983977782345e+00
2.279507065034943825e+00
2.279507065034943825e+00
2.279507065034943825e+00
2.341946470534379099e+00
2.341946470534379099e+00
2.450699789422284613e+00
2.450699789422284613e+00
2.362759605700857524e+00
2.362759605700857524e+00
2.293007477034821662e+00
2.293007477034821662e+00
2.326008484145634547e+00
2.326008484145634547e+00
2.315133152256843907e+00
2.315133152256843907e+00
2.270131778923917043e+00
2.270131778923917043e+00
2.231130588702047834e+00
2.231130588702047834e+00
2.239943357646412725e+00
2.239943357646412725e+00
2.239943357646412725e+00
2.282694662312692468e+00
2.282694662312692468e+00
2.278007019257179522e+00
2.278007019257179522e+00
2.237130771813104602e+00
2.237130771813104602e+00
2.175253883480330774e+00
2.175253883480330774e+00
2.163253517258217240e+00
2.163253517258217240e+00
2.340071413312173831e+00
2.340071413312173831e+00
2.536764915921506436e+00
2.536764915921506436e+00
2.590766563921018228e+00
2.590766563921018228e+00
2.590766563921018228e+00
2.497388714255195818e+00
2.497388714255195818e+00
2.449199743644520311e+00
2.449199743644520311e+00
2.388447889645069822e+00
2.388447889645069822e+00
2.327508529923398850e+00
2.327508529923398850e+00
2.262256538590655452e+00
2.262256538590655452e+00
2.204879787591174090e+00
2.204879787591174090e+00
2.075500839259010633e+00
2.075500839259010633e+00
2.182379100924710880e+00
2.182379100924710880e+00
2.182379100924710880e+00
2.490826013977477604e+00
2.490826013977477604e+00
2.575953611865596571e+00
2.575953611865596571e+00
2.634267891476180345e+00
2.634267891476180345e+00
2.540327524643696488e+00
2.540327524643696488e+00
2.161190954313791490e+00
2.161190954313791490e+00
2.156878322702719064e+00
2.156878322702719064e+00
2.159690908536027187e+00
2.159690908536027187e+00
2.204129764702292160e+00
2.204129764702292160e+00
2.482200750755333196e+00
2.482200750755333196e+00
2.482200750755333196e+00
2.482013245033112270e+00
2.482013245033112270e+00
2.348509170812097757e+00
2.348509170812097757e+00
2.493076082644123392e+00
2.493076082644123392e+00
2.653580980864894912e+00
2.653580980864894912e+00
2.606704550309763224e+00
2.606704550309763224e+00
2.595829218420972584e+00
2.595829218420972584e+00
2.487263405255287552e+00
2.487263405255287552e+00
2.339133884701071420e+00
2.339133884701071420e+00
2.217817682424390480e+00
2.217817682424390480e+00
2.093501388592180934e+00
2.093501388592180934e+00
2.174878872035889810e+00
2.174878872035889810e+00
2.174878872035889810e+00
2.029374431592760875e+00
2.029374431592760875e+00
2.133815118869594407e+00
2.133815118869594407e+00
2.346821619312112972e+00
2.346821619312112972e+00
2.494951139866329104e+00
2.494951139866329104e+00
2.419761345255897922e+00
2.419761345255897922e+00
2.415073702200384531e+00
2.415073702200384531e+00
2.317383220923490139e+00
2.317383220923490139e+00
2.361072054200873183e+00
2.361072054200873183e+00
2.361072054200873183e+00
2.411886104922635443e+00
2.411886104922635443e+00
2.250068666646320992e+00
2.250068666646320992e+00
1.966185003204443671e+00
1.966185003204443671e+00
2.047374980925931620e+00
2.047374980925931620e+00
2.232443128757591655e+00
2.232443128757591655e+00
2.389010406811731269e+00
2.389010406811731269e+00
2.356384411145359792e+00
2.356384411145359792e+00
2.248756126590777171e+00
2.248756126590777171e+00
2.380010132145145896e+00
2.380010132145145896e+00
2.380010132145145896e+00
2.486700888088625661e+00
2.486700888088625661e+00
2.477325601977599767e+00
2.477325601977599767e+00
2.401385784478286212e+00
2.401385784478286212e+00
2.366509720145268059e+00
2.366509720145268059e+00
2.585328897976622908e+00
2.585328897976622908e+00
2.612517227698599065e+00
2.612517227698599065e+00
2.577641163365581356e+00
2.577641163365581356e+00
2.541265053254798900e+00
2.541265053254798900e+00
2.541265053254798900e+00
2.363134617145298488e+00
2.363134617145298488e+00
2.179941526535844165e+00
2.179941526535844165e+00
2.064250495925779028e+00
2.064250495925779028e+00
1.954184636982329915e+00
1.954184636982329915e+00
1.971435163426618287e+00
1.971435163426618287e+00
2.170753746147038310e+00
2.170753746147038310e+00
2.213505050813318054e+00
2.213505050813318054e+00
2.362759605700857524e+00
2.362759605700857524e+00
2.362759605700857524e+00
2.574453566087832268e+00
2.574453566087832268e+00
2.657706106753745967e+00
2.657706106753745967e+00
2.624517593920713043e+00
2.624517593920713043e+00
2.442824549089022579e+00
2.442824549089022579e+00
2.380572649311807787e+00
2.380572649311807787e+00
2.409261024811548246e+00
2.409261024811548246e+00
2.308570451979125249e+00
2.308570451979125249e+00
2.286444776757103448e+00
2.286444776757103448e+00
2.286444776757103448e+00
2.198879604480116878e+00
2.198879604480116878e+00
1.966372508926664153e+00
1.966372508926664153e+00
1.969185094759971832e+00
1.969185094759971832e+00
2.243130954924161813e+00
2.243130954924161813e+00
2.417323770867030763e+00
2.417323770867030763e+00
2.451449812311166987e+00
2.451449812311166987e+00
2.425199011200292798e+00
2.425199011200292798e+00
2.365197180089724238e+00
2.365197180089724238e+00
2.365197180089724238e+00
2.551765373699148576e+00
2.551765373699148576e+00
2.677019196142460533e+00
2.677019196142460533e+00
2.507326517532883603e+00
2.507326517532883603e+00
2.314008117923521013e+00
2.314008117923521013e+00
2.151065645313883223e+00
2.151065645313883223e+00
2.162128482924894346e+00
2.162128482924894346e+00
2.233193151646474028e+00
2.233193151646474028e+00
2.238255806146427940e+00
2.238255806146427940e+00
2.238255806146427940e+00
2.349634205145421095e+00
2.349634205145421095e+00
2.287382305368205859e+00
2.287382305368205859e+00
2.280257087923826198e+00
2.280257087923826198e+00
2.585328897976622908e+00
2.585328897976622908e+00
2.586453932309945802e+00
2.586453932309945802e+00
2.495138645588549586e+00
2.495138645588549586e+00
2.519326883754997581e+00
2.519326883754997581e+00
2.438136906033509188e+00
2.438136906033509188e+00
2.438136906033509188e+00
2.467200292977691056e+00
2.467200292977691056e+00
2.390885464033936536e+00
2.390885464033936536e+00
2.159878414258247670e+00
2.159878414258247670e+00
2.050937589648121673e+00
2.050937589648121673e+00
2.021499191259499284e+00
2.021499191259499284e+00
2.076813379314554453e+00
2.076813379314554453e+00
2.161190954313791490e+00
2.161190954313791490e+00
2.285694753868221074e+00
2.285694753868221074e+00
2.285694753868221074e+00
2.512389172032837958e+00
2.512389172032837958e+00
2.588704000976592479e+00
2.588704000976592479e+00
2.578953703421124732e+00
2.578953703421124732e+00
2.579891232032227588e+00
2.579891232032227588e+00
2.478263130588702179e+00
2.478263130588702179e+00
2.393510544145024177e+00
2.393510544145024177e+00
2.386010315256203107e+00
2.386010315256203107e+00
2.274819421979430434e+00
2.274819421979430434e+00
2.224380382702108694e+00
2.224380382702108694e+00
2.256818872646260132e+00
2.256818872646260132e+00
2.271444318979460864e+00
2.271444318979460864e+00
2.271444318979460864e+00
2.353946836756492633e+00
2.353946836756492633e+00
2.274256904812768987e+00
2.274256904812768987e+00
2.108689352092044000e+00
2.108689352092044000e+00
2.147690542313913653e+00
2.147690542313913653e+00
2.265819147312845505e+00
2.265819147312845505e+00
2.326195989867855030e+00
2.326195989867855030e+00
2.328071047090059853e+00
2.328071047090059853e+00
2.234880703146458369e+00
2.234880703146458369e+00
2.234880703146458369e+00
2.217067659535508550e+00
2.217067659535508550e+00
2.384135258033997840e+00
2.384135258033997840e+00
2.270319284646137969e+00
2.270319284646137969e+00
2.139252784813989727e+00
2.139252784813989727e+00
2.069875667592394830e+00
2.069875667592394830e+00
2.142815393536179780e+00
2.142815393536179780e+00
2.298445142979216982e+00
2.298445142979216982e+00
2.399885738700521909e+00
2.399885738700521909e+00
2.399885738700521909e+00
2.507139011810663121e+00
2.507139011810663121e+00
2.639518051698355183e+00
2.639518051698355183e+00
2.686019470809045906e+00
2.686019470809045906e+00
2.595079195532090210e+00
2.595079195532090210e+00
2.347009125034333454e+00
2.347009125034333454e+00
2.202067201757865966e+00
2.202067201757865966e+00
2.354884365367595489e+00
2.354884365367595489e+00
2.529827204199346813e+00
2.529827204199346813e+00
2.529827204199346813e+00
2.532264778588213971e+00
2.532264778588213971e+00
2.403823358867152926e+00
2.403823358867152926e+00
2.235255714590899334e+00
2.235255714590899334e+00
2.288694845423749680e+00
2.288694845423749680e+00
2.401948301644947659e+00
2.401948301644947659e+00
2.377572557756279181e+00
2.377572557756279181e+00
2.377572557756279181e+00
2.377572557756279181e+00
2.370634846034120002e+00
2.370634846034120002e+00
2.329946104312265120e+00
2.329946104312265120e+00
2.349821710867641578e+00
2.349821710867641578e+00
2.268444227423932702e+00
2.268444227423932702e+00
2.268444227423932702e+00
2.189691824091311467e+00
2.189691824091311467e+00
2.371197363200781449e+00
2.371197363200781449e+00
2.383197729422894984e+00
2.383197729422894984e+00
2.242005920590838475e+00
2.242005920590838475e+00
2.181066560869167059e+00
2.181066560869167059e+00
2.194379467146824858e+00
2.194379467146824858e+00
2.221380291146580532e+00
2.221380291146580532e+00
2.227192968535416817e+00
2.227192968535416817e+00
2.228880520035401602e+00
2.228880520035401602e+00
2.228880520035401602e+00
2.289257362590411127e+00
2.289257362590411127e+00
2.378697592089602519e+00
2.378697592089602519e+00
2.424073976866969904e+00
2.424073976866969904e+00
2.506388988921781191e+00
2.506388988921781191e+00
2.477700613422040732e+00
2.477700613422040732e+00
2.470200384533219218e+00
2.470200384533219218e+00
2.550452833643604755e+00
2.550452833643604755e+00
2.399323221533860018e+00
2.399323221533860018e+00
2.399323221533860018e+00
2.216692648091067142e+00
2.216692648091067142e+00
2.141877864925076924e+00
2.141877864925076924e+00
2.066688070314646186e+00
2.066688070314646186e+00
2.124627338480788552e+00
2.124627338480788552e+00
2.184629169591357556e+00
2.184629169591357556e+00
2.357696951200903612e+00
2.357696951200903612e+00
2.559078096865749163e+00
2.559078096865749163e+00
2.576328623310037536e+00
2.576328623310037536e+00
2.576328623310037536e+00
2.473762993255409270e+00
2.473762993255409270e+00
2.343071504867702437e+00
2.343071504867702437e+00
2.176378917813653668e+00
2.176378917813653668e+00
2.185941709646900932e+00
2.185941709646900932e+00
2.264881618701742649e+00
2.264881618701742649e+00
2.199629627368999252e+00
2.199629627368999252e+00
2.227567979979857782e+00
2.227567979979857782e+00
2.303695303201391820e+00
2.303695303201391820e+00
2.303695303201391820e+00
2.342883999145481511e+00
2.342883999145481511e+00
2.330321115756706529e+00
2.330321115756706529e+00
2.367634754478591397e+00
2.367634754478591397e+00
2.448262215033417899e+00
2.448262215033417899e+00
2.439449446089053009e+00
2.439449446089053009e+00
2.412073610644855925e+00
2.412073610644855925e+00
2.413948667867061193e+00
2.413948667867061193e+00
2.429699148533585706e+00
2.429699148533585706e+00
2.371384868923001932e+00
2.371384868923001932e+00
2.371384868923001932e+00
2.381885189367351607e+00
2.381885189367351607e+00
2.345884090701010116e+00
2.345884090701010116e+00
2.275756950590533290e+00
2.275756950590533290e+00
2.314008117923521013e+00
2.314008117923521013e+00
2.310633014923550999e+00
2.310633014923550999e+00
2.193629444257942485e+00
2.193629444257942485e+00
2.171878780480361648e+00
2.171878780480361648e+00
2.197004547257912055e+00
2.197004547257912055e+00
2.265631641590625023e+00
2.265631641590625023e+00
2.265631641590625023e+00
2.353196813867610704e+00
2.353196813867610704e+00
2.390322946867275089e+00
2.390322946867275089e+00
2.444324594866786882e+00
2.444324594866786882e+00
2.379822626422925413e+00
2.379822626422925413e+00
2.289069856868190644e+00
2.289069856868190644e+00
2.306695394756919981e+00
2.306695394756919981e+00
2.227755485702078264e+00
2.227755485702078264e+00
2.208629902035584625e+00
2.208629902035584625e+00
2.208629902035584625e+00
2.226255439924313961e+00
2.226255439924313961e+00
2.226630451368755370e+00
2.226630451368755370e+00
2.236568254646443155e+00
2.236568254646443155e+00
2.265256630146183614e+00
2.265256630146183614e+00
2.407760979033784388e+00
2.407760979033784388e+00
2.481075716422009858e+00
2.481075716422009858e+00
2.370072328867458111e+00
2.370072328867458111e+00
2.277069490646077110e+00
2.277069490646077110e+00
2.469825373088778253e+00
2.469825373088778253e+00
2.469825373088778253e+00
2.593579149754326352e+00
2.593579149754326352e+00
2.533764824365978274e+00
2.533764824365978274e+00
2.526639606921598169e+00
2.526639606921598169e+00
2.407198461867122496e+00
2.407198461867122496e+00
2.281944639423810539e+00
2.281944639423810539e+00
2.189129306924649576e+00
2.189129306924649576e+00
2.131377544480727693e+00
2.131377544480727693e+00
2.151253151036103706e+00
2.151253151036103706e+00
2.151253151036103706e+00
2.210692464980010374e+00
2.210692464980010374e+00
2.229630542924283532e+00
2.229630542924283532e+00
2.276506973479415219e+00
2.276506973479415219e+00
2.314570635090182460e+00
2.314570635090182460e+00
2.397448164311655194e+00
2.397448164311655194e+00
2.449949766533402684e+00
2.449949766533402684e+00
2.365009674367503756e+00
2.365009674367503756e+00
2.368947294534135217e+00
2.368947294534135217e+00
2.368947294534135217e+00
2.417511276589251690e+00
2.417511276589251690e+00
2.314570635090182460e+00
2.314570635090182460e+00
2.251381206701864812e+00
2.251381206701864812e+00
2.184816675313578038e+00
2.184816675313578038e+00
2.188754295480208611e+00
2.188754295480208611e+00
2.293945005645924073e+00
2.293945005645924073e+00
2.276694479201635701e+00
2.276694479201635701e+00
2.278007019257179522e+00
2.278007019257179522e+00
2.278007019257179522e+00
2.347009125034333454e+00
2.347009125034333454e+00
2.373634937589648164e+00
2.373634937589648164e+00
2.467950315866573430e+00
2.467950315866573430e+00
2.458387524033326166e+00
2.458387524033326166e+00
2.398198187200537124e+00
2.398198187200537124e+00
2.456512466811120898e+00
2.456512466811120898e+00
2.419011322367015993e+00
2.419011322367015993e+00
2.333696218756676100e+00
2.333696218756676100e+00
2.333696218756676100e+00
2.317758232367931104e+00
2.317758232367931104e+00
2.286632282479323930e+00
2.286632282479323930e+00
2.288882351145970162e+00
2.288882351145970162e+00
2.332946195867793726e+00
2.332946195867793726e+00
2.278944547868282378e+00
2.278944547868282378e+00
2.199254615924558287e+00
2.199254615924558287e+00
2.137190221869563977e+00
2.137190221869563977e+00
2.216317636646626177e+00
2.216317636646626177e+00
2.216317636646626177e+00
2.377385052034058699e+00
2.377385052034058699e+00
2.430824182866909045e+00
2.430824182866909045e+00
2.380010132145145896e+00
2.380010132145145896e+00
2.379447614978484449e+00
2.379447614978484449e+00
2.305570360423596643e+00
2.305570360423596643e+00
2.269569261757255596e+00
2.269569261757255596e+00
2.267694204535050773e+00
2.267694204535050773e+00
2.238443311868648422e+00
2.238443311868648422e+00
2.271444318979460864e+00
2.271444318979460864e+00
2.271444318979460864e+00
2.303882808923612302e+00
2.303882808923612302e+00
2.314570635090182460e+00
2.314570635090182460e+00
2.365384685811944721e+00
2.365384685811944721e+00
2.393885555589465142e+00
2.393885555589465142e+00
2.407760979033784388e+00
2.407760979033784388e+00
2.443199560533463544e+00
2.443199560533463544e+00
2.401948301644947659e+00
2.401948301644947659e+00
2.386385326700643628e+00
2.386385326700643628e+00
2.410761070589312105e+00
2.410761070589312105e+00
2.410761070589312105e+00
2.288882351145970162e+00
2.288882351145970162e+00
2.226067934202093479e+00
2.226067934202093479e+00
2.175441389202551257e+00
2.175441389202551257e+00
2.138690267647328280e+00
2.138690267647328280e+00
2.219317728202154782e+00
2.219317728202154782e+00
2.285132236701559627e+00
2.285132236701559627e+00
2.292819971312600735e+00
2.292819971312600735e+00
2.291507431257057803e+00
2.291507431257057803e+00
2.302945280312509890e+00
2.302945280312509890e+00
2.302945280312509890e+00
2.368759788811914291e+00
2.368759788811914291e+00
2.379635120700704931e+00
2.379635120700704931e+00
2.323945921201208797e+00
2.323945921201208797e+00
2.373822443311869090e+00
2.373822443311869090e+00
2.369884823145237629e+00
2.369884823145237629e+00
2.392010498367259874e+00
2.392010498367259874e+00
2.498138737144077748e+00
2.498138737144077748e+00
2.410761070589312105e+00
2.410761070589312105e+00
2.410761070589312105e+00
2.259443952757347329e+00
2.259443952757347329e+00
2.281382122257148648e+00
2.281382122257148648e+00
2.288319833979308715e+00
2.288319833979308715e+00
2.351509262367625919e+00
2.351509262367625919e+00
2.363134617145298488e+00
2.363134617145298488e+00
2.359384502700888397e+00
2.359384502700888397e+00
2.492326059755241463e+00
2.492326059755241463e+00
2.539952513199255080e+00
2.539952513199255080e+00
2.539952513199255080e+00
2.431949217200232383e+00
2.431949217200232383e+00
2.394073061311685624e+00
2.394073061311685624e+00
2.276506973479415219e+00
2.276506973479415219e+00
2.189504318369090985e+00
2.189504318369090985e+00
2.182191595202490397e+00
2.182191595202490397e+00
2.147315530869472244e+00
2.147315530869472244e+00
2.153690725424969976e+00
2.153690725424969976e+00
2.201692190313425002e+00
2.201692190313425002e+00
2.201692190313425002e+00
2.236755760368663637e+00
2.236755760368663637e+00
2.295820062868129341e+00
2.295820062868129341e+00
2.342696493423261028e+00
2.342696493423261028e+00
2.379260109256263966e+00
2.379260109256263966e+00
2.412823633533738299e+00
2.412823633533738299e+00
2.376447523422955843e+00
2.376447523422955843e+00
2.360697042756431774e+00
2.360697042756431774e+00
2.406823450422681532e+00
2.406823450422681532e+00
2.316070680867946319e+00
2.316070680867946319e+00
2.316070680867946319e+00
2.268631733146153184e+00
2.268631733146153184e+00
2.229443037202063049e+00
2.229443037202063049e+00
2.164941068758201581e+00
2.164941068758201581e+00
2.191191869869075770e+00
2.191191869869075770e+00
2.214255073702200427e+00
2.214255073702200427e+00
2.240693380535294654e+00
2.240693380535294654e+00
2.316070680867946319e+00
2.316070680867946319e+00
2.371009857478560967e+00
2.371009857478560967e+00
2.371009857478560967e+00
2.443199560533463544e+00
2.443199560533463544e+00
2.508264046143986459e+00
2.508264046143986459e+00
2.524577043977172419e+00
2.524577043977172419e+00
2.530577227088229186e+00
2.530577227088229186e+00
2.418448805200354101e+00
2.418448805200354101e+00
2.260381481368449741e+00
2.260381481368449741e+00
2.184254158146916147e+00
2.184254158146916147e+00
2.122939786980803767e+00
2.122939786980803767e+00
2.122939786980803767e+00
2.149378093813898438e+00
2.149378093813898438e+00
2.264319101535081202e+00
2.264319101535081202e+00
2.361447065645314147e+00
2.361447065645314147e+00
2.392948026978362286e+00
2.392948026978362286e+00
2.399698232978301426e+00
2.399698232978301426e+00
2.382447706534013054e+00
2.382447706534013054e+00
2.408135990478225352e+00
2.408135990478225352e+00
2.409823541978209693e+00
2.409823541978209693e+00
2.409823541978209693e+00
2.372697408978545752e+00
2.372697408978545752e+00
2.398010681478316641e+00
2.398010681478316641e+00
2.353571825312051669e+00
2.353571825312051669e+00
2.265069124423963132e+00
2.265069124423963132e+00
2.242568437757499922e+00
2.242568437757499922e+00
2.199629627368999252e+00
2.199629627368999252e+00
2.185191686758019003e+00
2.185191686758019003e+00
2.230755577257606870e+00
2.230755577257606870e+00
2.230755577257606870e+00
2.273694387646107540e+00
2.273694387646107540e+00
2.345509079256569152e+00
2.345509079256569152e+00
2.417698782311472172e+00
2.417698782311472172e+00
2.405135898922696747e+00
2.405135898922696747e+00
2.410948576311533031e+00
2.410948576311533031e+00
2.394260567033906106e+00
2.394260567033906106e+00
2.363134617145298488e+00
2.363134617145298488e+00
2.384135258033997840e+00
2.384135258033997840e+00
2.285132236701559627e+00
2.285132236701559627e+00
2.218755211035493335e+00
2.218755211035493335e+00
2.218755211035493335e+00
2.203942258980071234e+00
2.203942258980071234e+00
2.174128849147007880e+00
2.174128849147007880e+00
2.178066469313638454e+00
2.178066469313638454e+00
2.204504776146733125e+00
2.204504776146733125e+00
2.224005371257667729e+00
2.224005371257667729e+00
2.308195440534684284e+00
2.308195440534684284e+00
2.375134983367412023e+00
2.375134983367412023e+00
2.401385784478286212e+00
2.401385784478286212e+00
2.401385784478286212e+00
2.449762260811182202e+00
2.449762260811182202e+00
2.426699056978057101e+00
2.426699056978057101e+00
2.426511551255836618e+00
2.426511551255836618e+00
2.463450178533280521e+00
2.463450178533280521e+00
2.368384777367473326e+00
2.368384777367473326e+00
2.334633747367778511e+00
2.334633747367778511e+00
2.299382671590319838e+00
2.299382671590319838e+00
2.221755302591021497e+00
2.221755302591021497e+00
2.221755302591021497e+00
2.196442030091250608e+00
2.196442030091250608e+00
2.203942258980071234e+00
2.203942258980071234e+00
2.240318369090853690e+00
2.240318369090853690e+00
2.309132969145787140e+00
2.309132969145787140e+00
2.336883816034425188e+00
2.336883816034425188e+00
2.395948118533890892e+00
2.395948118533890892e+00
2.434761803033539618e+00
2.434761803033539618e+00
2.394260567033906106e+00
2.394260567033906106e+00
2.405135898922696747e+00
2.405135898922696747e+00
2.405135898922696747e+00
2.372697408978545752e+00
2.372697408978545752e+00
2.274069399090548504e+00
2.274069399090548504e+00
2.256256355479598685e+00
2.256256355479598685e+00
2.205254799035615054e+00
2.205254799035615054e+00
2.180316537980285130e+00
2.180316537980285130e+00
2.207317361980041248e+00
2.207317361980041248e+00
2.211817499313333268e+00
2.211817499313333268e+00
2.279319559312723342e+00
2.279319559312723342e+00
2.279319559312723342e+00
2.345696584978789634e+00
2.345696584978789634e+00
2.349071687978759204e+00
2.349071687978759204e+00
2.392948026978362286e+00
2.392948026978362286e+00
2.408323496200445835e+00
2.408323496200445835e+00
2.386572832422864110e+00
2.386572832422864110e+00
2.438511917477950597e+00
2.438511917477950597e+00
2.387885372478407930e+00
2.387885372478407930e+00
2.332383678701132279e+00
2.332383678701132279e+00
2.332383678701132279e+00
2.329008575701162709e+00
2.329008575701162709e+00
2.263944090090640238e+00
2.263944090090640238e+00
2.231505600146489243e+00
2.231505600146489243e+00
2.249318643757439062e+00
2.249318643757439062e+00
2.231693105868709726e+00
2.231693105868709726e+00
2.260756492812891150e+00
2.260756492812891150e+00
2.299382671590319838e+00
2.299382671590319838e+00
2.324508438367870244e+00
2.324508438367870244e+00
2.324508438367870244e+00
2.384885280922879769e+00
2.384885280922879769e+00
2.378697592089602519e+00
2.378697592089602519e+00
2.358446974089785542e+00
2.358446974089785542e+00
2.396323129978331856e+00
2.396323129978331856e+00
2.296007568590349823e+00
2.296007568590349823e+00
2.240130863368633207e+00
2.240130863368633207e+00
2.237880794701986531e+00
2.237880794701986531e+00
2.208254890591143660e+00
2.208254890591143660e+00
2.208254890591143660e+00
2.220630268257698603e+00
2.220630268257698603e+00
2.246318552201910457e+00
2.246318552201910457e+00
2.270694296090578934e+00
2.270694296090578934e+00
2.344196539201025331e+00
2.344196539201025331e+00
2.369509811700796664e+00
2.369509811700796664e+00
2.393885555589465142e+00
2.393885555589465142e+00
2.431199194311350009e+00
2.431199194311350009e+00
2.385072786645100695e+00
2.385072786645100695e+00
2.385072786645100695e+00
2.377760063478499664e+00
2.377760063478499664e+00
2.386947843867305519e+00
2.386947843867305519e+00
2.283819696646015807e+00
2.283819696646015807e+00
2.247631092257453833e+00
2.247631092257453833e+00
2.212942533646656607e+00
2.212942533646656607e+00
2.180504043702505612e+00
2.180504043702505612e+00
2.217067659535508550e+00
2.217067659535508550e+00
2.226817957090975852e+00
2.226817957090975852e+00
2.226817957090975852e+00
2.270319284646137969e+00
2.270319284646137969e+00
2.343634022034363884e+00
2.343634022034363884e+00
2.356384411145359792e+00
2.356384411145359792e+00
2.401760795922727176e+00
2.401760795922727176e+00
2.433636768700216724e+00
2.433636768700216724e+00
2.389760429700613198e+00
2.389760429700613198e+00
2.406823450422681532e+00
2.406823450422681532e+00
2.373822443311869090e+00
2.373822443311869090e+00
2.292069948423719250e+00
2.292069948423719250e+00
2.292819971312600735e+00
2.292819971312600735e+00
2.292819971312600735e+00
2.239193334757530351e+00
2.239193334757530351e+00
2.212567522202215642e+00
2.212567522202215642e+00
2.246506057924130939e+00
2.246506057924130939e+00
2.261506515701773079e+00
2.261506515701773079e+00
2.312508072145756710e+00
2.312508072145756710e+00
2.351321756645405436e+00
2.351321756645405436e+00
2.352446790978728330e+00
2.352446790978728330e+00
2.410386059144871140e+00
2.410386059144871140e+00
2.410386059144871140e+00
2.414511185033723084e+00
2.414511185033723084e+00
2.368197271645252844e+00
2.368197271645252844e+00
2.405135898922696747e+00
2.405135898922696747e+00
2.341946470534379099e+00
2.341946470534379099e+00
2.283632190923795324e+00
2.283632190923795324e+00
2.258693929868464956e+00
2.258693929868464956e+00
2.194191961424603932e+00
2.194191961424603932e+00
2.186691732535783306e+00
2.186691732535783306e+00
2.186691732535783306e+00
2.212192510757774677e+00
2.212192510757774677e+00
2.226442945646534444e+00
2.226442945646534444e+00
2.293382488479262626e+00
2.293382488479262626e+00
2.321320841090121156e+00
2.321320841090121156e+00
2.342508987701040546e+00
2.342508987701040546e+00
2.398385692922757606e+00
2.398385692922757606e+00
2.375322489089632505e+00
2.375322489089632505e+00
2.362947111423078006e+00
2.362947111423078006e+00
2.387697866756187448e+00
2.387697866756187448e+00
2.387697866756187448e+00
2.293569994201483109e+00
2.293569994201483109e+00
2.249693655201880027e+00
2.249693655201880027e+00
2.220442762535478121e+00
2.220442762535478121e+00
2.184629169591357556e+00
2.184629169591357556e+00
2.208067384868923178e+00
2.208067384868923178e+00
2.216880153813287624e+00
2.216880153813287624e+00
2.245943540757469048e+00
2.245943540757469048e+00
2.324320932645649762e+00
2.324320932645649762e+00
2.352071779534287366e+00
2.352071779534287366e+00
2.386010315256203107e+00
2.386010315256203107e+00
2.412261116367076408e+00
2.412261116367076408e+00
2.412261116367076408e+00
2.369697317423017147e+00
2.369697317423017147e+00
2.383010223700674501e+00
2.383010223700674501e+00
2.380385143589587305e+00
2.380385143589587305e+00
2.289069856868190644e+00
2.289069856868190644e+00
2.268256721701712220e+00
2.268256721701712220e+00
2.234505691702016961e+00
2.234505691702016961e+00
2.212380016479995160e+00
2.212380016479995160e+00
2.250443678090761956e+00
2.250443678090761956e+00
2.250443678090761956e+00
2.235818231757560781e+00
2.235818231757560781e+00
2.275006927701650916e+00
2.275006927701650916e+00
2.328258552812280335e+00
2.328258552812280335e+00
2.345321573534348669e+00
2.345321573534348669e+00
2.397823175756096159e+00
2.397823175756096159e+00
2.410386059144871140e+00
2.410386059144871140e+00
2.370634846034120002e+00
2.370634846034120002e+00
2.370634846034120002e+00
2.398948210089419053e+00
2.398948210089419053e+00
2.345696584978789634e+00
2.345696584978789634e+00
2.264881618701742649e+00
2.264881618701742649e+00
2.237880794701986531e+00
2.237880794701986531e+00
2.184066652424695665e+00
2.184066652424695665e+00
2.177128940702536042e+00
2.177128940702536042e+00
2.217442670979949515e+00
2.217442670979949515e+00
2.228880520035401602e+00
2.228880520035401602e+00
2.293382488479262626e+00
2.293382488479262626e+00
2.293382488479262626e+00
2.341758964812158617e+00
2.341758964812158617e+00
2.361072054200873183e+00
2.361072054200873183e+00
2.407385967589342979e+00
2.407385967589342979e+00
2.393135532700583212e+00
2.393135532700583212e+00
2.368384777367473326e+00
2.368384777367473326e+00
2.398573198644978088e+00
2.398573198644978088e+00
2.313633106479079604e+00
2.313633106479079604e+00
2.254568803979613900e+00
2.254568803979613900e+00
2.254568803979613900e+00
2.236193243202001746e+00
2.236193243202001746e+00
2.181254066591387542e+00
2.181254066591387542e+00
2.192504409924619146e+00
2.192504409924619146e+00
2.218567705313272853e+00
2.218567705313272853e+00
2.256818872646260132e+00
2.256818872646260132e+00
2.327508529923398850e+00
2.327508529923398850e+00
2.358446974089785542e+00
2.358446974089785542e+00
2.378510086367381593e+00
2.378510086367381593e+00
2.418448805200354101e+00
2.418448805200354101e+00
2.418448805200354101e+00
2.387322855311746483e+00
2.387322855311746483e+00
2.391072969756157018e+00
2.391072969756157018e+00
2.402885830256050514e+00
2.402885830256050514e+00
2.300507705923642732e+00
2.300507705923642732e+00
2.257006378368480615e+00
2.257006378368480615e+00
2.220817773979919085e+00
2.220817773979919085e+00
2.179754020813623683e+00
2.179754020813623683e+00
2.204504776146733125e+00
2.204504776146733125e+00
2.224567888424329176e+00
2.224567888424329176e+00
2.224567888424329176e+00
2.256631366924039650e+00
2.256631366924039650e+00
2.318695760979033516e+00
2.318695760979033516e+00
2.333321207312235135e+00
2.333321207312235135e+00
2.380010132145145896e+00
2.380010132145145896e+00
2.399698232978301426e+00
2.399698232978301426e+00
2.362572099978637485e+00
2.362572099978637485e+00
2.389572923978392716e+00
2.389572923978392716e+00
2.367072237311929506e+00
2.367072237311929506e+00
2.284757225257118218e+00
2.284757225257118218e+00
2.284757225257118218e+00
2.258881435590685438e+00
2.258881435590685438e+00
2.212942533646656607e+00
2.212942533646656607e+00
2.198692098757896396e+00
2.198692098757896396e+00
2.221755302591021497e+00
2.221755302591021497e+00
2.229818048646504014e+00
2.229818048646504014e+00
2.275194433423871843e+00
2.275194433423871843e+00
2.325070955534531691e+00
2.325070955534531691e+00
2.345321573534348669e+00
2.345321573534348669e+00
2.345321573534348669e+00
2.403823358867152926e+00
2.403823358867152926e+00
2.411886104922635443e+00
2.411886104922635443e+00
2.376260017700735361e+00
2.376260017700735361e+00
2.413011139255958781e+00
2.413011139255958781e+00
2.341008941923276243e+00
2.341008941923276243e+00
2.256256355479598685e+00
2.256256355479598685e+00
2.231318094424268317e+00
2.231318094424268317e+00
2.179379009369182274e+00
2.179379009369182274e+00
2.179379009369182274e+00
2.182191595202490397e+00
2.182191595202490397e+00
2.206004821924497428e+00
2.206004821924497428e+00
2.225317911313211550e+00
2.225317911313211550e+00
2.293757499923703591e+00
2.293757499923703591e+00
2.338196356089969008e+00
2.338196356089969008e+00
2.370072328867458111e+00
2.370072328867458111e+00
2.438886928922391562e+00
2.438886928922391562e+00
2.413011139255958781e+00
2.413011139255958781e+00
2.386197820978423145e+00
2.386197820978423145e+00
2.386197820978423145e+00
2.405135898922696747e+00
2.405135898922696747e+00
2.308195440534684284e+00
2.308195440534684284e+00
2.253443769646290562e+00
2.253443769646290562e+00
2.228693014313181120e+00
2.228693014313181120e+00
2.192504409924619146e+00
2.192504409924619146e+00
2.206192327646717910e+00
2.206192327646717910e+00
2.227380474257637299e+00
2.227380474257637299e+00
2.250443678090761956e+00
2.250443678090761956e+00
2.250443678090761956e+00
2.312695577867977192e+00
2.312695577867977192e+00
2.335571275978881367e+00
2.335571275978881367e+00
2.367072237311929506e+00
2.367072237311929506e+00
2.404948393200476264e+00
2.404948393200476264e+00
2.371572374645222414e+00
2.371572374645222414e+00
2.374384960478530537e+00
2.374384960478530537e+00
2.371759880367442896e+00
2.371759880367442896e+00
2.291319925534837321e+00
2.291319925534837321e+00
2.291319925534837321e+00
2.270506790368358452e+00
2.270506790368358452e+00
2.224192876979888212e+00
2.224192876979888212e+00
2.184441663869136629e+00
2.184441663869136629e+00
2.209942442091128445e+00
2.209942442091128445e+00
2.220817773979919085e+00
2.220817773979919085e+00
2.267319193090609808e+00
2.267319193090609808e+00
2.331821161534470832e+00
2.331821161534470832e+00
2.342508987701040546e+00
2.342508987701040546e+00
2.342508987701040546e+00
2.393885555589465142e+00
2.393885555589465142e+00
2.399135715811639535e+00
2.399135715811639535e+00
2.363134617145298488e+00
2.363134617145298488e+00
2.401010773033844803e+00
2.401010773033844803e+00
2.360697042756431774e+00
2.360697042756431774e+00
2.279507065034943825e+00
2.279507065034943825e+00
2.256256355479598685e+00
2.256256355479598685e+00
2.203754753257850751e+00
2.203754753257850751e+00
2.203754753257850751e+00
2.190816858424634361e+00
2.190816858424634361e+00
2.225505417035432032e+00
2.225505417035432032e+00
2.227942991424298746e+00
2.227942991424298746e+00
2.288694845423749680e+00
2.288694845423749680e+00
2.340446424756614796e+00
2.340446424756614796e+00
2.359196996978667915e+00
2.359196996978667915e+00
2.408511001922666317e+00
2.408511001922666317e+00
2.394073061311685624e+00
2.394073061311685624e+00
2.394073061311685624e+00
2.359196996978667915e+00
2.359196996978667915e+00
2.398385692922757606e+00
2.398385692922757606e+00
2.318883266701254442e+00
2.318883266701254442e+00
2.256818872646260132e+00
2.256818872646260132e+00
2.230755577257606870e+00
2.230755577257606870e+00
2.187629261146885273e+00
2.187629261146885273e+00
2.192129398480178182e+00
2.192129398480178182e+00
2.220630268257698603e+00
2.220630268257698603e+00
2.244631000701926116e+00
2.244631000701926116e+00
2.313070589312418157e+00
2.313070589312418157e+00
2.352071779534287366e+00
2.352071779534287366e+00
2.352071779534287366e+00
2.370259834589678594e+00
2.370259834589678594e+00
2.406635944700461049e+00
2.406635944700461049e+00
2.376447523422955843e+00
2.376447523422955843e+00
2.373634937589648164e+00
2.373634937589648164e+00
2.401010773033844803e+00
2.401010773033844803e+00
2.311383037812433372e+00
2.311383037812433372e+00
2.268819238868374111e+00
2.268819238868374111e+00
2.268819238868374111e+00
2.231130588702047834e+00
2.231130588702047834e+00
2.186129215369121415e+00
2.186129215369121415e+00
2.206754844813379357e+00
2.206754844813379357e+00
2.225130405590991067e+00
2.225130405590991067e+00
2.264131595812860720e+00
2.264131595812860720e+00
2.324508438367870244e+00
2.324508438367870244e+00
2.344759056367687222e+00
2.344759056367687222e+00
2.380572649311807787e+00
2.380572649311807787e+00
2.410761070589312105e+00
2.410761070589312105e+00
2.410761070589312105e+00
2.375509994811853431e+00
2.375509994811853431e+00
2.387697866756187448e+00
2.387697866756187448e+00
2.365572191534165203e+00
2.365572191534165203e+00
2.269569261757255596e+00
2.269569261757255596e+00
2.240505874813074172e+00
2.240505874813074172e+00
2.195879512924588717e+00
2.195879512924588717e+00
2.183691640980254700e+00
2.183691640980254700e+00
2.219880245368816230e+00
2.219880245368816230e+00
2.219880245368816230e+00
2.228693014313181120e+00
2.228693014313181120e+00
2.280819605090487201e+00
2.345509079256569152e+00
2.345509079256569152e+00
2.345509079256569152e+00
2.363322122867518971e+00
2.363322122867518971e+00
2.403448347422711961e+00
2.403448347422711961e+00
2.401385784478286212e+00
2.401385784478286212e+00
2.356009399700918827e+00
2.356009399700918827e+00
2.388822901089510786e+00
2.388822901089510786e+00
2.337446333201086635e+00
2.337446333201086635e+00
2.267319193090609808e+00
2.267319193090609808e+00
2.243693472090823260e+00
2.243693472090823260e+00
2.243693472090823260e+00
2.197004547257912055e+00
