2.209004913480026033e+00
2.194566972869045340e+00
2.194566972869045340e+00
2.194566972869045340e+00
2.217817682424390480e+00
2.217817682424390480e+00
2.217817682424390480e+00
2.217817682424390480e+00
2.207504867702261730e+00
2.207504867702261730e+00
2.207504867702261730e+00
2.258881435590685438e+00
2.258881435590685438e+00
2.258881435590685438e+00
2.317383220923490139e+00
2.317383220923490139e+00
2.317383220923490139e+00
2.317383220923490139e+00
2.344196539201025331e+00
2.344196539201025331e+00
2.344196539201025331e+00
2.400073244422742391e+00
2.400073244422742391e+00
2.400073244422742391e+00
2.407010956144902014e+00
2.407010956144902014e+00
2.407010956144902014e+00
2.407010956144902014e+00
2.368009765923032361e+00
2.368009765923032361e+00
2.368009765923032361e+00
2.412823633533738299e+00
2.412823633533738299e+00
2.412823633533738299e+00
2.352634296700948813e+00
2.352634296700948813e+00
2.352634296700948813e+00
2.352634296700948813e+00
2.288882351145970162e+00
2.288882351145970162e+00
2.288882351145970162e+00
2.277256996368297592e+00
2.277256996368297592e+00
2.277256996368297592e+00
2.277256996368297592e+00
2.231880611590930208e+00
2.231880611590930208e+00
2.231880611590930208e+00
2.227005462813196335e+00
2.227005462813196335e+00
2.227005462813196335e+00
2.250256172368541474e+00
2.250256172368541474e+00
2.250256172368541474e+00
2.250256172368541474e+00
2.261131504257332114e+00
2.261131504257332114e+00
2.261131504257332114e+00
2.320945829645680192e+00
2.320945829645680192e+00
2.320945829645680192e+00
2.347571642200994901e+00
2.347571642200994901e+00
2.347571642200994901e+00
2.347571642200994901e+00
2.339508896145511940e+00
2.339508896145511940e+00
2.339508896145511940e+00
2.378885097811823002e+00
2.378885097811823002e+00
2.378885097811823002e+00
2.367072237311929506e+00
2.367072237311929506e+00
2.367072237311929506e+00
2.367072237311929506e+00
2.363884640034180418e+00
2.363884640034180418e+00
2.363884640034180418e+00
2.391635486922818910e+00
2.391635486922818910e+00
2.391635486922818910e+00
2.296757591479232197e+00
2.296757591479232197e+00
2.296757591479232197e+00
2.296757591479232197e+00
2.249506149479659545e+00
2.249506149479659545e+00
2.249506149479659545e+00
2.233943174535355514e+00
2.233943174535355514e+00
2.195316995757927270e+00
2.195316995757927270e+00
2.195316995757927270e+00
2.216880153813287624e+00
2.216880153813287624e+00
2.216880153813287624e+00
2.216880153813287624e+00
2.243880977813043742e+00
2.243880977813043742e+00
2.243880977813043742e+00
2.268256721701712220e+00
2.268256721701712220e+00
2.268256721701712220e+00
2.268256721701712220e+00
2.311008026367992407e+00
2.311008026367992407e+00
2.311008026367992407e+00
2.327883541367839371e+00
2.327883541367839371e+00
2.327883541367839371e+00
2.364072145756401344e+00
2.364072145756401344e+00
2.364072145756401344e+00
2.364072145756401344e+00
2.409448530533769173e+00
2.409448530533769173e+00
2.409448530533769173e+00
2.377385052034058699e+00
2.377385052034058699e+00
2.377385052034058699e+00
2.385072786645100695e+00
2.385072786645100695e+00
2.385072786645100695e+00
2.385072786645100695e+00
2.376822534867396808e+00
2.376822534867396808e+00
2.376822534867396808e+00
2.283444685201574842e+00
2.283444685201574842e+00
2.283444685201574842e+00
2.249318643757439062e+00
2.249318643757439062e+00
2.249318643757439062e+00
2.199442121646778769e+00
2.199442121646778769e+00
2.199442121646778769e+00
2.199442121646778769e+00
2.186691732535783306e+00
2.186691732535783306e+00
2.186691732535783306e+00
2.234880703146458369e+00
2.234880703146458369e+00
2.234880703146458369e+00
2.262069032868434526e+00
2.262069032868434526e+00
2.262069032868434526e+00
2.303507797479171337e+00
2.303507797479171337e+00
2.303507797479171337e+00
2.303507797479171337e+00
2.350946745200964472e+00
2.350946745200964472e+00
2.350946745200964472e+00
2.358071962645344577e+00
2.358071962645344577e+00
2.358071962645344577e+00
2.400448255867183356e+00
2.400448255867183356e+00
2.400448255867183356e+00
2.400448255867183356e+00
2.403823358867152926e+00
2.403823358867152926e+00
2.403823358867152926e+00
2.357134434034241721e+00
2.357134434034241721e+00
2.357134434034241721e+00
2.384135258033997840e+00
2.384135258033997840e+00
2.384135258033997840e+00
2.384135258033997840e+00
2.366134708700827094e+00
2.366134708700827094e+00
2.366134708700827094e+00
2.288882351145970162e+00
2.288882351145970162e+00
2.288882351145970162e+00
2.257381389812921579e+00
2.257381389812921579e+00
2.257381389812921579e+00
2.257381389812921579e+00
2.181629078035828950e+00
2.181629078035828950e+00
2.181629078035828950e+00
2.164191045869319652e+00
2.164191045869319652e+00
2.164191045869319652e+00
2.222880336924344391e+00
2.222880336924344391e+00
2.222880336924344391e+00
2.222880336924344391e+00
2.238818323313089387e+00
2.238818323313089387e+00
2.238818323313089387e+00
2.291507431257057803e+00
2.291507431257057803e+00
2.291507431257057803e+00
2.328446058534500818e+00
2.328446058534500818e+00
2.328446058534500818e+00
2.328446058534500818e+00
2.351134250923184954e+00
2.351134250923184954e+00
2.351134250923184954e+00
2.402135807367168141e+00
2.402135807367168141e+00
2.402135807367168141e+00
2.389197912533951751e+00
2.389197912533951751e+00
2.389197912533951751e+00
2.389197912533951751e+00
2.369697317423017147e+00
2.369697317423017147e+00
2.369697317423017147e+00
2.415261207922605013e+00
2.415261207922605013e+00
2.415261207922605013e+00
2.337071321756645670e+00
2.337071321756645670e+00
2.337071321756645670e+00
2.337071321756645670e+00
2.292819971312600735e+00
2.292819971312600735e+00
2.292819971312600735e+00
2.265631641590625023e+00
2.265631641590625023e+00
2.265631641590625023e+00
2.215755119479964730e+00
2.215755119479964730e+00
2.215755119479964730e+00
2.215755119479964730e+00
2.229068025757622085e+00
2.229068025757622085e+00
2.229068025757622085e+00
2.257568895535142062e+00
2.257568895535142062e+00
2.257568895535142062e+00
2.269194250312814631e+00
2.269194250312814631e+00
2.269194250312814631e+00
2.269194250312814631e+00
2.305195348979155678e+00
2.305195348979155678e+00
2.305195348979155678e+00
2.318133243812372069e+00
2.318133243812372069e+00
2.318133243812372069e+00
2.341946470534379099e+00
2.341946470534379099e+00
2.341946470534379099e+00
2.341946470534379099e+00
2.395760612811670409e+00
2.395760612811670409e+00
2.395760612811670409e+00
2.375134983367412023e+00
2.375134983367412023e+00
2.375134983367412023e+00
2.363884640034180418e+00
2.363884640034180418e+00
2.363884640034180418e+00
2.363884640034180418e+00
2.381135166478469234e+00
2.381135166478469234e+00
2.381135166478469234e+00
2.299945188756981285e+00
2.299945188756981285e+00
2.299945188756981285e+00
2.299945188756981285e+00
2.251568712424085295e+00
2.251568712424085295e+00
2.251568712424085295e+00
2.207129856257820322e+00
2.207129856257820322e+00
2.207129856257820322e+00
2.179191503646961792e+00
2.179191503646961792e+00
2.179191503646961792e+00
2.208442396313364142e+00
2.208442396313364142e+00
2.208442396313364142e+00
2.208442396313364142e+00
2.224567888424329176e+00
2.224567888424329176e+00
2.224567888424329176e+00
2.276694479201635701e+00
2.276694479201635701e+00
2.276694479201635701e+00
2.344196539201025331e+00
2.344196539201025331e+00
2.344196539201025331e+00
2.344196539201025331e+00
2.364259651478621826e+00
2.364259651478621826e+00
2.364259651478621826e+00
2.405698416089358194e+00
2.405698416089358194e+00
2.405698416089358194e+00
2.427449079866939474e+00
2.427449079866939474e+00
2.427449079866939474e+00
2.427449079866939474e+00
2.384510269478438804e+00
2.384510269478438804e+00
2.384510269478438804e+00
2.402885830256050514e+00
2.402885830256050514e+00
2.402885830256050514e+00
2.369884823145237629e+00
2.369884823145237629e+00
2.369884823145237629e+00
2.369884823145237629e+00
2.284194708090456771e+00
2.284194708090456771e+00
2.284194708090456771e+00
2.250443678090761956e+00
2.250443678090761956e+00
2.250443678090761956e+00
2.208817407757805107e+00
2.208817407757805107e+00
2.208817407757805107e+00
2.208817407757805107e+00
2.192504409924619146e+00
2.192504409924619146e+00
2.192504409924619146e+00
2.225505417035432032e+00
2.225505417035432032e+00
2.225505417035432032e+00
2.233568163090914993e+00
2.233568163090914993e+00
2.233568163090914993e+00
2.233568163090914993e+00
2.289257362590411127e+00
2.289257362590411127e+00
2.289257362590411127e+00
2.337071321756645670e+00
2.337071321756645670e+00
2.337071321756645670e+00
2.357696951200903612e+00
2.357696951200903612e+00
2.357696951200903612e+00
2.357696951200903612e+00
2.401385784478286212e+00
2.401385784478286212e+00
2.401385784478286212e+00
2.398010681478316641e+00
2.398010681478316641e+00
2.398010681478316641e+00
2.354884365367595489e+00
2.354884365367595489e+00
2.354884365367595489e+00
2.354884365367595489e+00
2.393323038422803695e+00
2.393323038422803695e+00
2.393323038422803695e+00
2.334821253089998994e+00
2.334821253089998994e+00
2.334821253089998994e+00
2.334821253089998994e+00
2.268069215979491737e+00
2.268069215979491737e+00
2.268069215979491737e+00
2.250068666646320992e+00
2.250068666646320992e+00
2.250068666646320992e+00
2.191941892757957699e+00
2.191941892757957699e+00
2.191941892757957699e+00
2.191941892757957699e+00
2.182566606646931362e+00
2.182566606646931362e+00
2.182566606646931362e+00
2.201504684591204519e+00
2.201504684591204519e+00
2.201504684591204519e+00
2.230943082979827352e+00
2.230943082979827352e+00
2.230943082979827352e+00
2.230943082979827352e+00
2.286819788201544412e+00
2.286819788201544412e+00
2.286819788201544412e+00
2.364447157200842309e+00
2.364447157200842309e+00
2.364447157200842309e+00
2.385072786645100695e+00
2.385072786645100695e+00
2.385072786645100695e+00
2.385072786645100695e+00
2.430074159978026671e+00
2.430074159978026671e+00
2.430074159978026671e+00
2.399323221533860018e+00
2.399323221533860018e+00
2.399323221533860018e+00
2.387135349589526001e+00
2.387135349589526001e+00
2.387135349589526001e+00
2.387135349589526001e+00
2.407573473311563461e+00
2.407573473311563461e+00
2.407573473311563461e+00
2.301632740256966070e+00
2.301632740256966070e+00
2.301632740256966070e+00
2.242943449201941331e+00
2.242943449201941331e+00
2.242943449201941331e+00
2.242943449201941331e+00
2.211254982146671821e+00
2.211254982146671821e+00
2.211254982146671821e+00
2.173003814813684542e+00
2.173003814813684542e+00
2.173003814813684542e+00
2.201692190313425002e+00
2.201692190313425002e+00
2.201692190313425002e+00
2.201692190313425002e+00
2.232068117313150690e+00
2.232068117313150690e+00
2.232068117313150690e+00
2.253256263924070080e+00
2.253256263924070080e+00
2.253256263924070080e+00
2.321883358256782603e+00
2.321883358256782603e+00
2.321883358256782603e+00
2.321883358256782603e+00
2.365009674367503756e+00
2.365009674367503756e+00
2.365009674367503756e+00
2.394823084200567997e+00
2.394823084200567997e+00
2.394823084200567997e+00
2.430261665700247153e+00
2.430261665700247153e+00
2.430261665700247153e+00
2.430261665700247153e+00
2.396323129978331856e+00
2.396323129978331856e+00
2.396323129978331856e+00
2.392198004089480357e+00
2.392198004089480357e+00
2.392198004089480357e+00
2.383385235145115466e+00
2.383385235145115466e+00
2.383385235145115466e+00
2.383385235145115466e+00
2.296757591479232197e+00
2.296757591479232197e+00
2.296757591479232197e+00
2.261131504257332114e+00
2.261131504257332114e+00
2.261131504257332114e+00
2.203192236091189304e+00
2.203192236091189304e+00
2.203192236091189304e+00
2.203192236091189304e+00
2.170003723258155937e+00
2.170003723258155937e+00
2.170003723258155937e+00
2.199817133091219734e+00
2.199817133091219734e+00
2.199817133091219734e+00
2.215567613757744247e+00
2.215567613757744247e+00
2.215567613757744247e+00
2.215567613757744247e+00
2.263569078646198829e+00
2.263569078646198829e+00
2.263569078646198829e+00
2.321320841090121156e+00
2.321320841090121156e+00
2.321320841090121156e+00
2.334071230201117064e+00
2.334071230201117064e+00
2.334071230201117064e+00
2.334071230201117064e+00
2.387135349589526001e+00
2.387135349589526001e+00
2.387135349589526001e+00
2.396510635700552783e+00
2.396510635700552783e+00
2.396510635700552783e+00
2.360134525589770327e+00
2.360134525589770327e+00
2.360134525589770327e+00
2.360134525589770327e+00
2.396323129978331856e+00
2.396323129978331856e+00
2.396323129978331856e+00
2.355446882534256936e+00
2.355446882534256936e+00
2.355446882534256936e+00
2.355446882534256936e+00
2.273131870479445649e+00
2.273131870479445649e+00
2.273131870479445649e+00
2.260381481368449741e+00
2.260381481368449741e+00
2.260381481368449741e+00
2.209942442091128445e+00
2.209942442091128445e+00
2.209942442091128445e+00
2.209942442091128445e+00
2.210692464980010374e+00
2.210692464980010374e+00
2.210692464980010374e+00
2.242193426313058957e+00
2.242193426313058957e+00
2.242193426313058957e+00
2.245381023590808045e+00
2.245381023590808045e+00
2.245381023590808045e+00
2.245381023590808045e+00
2.287007293923764895e+00
2.287007293923764895e+00
2.287007293923764895e+00
2.335758781701101849e+00
2.335758781701101849e+00
2.335758781701101849e+00
2.364259651478621826e+00
2.364259651478621826e+00
2.364259651478621826e+00
2.364259651478621826e+00
2.422761436811426083e+00
2.422761436811426083e+00
2.422761436811426083e+00
2.416011230811487387e+00
2.416011230811487387e+00
2.416011230811487387e+00
2.377010040589617734e+00
2.377010040589617734e+00
2.377010040589617734e+00
2.377010040589617734e+00
2.390885464033936536e+00
2.390885464033936536e+00
2.390885464033936536e+00
2.310070497756889552e+00
2.310070497756889552e+00
2.310070497756889552e+00
2.254756309701834383e+00
2.254756309701834383e+00
2.254756309701834383e+00
2.254756309701834383e+00
2.238630817590868904e+00
2.238630817590868904e+00
2.238630817590868904e+00
2.194379467146824858e+00
2.194379467146824858e+00
2.194379467146824858e+00
2.195879512924588717e+00
2.195879512924588717e+00
2.195879512924588717e+00
2.219692739646595747e+00
2.219692739646595747e+00
2.219692739646595747e+00
2.244068483535264225e+00
2.244068483535264225e+00
2.244068483535264225e+00
2.244068483535264225e+00
2.293945005645924073e+00
2.293945005645924073e+00
2.293945005645924073e+00
2.303507797479171337e+00
2.303507797479171337e+00
2.303507797479171337e+00
2.303507797479171337e+00
2.333883724478896582e+00
2.333883724478896582e+00
2.333883724478896582e+00
2.377385052034058699e+00
2.377385052034058699e+00
2.377385052034058699e+00
2.365947202978606612e+00
2.365947202978606612e+00
2.365947202978606612e+00
2.365947202978606612e+00
2.379635120700704931e+00
2.379635120700704931e+00
2.379635120700704931e+00
2.418636310922574584e+00
2.418636310922574584e+00
2.418636310922574584e+00
2.333508713034455617e+00
2.333508713034455617e+00
2.333508713034455617e+00
2.333508713034455617e+00
2.290007385479293500e+00
2.290007385479293500e+00
2.290007385479293500e+00
2.248193609424115724e+00
2.248193609424115724e+00
2.248193609424115724e+00
2.193629444257942485e+00
2.193629444257942485e+00
2.193629444257942485e+00
2.193629444257942485e+00
2.211067476424451339e+00
2.211067476424451339e+00
2.211067476424451339e+00
2.228318002868740155e+00
2.228318002868740155e+00
2.228318002868740155e+00
2.228318002868740155e+00
2.253443769646290562e+00
2.253443769646290562e+00
2.253443769646290562e+00
2.314758140812402942e+00
2.314758140812402942e+00
2.314758140812402942e+00
2.325070955534531691e+00
2.325070955534531691e+00
2.325070955534531691e+00
2.325070955534531691e+00
2.372322397534104788e+00
2.372322397534104788e+00
2.372322397534104788e+00
2.399510727256080500e+00
2.399510727256080500e+00
2.399510727256080500e+00
2.368384777367473326e+00
2.368384777367473326e+00
2.368384777367473326e+00
2.368384777367473326e+00
2.386010315256203107e+00
2.386010315256203107e+00
2.386010315256203107e+00
2.361634571367534630e+00
2.361634571367534630e+00
2.361634571367534630e+00
2.277819513534959039e+00
2.277819513534959039e+00
2.277819513534959039e+00
2.277819513534959039e+00
2.263194067201757864e+00
2.263194067201757864e+00
2.263194067201757864e+00
2.221192785424360050e+00
2.221192785424360050e+00
2.221192785424360050e+00
2.189504318369090985e+00
2.189504318369090985e+00
2.189504318369090985e+00
2.189504318369090985e+00
2.215567613757744247e+00
2.215567613757744247e+00
2.215567613757744247e+00
2.224567888424329176e+00
2.224567888424329176e+00
2.224567888424329176e+00
2.272944364757225166e+00
2.272944364757225166e+00
2.272944364757225166e+00
2.272944364757225166e+00
2.345321573534348669e+00
2.345321573534348669e+00
2.345321573534348669e+00
2.373822443311869090e+00
2.373822443311869090e+00
2.373822443311869090e+00
2.429324137089144742e+00
2.429324137089144742e+00
2.429324137089144742e+00
2.429324137089144742e+00
2.413011139255958781e+00
2.413011139255958781e+00
2.413011139255958781e+00
2.369697317423017147e+00
2.369697317423017147e+00
2.369697317423017147e+00
2.369697317423017147e+00
2.397823175756096159e+00
2.397823175756096159e+00
2.397823175756096159e+00
2.336696310312204705e+00
2.336696310312204705e+00
2.336696310312204705e+00
2.251006195257423848e+00
2.251006195257423848e+00
2.251006195257423848e+00
2.251006195257423848e+00
2.225692922757652514e+00
2.225692922757652514e+00
2.225692922757652514e+00
2.181066560869167059e+00
2.181066560869167059e+00
2.181066560869167059e+00
2.180691549424726094e+00
2.180691549424726094e+00
2.180691549424726094e+00
2.215755119479964730e+00
2.215755119479964730e+00
2.215755119479964730e+00
2.237130771813104602e+00
2.237130771813104602e+00
2.237130771813104602e+00
2.237130771813104602e+00
2.302945280312509890e+00
2.302945280312509890e+00
2.302945280312509890e+00
2.341571459089938134e+00
2.341571459089938134e+00
2.341571459089938134e+00
2.341571459089938134e+00
2.360134525589770327e+00
2.360134525589770327e+00
2.360134525589770327e+00
2.411511093478194478e+00
2.411511093478194478e+00
2.411511093478194478e+00
2.400448255867183356e+00
2.400448255867183356e+00
2.400448255867183356e+00
2.400448255867183356e+00
2.371759880367442896e+00
2.371759880367442896e+00
2.371759880367442896e+00
2.396135624256111374e+00
2.396135624256111374e+00
2.396135624256111374e+00
2.313445600756859122e+00
2.313445600756859122e+00
2.313445600756859122e+00
2.313445600756859122e+00
2.254381298257393418e+00
2.254381298257393418e+00
2.254381298257393418e+00
2.230943082979827352e+00
2.230943082979827352e+00
2.230943082979827352e+00
2.197379558702353020e+00
2.197379558702353020e+00
2.197379558702353020e+00
2.197379558702353020e+00
2.200192144535660699e+00
2.200192144535660699e+00
2.200192144535660699e+00
2.231880611590930208e+00
2.231880611590930208e+00
2.231880611590930208e+00
2.265819147312845505e+00
2.265819147312845505e+00
2.265819147312845505e+00
2.265819147312845505e+00
2.333508713034455617e+00
2.333508713034455617e+00
2.333508713034455617e+00
2.350384228034303025e+00
2.350384228034303025e+00
2.350384228034303025e+00
2.370822351756340485e+00
2.370822351756340485e+00
2.370822351756340485e+00
2.401010773033844803e+00
2.401010773033844803e+00
2.401010773033844803e+00
2.369509811700796664e+00
2.369509811700796664e+00
2.369509811700796664e+00
2.369509811700796664e+00
2.382635212256233537e+00
2.382635212256233537e+00
2.382635212256233537e+00
2.383947752311777357e+00
2.383947752311777357e+00
2.383947752311777357e+00
2.298820154423657947e+00
2.298820154423657947e+00
2.298820154423657947e+00
2.298820154423657947e+00
2.256443861201819168e+00
2.256443861201819168e+00
2.256443861201819168e+00
2.208817407757805107e+00
2.208817407757805107e+00
2.208817407757805107e+00
2.168316171758171151e+00
2.168316171758171151e+00
2.168316171758171151e+00
2.168316171758171151e+00
2.196067018646809643e+00
2.196067018646809643e+00
2.196067018646809643e+00
2.227567979979857782e+00
2.227567979979857782e+00
2.227567979979857782e+00
2.272756859035004684e+00
2.272756859035004684e+00
2.272756859035004684e+00
2.272756859035004684e+00
2.326758507034516477e+00
2.326758507034516477e+00
2.326758507034516477e+00
2.340446424756614796e+00
2.340446424756614796e+00
2.340446424756614796e+00
2.340446424756614796e+00
2.381697683645130681e+00
2.381697683645130681e+00
2.381697683645130681e+00
2.393698049867244659e+00
2.393698049867244659e+00
2.393698049867244659e+00
2.354509353923154524e+00
2.354509353923154524e+00
2.354509353923154524e+00
2.354509353923154524e+00
2.383385235145115466e+00
2.383385235145115466e+00
2.383385235145115466e+00
2.341008941923276243e+00
2.341008941923276243e+00
2.341008941923276243e+00
2.269006744590594149e+00
2.269006744590594149e+00
2.269006744590594149e+00
2.269006744590594149e+00
2.247068575090792386e+00
2.247068575090792386e+00
2.247068575090792386e+00
2.201317178868984037e+00
2.201317178868984037e+00
2.201317178868984037e+00
2.180504043702505612e+00
2.180504043702505612e+00
2.180504043702505612e+00
2.225692922757652514e+00
2.225692922757652514e+00
2.225692922757652514e+00
2.230568071535386387e+00
2.230568071535386387e+00
2.230568071535386387e+00
2.230568071535386387e+00
2.292069948423719250e+00
2.292069948423719250e+00
2.292069948423719250e+00
2.343821527756584366e+00
2.343821527756584366e+00
2.343821527756584366e+00
2.370634846034120002e+00
2.370634846034120002e+00
2.370634846034120002e+00
2.370634846034120002e+00
2.422386425366985119e+00
2.422386425366985119e+00
2.422386425366985119e+00
2.425761528366954689e+00
2.425761528366954689e+00
2.425761528366954689e+00
2.425761528366954689e+00
2.404010864589373409e+00
2.404010864589373409e+00
2.404010864589373409e+00
2.435699331644642474e+00
2.435699331644642474e+00
2.435699331644642474e+00
2.350009216589862060e+00
2.350009216589862060e+00
2.350009216589862060e+00
2.350009216589862060e+00
2.286257271034882521e+00
2.286257271034882521e+00
2.286257271034882521e+00
2.245381023590808045e+00
2.245381023590808045e+00
2.245381023590808045e+00
2.189129306924649576e+00
2.189129306924649576e+00
2.189129306924649576e+00
2.189129306924649576e+00
2.193066927091281038e+00
2.193066927091281038e+00
2.193066927091281038e+00
2.210879970702230857e+00
2.210879970702230857e+00
2.210879970702230857e+00
2.231130588702047834e+00
2.231130588702047834e+00
2.231130588702047834e+00
2.231130588702047834e+00
2.302945280312509890e+00
2.302945280312509890e+00
2.302945280312509890e+00
2.337258827478866152e+00
2.337258827478866152e+00
2.337258827478866152e+00
2.363134617145298488e+00
2.363134617145298488e+00
2.363134617145298488e+00
2.363134617145298488e+00
2.412636127811517817e+00
2.412636127811517817e+00
2.412636127811517817e+00
2.391072969756157018e+00
2.391072969756157018e+00
2.391072969756157018e+00
2.391260475478377501e+00
2.391260475478377501e+00
2.391260475478377501e+00
2.391260475478377501e+00
2.415823725089266905e+00
2.415823725089266905e+00
2.415823725089266905e+00
2.324320932645649762e+00
2.324320932645649762e+00
2.324320932645649762e+00
2.279132053590502860e+00
2.279132053590502860e+00
2.279132053590502860e+00
2.279132053590502860e+00
2.236568254646443155e+00
2.236568254646443155e+00
2.236568254646443155e+00
2.192691915646840073e+00
2.192691915646840073e+00
2.192691915646840073e+00
2.195879512924588717e+00
2.195879512924588717e+00
2.195879512924588717e+00
2.195879512924588717e+00
2.209192419202246516e+00
2.209192419202246516e+00
2.209192419202246516e+00
2.245943540757469048e+00
2.245943540757469048e+00
2.245943540757469048e+00
2.305570360423596643e+00
2.305570360423596643e+00
2.305570360423596643e+00
2.305570360423596643e+00
2.335196264534440402e+00
2.335196264534440402e+00
2.335196264534440402e+00
2.371384868923001932e+00
2.371384868923001932e+00
2.371384868923001932e+00
2.387322855311746483e+00
2.387322855311746483e+00
2.387322855311746483e+00
2.387322855311746483e+00
2.346071596423230599e+00
2.346071596423230599e+00
2.346071596423230599e+00
2.379635120700704931e+00
2.379635120700704931e+00
2.379635120700704931e+00
2.355259376812036454e+00
2.355259376812036454e+00
2.355259376812036454e+00
2.355259376812036454e+00
2.269194250312814631e+00
2.269194250312814631e+00
2.269194250312814631e+00
2.244631000701926116e+00
2.244631000701926116e+00
2.244631000701926116e+00
2.207129856257820322e+00
2.207129856257820322e+00
2.207129856257820322e+00
2.207129856257820322e+00
2.208067384868923178e+00
2.208067384868923178e+00
2.208067384868923178e+00
2.239755851924192243e+00
2.239755851924192243e+00
2.239755851924192243e+00
2.236005737479781263e+00
2.236005737479781263e+00
2.236005737479781263e+00
2.276694479201635701e+00
2.276694479201635701e+00
2.276694479201635701e+00
2.276694479201635701e+00
2.319820795312356854e+00
2.319820795312356854e+00
2.319820795312356854e+00
2.331071138645588459e+00
2.331071138645588459e+00
2.331071138645588459e+00
2.390135441145054607e+00
2.390135441145054607e+00
2.390135441145054607e+00
2.390135441145054607e+00
2.406635944700461049e+00
2.406635944700461049e+00
2.406635944700461049e+00
2.374384960478530537e+00
2.374384960478530537e+00
2.374384960478530537e+00
2.374384960478530537e+00
2.401385784478286212e+00
2.401385784478286212e+00
2.401385784478286212e+00
2.343446516312143402e+00
2.343446516312143402e+00
2.343446516312143402e+00
2.273319376201666131e+00
2.273319376201666131e+00
2.273319376201666131e+00
2.273319376201666131e+00
2.244068483535264225e+00
2.244068483535264225e+00
2.244068483535264225e+00
2.195129490035706787e+00
2.195129490035706787e+00
2.195129490035706787e+00
2.190066835535752432e+00
2.190066835535752432e+00
2.190066835535752432e+00
2.190066835535752432e+00
2.219130222479934300e+00
2.219130222479934300e+00
2.219130222479934300e+00
2.236568254646443155e+00
2.236568254646443155e+00
2.236568254646443155e+00
2.290757408368175430e+00
2.290757408368175430e+00
2.290757408368175430e+00
2.290757408368175430e+00
2.340071413312173831e+00
2.340071413312173831e+00
2.340071413312173831e+00
2.361072054200873183e+00
2.361072054200873183e+00
2.361072054200873183e+00
2.404760887478255782e+00
2.404760887478255782e+00
2.404760887478255782e+00
2.404760887478255782e+00
2.399135715811639535e+00
2.399135715811639535e+00
2.399135715811639535e+00
2.366697225867488541e+00
2.366697225867488541e+00
2.366697225867488541e+00
2.392760521256141804e+00
2.392760521256141804e+00
2.392760521256141804e+00
2.392760521256141804e+00
2.309132969145787140e+00
2.309132969145787140e+00
2.309132969145787140e+00
2.254006286812952009e+00
2.254006286812952009e+00
2.254006286812952009e+00
2.229255531479842567e+00
2.229255531479842567e+00
2.229255531479842567e+00
2.229255531479842567e+00
2.190629352702413879e+00
2.190629352702413879e+00
2.190629352702413879e+00
2.208067384868923178e+00
2.208067384868923178e+00
2.208067384868923178e+00
2.227380474257637299e+00
2.227380474257637299e+00
2.227380474257637299e+00
2.227380474257637299e+00
2.244255989257484707e+00
2.244255989257484707e+00
2.244255989257484707e+00
2.304070314645832784e+00
2.304070314645832784e+00
2.304070314645832784e+00
2.304070314645832784e+00
2.324320932645649762e+00
2.324320932645649762e+00
2.324320932645649762e+00
2.359009491256446989e+00
2.359009491256446989e+00
2.359009491256446989e+00
2.396323129978331856e+00
2.396323129978331856e+00
2.396323129978331856e+00
2.396323129978331856e+00
2.356384411145359792e+00
2.356384411145359792e+00
2.356384411145359792e+00
2.368197271645252844e+00
2.368197271645252844e+00
2.368197271645252844e+00
2.393323038422803695e+00
2.393323038422803695e+00
2.393323038422803695e+00
2.393323038422803695e+00
2.313258095034638639e+00
2.313258095034638639e+00
2.313258095034638639e+00
2.279507065034943825e+00
2.279507065034943825e+00
2.279507065034943825e+00
2.230380565813165905e+00
2.230380565813165905e+00
2.230380565813165905e+00
2.197379558702353020e+00
2.197379558702353020e+00
2.197379558702353020e+00
2.221005279702139568e+00
2.221005279702139568e+00
2.221005279702139568e+00
2.234130680257575996e+00
2.234130680257575996e+00
2.234130680257575996e+00
2.234130680257575996e+00
2.284007202368236289e+00
2.284007202368236289e+00
2.284007202368236289e+00
2.355071871089815971e+00
2.355071871089815971e+00
2.355071871089815971e+00
2.376072511978514878e+00
2.376072511978514878e+00
2.376072511978514878e+00
2.376072511978514878e+00
2.400448255867183356e+00
2.400448255867183356e+00
2.400448255867183356e+00
2.407198461867122496e+00
2.407198461867122496e+00
2.407198461867122496e+00
2.360697042756431774e+00
2.360697042756431774e+00
2.360697042756431774e+00
2.360697042756431774e+00
2.388072878200628413e+00
2.388072878200628413e+00
2.388072878200628413e+00
2.347571642200994901e+00
2.347571642200994901e+00
2.347571642200994901e+00
2.270319284646137969e+00
2.270319284646137969e+00
2.270319284646137969e+00
2.270319284646137969e+00
2.252318735312967224e+00
2.252318735312967224e+00
2.252318735312967224e+00
2.215380108035523765e+00
2.215380108035523765e+00
2.215380108035523765e+00
2.215380108035523765e+00
2.209192419202246516e+00
2.209192419202246516e+00
2.209192419202246516e+00
2.242380932035279439e+00
2.242380932035279439e+00
2.242380932035279439e+00
2.254756309701834383e+00
2.254756309701834383e+00
2.254756309701834383e+00
2.254756309701834383e+00
2.291507431257057803e+00
2.291507431257057803e+00
2.291507431257057803e+00
2.326195989867855030e+00
2.326195989867855030e+00
2.326195989867855030e+00
2.327883541367839371e+00
2.327883541367839371e+00
2.327883541367839371e+00
2.327883541367839371e+00
2.377385052034058699e+00
2.377385052034058699e+00
2.377385052034058699e+00
2.380010132145145896e+00
2.380010132145145896e+00
2.380010132145145896e+00
2.362759605700857524e+00
2.362759605700857524e+00
2.362759605700857524e+00
2.362759605700857524e+00
2.403635853144932444e+00
2.403635853144932444e+00
2.403635853144932444e+00
2.334821253089998994e+00
2.334821253089998994e+00
2.334821253089998994e+00
2.276319467757194737e+00
2.276319467757194737e+00
2.276319467757194737e+00
2.276319467757194737e+00
2.250443678090761956e+00
2.250443678090761956e+00
2.250443678090761956e+00
2.194191961424603932e+00
2.194191961424603932e+00
2.194191961424603932e+00
2.172066286202582130e+00
2.172066286202582130e+00
2.172066286202582130e+00
2.172066286202582130e+00
2.183504135258034218e+00
2.183504135258034218e+00
2.183504135258034218e+00
2.222505325479903426e+00
2.222505325479903426e+00
2.222505325479903426e+00
2.305570360423596643e+00
2.305570360423596643e+00
2.305570360423596643e+00
2.305570360423596643e+00
2.354509353923154524e+00
2.354509353923154524e+00
2.354509353923154524e+00
2.365384685811944721e+00
2.365384685811944721e+00
2.365384685811944721e+00
2.404198370311593891e+00
2.404198370311593891e+00
2.404198370311593891e+00
2.404198370311593891e+00
2.396698141422773265e+00
2.396698141422773265e+00
2.396698141422773265e+00
2.387697866756187448e+00
2.387697866756187448e+00
2.387697866756187448e+00
2.397260658589434712e+00
2.397260658589434712e+00
2.397260658589434712e+00
2.397260658589434712e+00
2.313445600756859122e+00
2.313445600756859122e+00
2.313445600756859122e+00
2.280819605090487201e+00
2.280819605090487201e+00
2.280819605090487201e+00
2.237505783257545566e+00
2.237505783257545566e+00
2.237505783257545566e+00
2.237505783257545566e+00
2.185379192480239485e+00
2.185379192480239485e+00
2.185379192480239485e+00
2.199817133091219734e+00
2.199817133091219734e+00
2.199817133091219734e+00
2.215192602313302839e+00
2.215192602313302839e+00
2.215192602313302839e+00
2.215192602313302839e+00
2.234130680257575996e+00
2.234130680257575996e+00
2.234130680257575996e+00
2.300132694479201767e+00
2.300132694479201767e+00
2.300132694479201767e+00
2.333696218756676100e+00
2.333696218756676100e+00
2.333696218756676100e+00
2.333696218756676100e+00
2.385447798089541660e+00
2.385447798089541660e+00
2.385447798089541660e+00
2.418823816644795066e+00
2.418823816644795066e+00
2.418823816644795066e+00
2.396885647144993747e+00
2.396885647144993747e+00
2.396885647144993747e+00
2.396885647144993747e+00
2.421823908200323228e+00
2.421823908200323228e+00
2.421823908200323228e+00
2.408135990478225352e+00
2.408135990478225352e+00
2.408135990478225352e+00
2.306320383312479017e+00
2.306320383312479017e+00
2.306320383312479017e+00
2.306320383312479017e+00
2.272756859035004684e+00
2.272756859035004684e+00
2.272756859035004684e+00
2.222130314035462462e+00
2.222130314035462462e+00
2.222130314035462462e+00
2.222130314035462462e+00
2.189879329813531950e+00
2.189879329813531950e+00
2.189879329813531950e+00
2.199067110202337361e+00
2.199067110202337361e+00
2.199067110202337361e+00
2.216692648091067142e+00
2.216692648091067142e+00
2.216692648091067142e+00
2.216692648091067142e+00
2.274444410534989469e+00
2.274444410534989469e+00
2.274444410534989469e+00
2.330133610034486047e+00
2.330133610034486047e+00
2.330133610034486047e+00
2.344759056367687222e+00
2.344759056367687222e+00
2.344759056367687222e+00
2.344759056367687222e+00
2.398573198644978088e+00
2.398573198644978088e+00
2.398573198644978088e+00
2.401385784478286212e+00
2.401385784478286212e+00
2.401385784478286212e+00
2.373259926145207199e+00
2.373259926145207199e+00
2.373259926145207199e+00
2.373259926145207199e+00
2.405510910367137711e+00
2.405510910367137711e+00
2.405510910367137711e+00
2.344946562089907705e+00
2.344946562089907705e+00
2.344946562089907705e+00
2.265069124423963132e+00
2.265069124423963132e+00
2.265069124423963132e+00
2.265069124423963132e+00
2.236005737479781263e+00
2.236005737479781263e+00
2.236005737479781263e+00
2.185191686758019003e+00
2.185191686758019003e+00
2.185191686758019003e+00
2.191004364146854844e+00
2.191004364146854844e+00
2.191004364146854844e+00
2.191004364146854844e+00
2.215942625202185212e+00
2.215942625202185212e+00
2.215942625202185212e+00
2.245006012146367080e+00
2.245006012146367080e+00
2.245006012146367080e+00
2.290569902645954947e+00
2.290569902645954947e+00
2.290569902645954947e+00
2.290569902645954947e+00
2.321320841090121156e+00
2.321320841090121156e+00
2.321320841090121156e+00
2.330133610034486047e+00
2.330133610034486047e+00
2.330133610034486047e+00
2.394448072756126589e+00
2.394448072756126589e+00
2.394448072756126589e+00
2.394448072756126589e+00
2.396698141422773265e+00
2.396698141422773265e+00
2.396698141422773265e+00
2.364072145756401344e+00
2.364072145756401344e+00
2.364072145756401344e+00
2.400635761589403838e+00
2.400635761589403838e+00
2.400635761589403838e+00
2.400635761589403838e+00
2.321133335367900674e+00
2.321133335367900674e+00
2.321133335367900674e+00
2.262444044312875935e+00
2.262444044312875935e+00
2.262444044312875935e+00
2.262444044312875935e+00
2.227942991424298746e+00
2.227942991424298746e+00
2.227942991424298746e+00
2.198317087313455875e+00
2.198317087313455875e+00
2.198317087313455875e+00
2.199067110202337361e+00
2.199067110202337361e+00
2.199067110202337361e+00
2.223630359813226764e+00
2.223630359813226764e+00
2.223630359813226764e+00
2.252131229590746742e+00
2.252131229590746742e+00
2.252131229590746742e+00
2.252131229590746742e+00
2.310070497756889552e+00
2.310070497756889552e+00
2.310070497756889552e+00
2.351884273812066883e+00
2.351884273812066883e+00
2.351884273812066883e+00
2.381885189367351607e+00
2.381885189367351607e+00
2.381885189367351607e+00
2.381885189367351607e+00
2.414323679311502602e+00
2.414323679311502602e+00
2.414323679311502602e+00
2.372884914700766235e+00
2.372884914700766235e+00
2.372884914700766235e+00
2.372884914700766235e+00
2.365197180089724238e+00
2.365197180089724238e+00
2.365197180089724238e+00
2.378885097811823002e+00
2.378885097811823002e+00
2.378885097811823002e+00
2.304257820368053267e+00
2.304257820368053267e+00
2.304257820368053267e+00
2.304257820368053267e+00
2.264694112979522167e+00
2.264694112979522167e+00
2.264694112979522167e+00
2.216880153813287624e+00
2.216880153813287624e+00
2.216880153813287624e+00
2.185941709646900932e+00
2.185941709646900932e+00
2.185941709646900932e+00
2.185941709646900932e+00
2.209754936368907963e+00
2.209754936368907963e+00
2.209754936368907963e+00
2.235255714590899334e+00
2.235255714590899334e+00
2.235255714590899334e+00
2.274631916257209951e+00
2.274631916257209951e+00
2.274631916257209951e+00
2.274631916257209951e+00
2.331633655812249906e+00
2.331633655812249906e+00
2.331633655812249906e+00
2.349071687978759204e+00
2.349071687978759204e+00
2.349071687978759204e+00
2.388072878200628413e+00
2.388072878200628413e+00
2.388072878200628413e+00
2.388072878200628413e+00
2.409261024811548246e+00
2.409261024811548246e+00
2.409261024811548246e+00
2.366322214423047576e+00
2.366322214423047576e+00
2.366322214423047576e+00
2.399885738700521909e+00
2.399885738700521909e+00
2.399885738700521909e+00
2.399885738700521909e+00
2.361259559923093665e+00
2.361259559923093665e+00
2.361259559923093665e+00
2.276131962034974254e+00
2.276131962034974254e+00
2.276131962034974254e+00
2.252506241035188150e+00
2.252506241035188150e+00
2.252506241035188150e+00
2.252506241035188150e+00
2.204692281868953607e+00
2.204692281868953607e+00
2.204692281868953607e+00
2.179003997924741309e+00
2.179003997924741309e+00
2.179003997924741309e+00
2.208629902035584625e+00
2.208629902035584625e+00
2.208629902035584625e+00
2.208629902035584625e+00
2.224005371257667729e+00
2.224005371257667729e+00
2.224005371257667729e+00
2.283444685201574842e+00
2.283444685201574842e+00
2.283444685201574842e+00
2.283444685201574842e+00
2.332383678701132279e+00
2.332383678701132279e+00
2.332383678701132279e+00
2.340633930478835278e+00
2.340633930478835278e+00
2.340633930478835278e+00
2.385447798089541660e+00
2.385447798089541660e+00
2.385447798089541660e+00
2.385447798089541660e+00
2.383197729422894984e+00
2.383197729422894984e+00
2.383197729422894984e+00
2.364072145756401344e+00
2.364072145756401344e+00
2.364072145756401344e+00
2.423136448255867048e+00
2.423136448255867048e+00
2.423136448255867048e+00
2.423136448255867048e+00
2.363134617145298488e+00
2.363134617145298488e+00
2.363134617145298488e+00
2.314758140812402942e+00
2.314758140812402942e+00
2.314758140812402942e+00
2.277819513534959039e+00
2.277819513534959039e+00
2.277819513534959039e+00
2.277819513534959039e+00
2.213692556535538980e+00
2.213692556535538980e+00
2.213692556535538980e+00
2.199442121646778769e+00
2.199442121646778769e+00
2.199442121646778769e+00
2.221942808313242423e+00
2.221942808313242423e+00
2.221942808313242423e+00
2.221942808313242423e+00
2.230755577257606870e+00
2.230755577257606870e+00
2.230755577257606870e+00
2.287194799645985377e+00
2.287194799645985377e+00
2.287194799645985377e+00
2.324133426923429280e+00
2.324133426923429280e+00
2.324133426923429280e+00
2.324133426923429280e+00
2.359196996978667915e+00
2.359196996978667915e+00
2.359196996978667915e+00
2.406635944700461049e+00
2.406635944700461049e+00
2.406635944700461049e+00
2.377010040589617734e+00
2.377010040589617734e+00
2.377010040589617734e+00
2.377010040589617734e+00
2.360322031311990809e+00
2.360322031311990809e+00
2.360322031311990809e+00
2.377010040589617734e+00
2.377010040589617734e+00
2.377010040589617734e+00
2.291507431257057803e+00
2.291507431257057803e+00
2.291507431257057803e+00
2.291507431257057803e+00
2.252693746757408633e+00
2.252693746757408633e+00
2.252693746757408633e+00
2.227755485702078264e+00
2.227755485702078264e+00
2.227755485702078264e+00
2.215942625202185212e+00
2.215942625202185212e+00
2.215942625202185212e+00
2.215942625202185212e+00
2.239568346201971760e+00
2.239568346201971760e+00
2.239568346201971760e+00
2.244818506424146598e+00
2.244818506424146598e+00
2.244818506424146598e+00
2.254568803979613900e+00
2.254568803979613900e+00
2.254568803979613900e+00
2.254568803979613900e+00
2.306132877590258534e+00
2.306132877590258534e+00
2.306132877590258534e+00
2.332196172978911797e+00
2.332196172978911797e+00
2.332196172978911797e+00
2.356571916867580274e+00
2.356571916867580274e+00
2.356571916867580274e+00
2.356571916867580274e+00
2.376822534867396808e+00
2.376822534867396808e+00
2.376822534867396808e+00
2.337821344645527599e+00
2.337821344645527599e+00
2.337821344645527599e+00
2.360884548478652700e+00
2.360884548478652700e+00
2.360884548478652700e+00
2.360884548478652700e+00
2.364822168645283273e+00
2.364822168645283273e+00
2.364822168645283273e+00
2.291882442701498768e+00
2.291882442701498768e+00
2.274069399090548504e+00
2.274069399090548504e+00
2.239380840479750834e+00
2.239380840479750834e+00
2.200192144535660699e+00
2.200192144535660699e+00
2.211067476424451339e+00
2.211067476424451339e+00
2.237880794701986531e+00
2.237880794701986531e+00
2.237880794701986531e+00
2.296382580034791232e+00
2.296382580034791232e+00
2.332008667256691314e+00
2.332008667256691314e+00
2.336883816034425188e+00
2.336883816034425188e+00
2.376072511978514878e+00
2.376072511978514878e+00
2.389572923978392716e+00
2.389572923978392716e+00
2.362759605700857524e+00
2.362759605700857524e+00
2.386572832422864110e+00
2.386572832422864110e+00
2.347196630756553937e+00
2.347196630756553937e+00
2.347196630756553937e+00
2.295070039979247412e+00
2.295070039979247412e+00
2.280632099368266719e+00
2.280632099368266719e+00
2.222880336924344391e+00
2.222880336924344391e+00
2.209004913480026033e+00
2.209004913480026033e+00
2.218380199591051927e+00
2.218380199591051927e+00
2.209754936368907963e+00
2.209754936368907963e+00
2.267319193090609808e+00
2.267319193090609808e+00
2.329758598590044638e+00
2.329758598590044638e+00
2.365197180089724238e+00
2.365197180089724238e+00
2.403260841700491479e+00
2.403260841700491479e+00
2.403260841700491479e+00
2.388635395367290304e+00
2.388635395367290304e+00
2.375885006256294396e+00
2.375885006256294396e+00
2.404573381756035300e+00
2.404573381756035300e+00
2.312508072145756710e+00
2.312508072145756710e+00
2.262256538590655452e+00
2.262256538590655452e+00
2.237318277535325084e+00
2.237318277535325084e+00
2.191379375591296252e+00
2.191379375591296252e+00
2.195316995757927270e+00
2.195316995757927270e+00
2.223067842646564873e+00
2.223067842646564873e+00
2.223067842646564873e+00
2.242568437757499922e+00
2.242568437757499922e+00
2.306507889034699499e+00
2.306507889034699499e+00
2.360322031311990809e+00
2.360322031311990809e+00
2.369134800256355700e+00
2.369134800256355700e+00
2.409448530533769173e+00
2.409448530533769173e+00
2.371759880367442896e+00
2.371759880367442896e+00
2.366134708700827094e+00
2.366134708700827094e+00
2.366134708700827094e+00
2.384697775200659287e+00
2.384697775200659287e+00
2.302945280312509890e+00
2.302945280312509890e+00
2.257006378368480615e+00
2.257006378368480615e+00
2.224005371257667729e+00
2.224005371257667729e+00
2.185004181035798521e+00
2.185004181035798521e+00
2.199817133091219734e+00
2.199817133091219734e+00
2.220817773979919085e+00
2.220817773979919085e+00
2.249131138035218136e+00
2.249131138035218136e+00
2.316633198034607766e+00
2.316633198034607766e+00
2.342133976256599581e+00
2.342133976256599581e+00
2.342133976256599581e+00
2.383572740867336393e+00
2.383572740867336393e+00
2.417323770867030763e+00
2.417323770867030763e+00
2.369884823145237629e+00
2.369884823145237629e+00
2.385072786645100695e+00
2.385072786645100695e+00
2.344384044923245813e+00
2.344384044923245813e+00
2.260756492812891150e+00
2.260756492812891150e+00
2.229818048646504014e+00
2.229818048646504014e+00
2.217255165257729033e+00
2.217255165257729033e+00
2.221192785424360050e+00
2.221192785424360050e+00
2.223067842646564873e+00
2.223067842646564873e+00
2.223255348368785356e+00
2.223255348368785356e+00
2.223255348368785356e+00
2.276881984923856628e+00
2.276881984923856628e+00
2.333133701590014208e+00
2.333133701590014208e+00
2.350571733756523507e+00
2.350571733756523507e+00
2.385072786645100695e+00
2.385072786645100695e+00
2.372509903256325270e+00
2.372509903256325270e+00
2.329383587145603673e+00
2.329383587145603673e+00
2.367072237311929506e+00
2.367072237311929506e+00
2.311945554979094819e+00
2.311945554979094819e+00
2.311945554979094819e+00
2.262256538590655452e+00
2.262256538590655452e+00
2.247443586535233351e+00
2.247443586535233351e+00
2.231130588702047834e+00
2.231130588702047834e+00
2.214255073702200427e+00
2.214255073702200427e+00
2.249506149479659545e+00
2.249506149479659545e+00
2.263756584368419311e+00
2.263756584368419311e+00
2.315695669423505798e+00
2.315695669423505798e+00
2.345509079256569152e+00
2.345509079256569152e+00
2.345509079256569152e+00
2.380197637867366822e+00
2.380197637867366822e+00
2.452012329477828434e+00
2.452012329477828434e+00
2.431386700033570492e+00
2.431386700033570492e+00
2.400260750144962874e+00
2.400260750144962874e+00
2.390510452589495571e+00
2.390510452589495571e+00
2.283444685201574842e+00
2.283444685201574842e+00
2.238630817590868904e+00
2.238630817590868904e+00
2.212380016479995160e+00
2.212380016479995160e+00
2.212380016479995160e+00
2.171503769035920239e+00
2.171503769035920239e+00
2.186129215369121415e+00
2.186129215369121415e+00
2.224005371257667729e+00
2.224005371257667729e+00
2.258318918424023991e+00
2.258318918424023991e+00
2.320195806756797818e+00
2.320195806756797818e+00
2.333321207312235135e+00
2.333321207312235135e+00
2.352446790978728330e+00
2.352446790978728330e+00
2.403073335978270997e+00
2.403073335978270997e+00
2.382072695089572090e+00
2.382072695089572090e+00
2.404198370311593891e+00
2.404198370311593891e+00
2.404198370311593891e+00
2.388635395367290304e+00
2.388635395367290304e+00
2.301820245979186552e+00
2.301820245979186552e+00
2.271256813257240381e+00
2.271256813257240381e+00
2.244443494979705633e+00
2.244443494979705633e+00
2.220067751091036712e+00
2.220067751091036712e+00
2.224380382702108694e+00
2.224380382702108694e+00
2.231318094424268317e+00
2.231318094424268317e+00
2.252506241035188150e+00
2.252506241035188150e+00
2.300695211645863214e+00
2.300695211645863214e+00
2.325445966978973100e+00
2.325445966978973100e+00
2.325445966978973100e+00
2.372322397534104788e+00
2.372322397534104788e+00
2.363322122867518971e+00
2.363322122867518971e+00
2.335008758812219920e+00
2.335008758812219920e+00
2.380760155034028269e+00
2.380760155034028269e+00
2.351321756645405436e+00
2.351321756645405436e+00
2.287007293923764895e+00
2.287007293923764895e+00
2.267506698812830290e+00
2.267506698812830290e+00
2.218942716757713818e+00
2.218942716757713818e+00
2.206192327646717910e+00
2.206192327646717910e+00
2.206192327646717910e+00
2.238068300424207457e+00
2.238068300424207457e+00
2.260756492812891150e+00
2.260756492812891150e+00
2.292819971312600735e+00
2.292819971312600735e+00
2.317570726645710621e+00
2.317570726645710621e+00
2.336883816034425188e+00
2.336883816034425188e+00
2.391072969756157018e+00
2.391072969756157018e+00
2.377385052034058699e+00
2.377385052034058699e+00
2.347759147923215384e+00
2.347759147923215384e+00
2.386010315256203107e+00
2.386010315256203107e+00
2.386010315256203107e+00
2.317195715201269657e+00
2.317195715201269657e+00
2.264131595812860720e+00
2.264131595812860720e+00
2.244631000701926116e+00
2.244631000701926116e+00
2.223630359813226764e+00
2.223630359813226764e+00
2.249693655201880027e+00
2.249693655201880027e+00
2.275944456312753772e+00
2.275944456312753772e+00
2.281569627979369130e+00
2.281569627979369130e+00
2.312508072145756710e+00
2.312508072145756710e+00
2.312508072145756710e+00
2.327696035645618888e+00
2.327696035645618888e+00
2.340071413312173831e+00
2.340071413312173831e+00
2.374947477645191540e+00
2.374947477645191540e+00
2.348509170812097757e+00
2.348509170812097757e+00
2.368384777367473326e+00
2.368384777367473326e+00
2.396698141422773265e+00
2.396698141422773265e+00
2.317195715201269657e+00
2.317195715201269657e+00
2.263569078646198829e+00
2.263569078646198829e+00
2.263569078646198829e+00
2.203379741813409787e+00
2.203379741813409787e+00
2.162128482924894346e+00
2.162128482924894346e+00
2.187629261146885273e+00
2.187629261146885273e+00
2.211442487868892304e+00
2.211442487868892304e+00
2.248943632312997654e+00
2.248943632312997654e+00
2.300320200201422249e+00
2.300320200201422249e+00
2.332571184423352761e+00
2.332571184423352761e+00
2.385635303811762142e+00
2.385635303811762142e+00
2.401010773033844803e+00
2.401010773033844803e+00
2.401010773033844803e+00
2.363134617145298488e+00
2.363134617145298488e+00
2.394073061311685624e+00
2.394073061311685624e+00
2.371197363200781449e+00
2.371197363200781449e+00
2.288132328257088233e+00
2.288132328257088233e+00
2.279132053590502860e+00
2.279132053590502860e+00
2.234505691702016961e+00
2.234505691702016961e+00
2.230568071535386387e+00
2.230568071535386387e+00
2.256818872646260132e+00
2.256818872646260132e+00
2.256818872646260132e+00
2.247068575090792386e+00
2.247068575090792386e+00
2.274256904812768987e+00
2.274256904812768987e+00
2.313633106479079604e+00
2.313633106479079604e+00
2.325258461256752618e+00
2.325258461256752618e+00
2.374572466200750576e+00
2.374572466200750576e+00
2.383760246589556875e+00
2.383760246589556875e+00
2.365572191534165203e+00
2.365572191534165203e+00
2.405885921811578676e+00
2.405885921811578676e+00
2.405885921811578676e+00
2.341383953367717208e+00
2.341383953367717208e+00
2.270506790368358452e+00
2.270506790368358452e+00
2.241630909146397510e+00
2.241630909146397510e+00
2.192129398480178182e+00
2.192129398480178182e+00
2.192129398480178182e+00
2.192129398480178182e+00
2.197379558702353020e+00
2.197379558702353020e+00
2.207879879146702695e+00
2.207879879146702695e+00
2.258693929868464956e+00
2.258693929868464956e+00
2.258693929868464956e+00
2.300695211645863214e+00
2.300695211645863214e+00
2.327883541367839371e+00
2.327883541367839371e+00
2.420698873867000778e+00
2.420698873867000778e+00
2.399135715811639535e+00
2.399135715811639535e+00
2.368009765923032361e+00
2.368009765923032361e+00
2.396135624256111374e+00
2.396135624256111374e+00
2.332758690145573244e+00
2.332758690145573244e+00
2.312883083590197675e+00
2.312883083590197675e+00
2.312883083590197675e+00
2.289632374034852091e+00
2.289632374034852091e+00
2.233755668813135031e+00
2.233755668813135031e+00
2.233943174535355514e+00
2.233943174535355514e+00
2.263944090090640238e+00
2.263944090090640238e+00
2.281757133701590057e+00
2.281757133701590057e+00
2.316258186590166801e+00
2.316258186590166801e+00
2.324508438367870244e+00
2.324508438367870244e+00
2.353009308145390222e+00
2.353009308145390222e+00
2.362759605700857524e+00
2.362759605700857524e+00
2.362759605700857524e+00
2.319070772423474924e+00
2.319070772423474924e+00
2.325445966978973100e+00
2.325445966978973100e+00
2.342508987701040546e+00
2.342508987701040546e+00
2.260756492812891150e+00
2.260756492812891150e+00
2.249506149479659545e+00
2.249506149479659545e+00
2.230380565813165905e+00
2.230380565813165905e+00
2.216317636646626177e+00
2.216317636646626177e+00
2.247256080813012868e+00
2.247256080813012868e+00
2.260381481368449741e+00
2.260381481368449741e+00
2.260381481368449741e+00
2.290382396923734465e+00
2.290382396923734465e+00
2.347759147923215384e+00
2.347759147923215384e+00
2.347759147923215384e+00
2.347759147923215384e+00
2.372134891811884305e+00
2.372134891811884305e+00
2.372322397534104788e+00
2.372322397534104788e+00
2.332758690145573244e+00
2.332758690145573244e+00
2.386572832422864110e+00
2.386572832422864110e+00
2.352259285256507848e+00
2.352259285256507848e+00
2.352259285256507848e+00
2.284569719534897736e+00
2.284569719534897736e+00
2.259068941312906365e+00
2.259068941312906365e+00
2.203004730368968822e+00
2.203004730368968822e+00
2.171503769035920239e+00
2.171503769035920239e+00
2.199067110202337361e+00
2.199067110202337361e+00
2.213317545091097571e+00
2.213317545091097571e+00
2.285694753868221074e+00
2.285694753868221074e+00
2.344384044923245813e+00
2.344384044923245813e+00
2.344384044923245813e+00
2.374572466200750576e+00
2.374572466200750576e+00
2.415636219367045978e+00
2.415636219367045978e+00
2.382072695089572090e+00
2.382072695089572090e+00
2.340821436201055761e+00
2.340821436201055761e+00
2.378510086367381593e+00
2.378510086367381593e+00
2.296945097201452679e+00
2.296945097201452679e+00
2.228318002868740155e+00
2.228318002868740155e+00
2.225880428479872997e+00
2.225880428479872997e+00
2.225880428479872997e+00
2.170566240424817828e+00
2.170566240424817828e+00
2.182191595202490397e+00
2.182191595202490397e+00
2.214630085146641392e+00
2.214630085146641392e+00
2.232068117313150690e+00
2.232068117313150690e+00
2.299195165868098911e+00
2.299195165868098911e+00
2.324508438367870244e+00
2.324508438367870244e+00
2.370259834589678594e+00
2.370259834589678594e+00
2.401948301644947659e+00
2.401948301644947659e+00
2.374759971922971058e+00
2.374759971922971058e+00
2.363322122867518971e+00
2.363322122867518971e+00
2.363322122867518971e+00
2.376635029145176325e+00
2.376635029145176325e+00
2.300882717368083696e+00
2.300882717368083696e+00
2.250068666646320992e+00
2.250068666646320992e+00
2.202817224646748340e+00
2.202817224646748340e+00
2.190816858424634361e+00
2.190816858424634361e+00
2.247068575090792386e+00
2.247068575090792386e+00
2.279694570757164307e+00
2.279694570757164307e+00
2.284944730979339145e+00
2.284944730979339145e+00
2.284944730979339145e+00
2.276881984923856628e+00
2.276881984923856628e+00
2.296195074312570750e+00
2.296195074312570750e+00
2.322258369701224012e+00
2.322258369701224012e+00
2.320945829645680192e+00
2.320945829645680192e+00
2.243318460646382295e+00
2.243318460646382295e+00
2.232068117313150690e+00
2.232068117313150690e+00
2.204317270424512643e+00
2.204317270424512643e+00
2.150503128147221332e+00
2.150503128147221332e+00
2.150503128147221332e+00
2.136815210425123013e+00
2.136815210425123013e+00
2.088251228370006540e+00
2.088251228370006540e+00
2.060312875759148010e+00
2.060312875759148010e+00
2.055625232703635064e+00
2.055625232703635064e+00
2.093876400036621899e+00
2.093876400036621899e+00
2.187441755424664791e+00
2.187441755424664791e+00
2.311383037812433372e+00
2.311383037812433372e+00
2.435886837366862956e+00
2.435886837366862956e+00
2.435886837366862956e+00
2.551390362254707167e+00
2.551390362254707167e+00
2.501138828699606353e+00
2.501138828699606353e+00
2.422573931089205601e+00
2.422573931089205601e+00
2.416386242255928352e+00
2.416386242255928352e+00
2.383010223700674501e+00
2.383010223700674501e+00
2.300320200201422249e+00
2.300320200201422249e+00
2.242568437757499922e+00
2.242568437757499922e+00
2.204879787591174090e+00
2.204879787591174090e+00
2.204879787591174090e+00
2.242568437757499922e+00
2.272194341868343237e+00
2.272194341868343237e+00
2.198504593035676358e+00
2.198504593035676358e+00
2.149190588091677956e+00
2.149190588091677956e+00
2.167003631702627775e+00
2.167003631702627775e+00
2.192879421369060555e+00
2.192879421369060555e+00
2.287569811090426342e+00
2.287569811090426342e+00
2.316820703756828248e+00
2.316820703756828248e+00
2.316820703756828248e+00
2.392948026978362286e+00
2.392948026978362286e+00
2.492701071199682428e+00
2.492701071199682428e+00
2.517264320810571387e+00
2.517264320810571387e+00
2.458200018311105683e+00
2.458200018311105683e+00
2.307257911923581428e+00
2.307257911923581428e+00
2.176753929258095077e+00
2.176753929258095077e+00
2.148440565202795582e+00
2.148440565202795582e+00
2.173566331980346433e+00
2.173566331980346433e+00
2.173566331980346433e+00
2.254568803979613900e+00
2.254568803979613900e+00
2.315320657979064389e+00
2.315320657979064389e+00
2.341758964812158617e+00
2.341758964812158617e+00
2.370447340311899076e+00
2.370447340311899076e+00
2.433261757255775315e+00
2.433261757255775315e+00
2.411698599200414961e+00
2.411698599200414961e+00
2.432511734366893830e+00
2.432511734366893830e+00
2.428011597033600921e+00
2.428011597033600921e+00
2.340446424756614796e+00
2.340446424756614796e+00
2.340446424756614796e+00
2.293007477034821662e+00
2.293007477034821662e+00
2.251193700979644330e+00
2.251193700979644330e+00
2.241255897701956545e+00
2.241255897701956545e+00
2.236755760368663637e+00
2.236755760368663637e+00
2.254006286812952009e+00
2.254006286812952009e+00
2.249318643757439062e+00
2.249318643757439062e+00
2.263194067201757864e+00
2.263194067201757864e+00
2.313820612201300086e+00
2.313820612201300086e+00
2.389385418256172233e+00
2.389385418256172233e+00
2.389385418256172233e+00
2.424636494033631351e+00
2.424636494033631351e+00
2.480138187810907002e+00
2.480138187810907002e+00
2.557953062532425825e+00
2.557953062532425825e+00
2.434949308755760100e+00
2.434949308755760100e+00
2.213130039368877089e+00
2.213130039368877089e+00
2.062562944425794242e+00
2.062562944425794242e+00
1.992623310037537676e+00
1.992623310037537676e+00
1.983810541093173230e+00
1.983810541093173230e+00
1.983810541093173230e+00
2.048125003814813549e+00
2.149565599536118921e+00
2.149565599536118921e+00
2.290194891201513983e+00
2.290194891201513983e+00
2.425761528366954689e+00
2.425761528366954689e+00
2.477700613422040732e+00
2.477700613422040732e+00
2.458012512588885201e+00
2.458012512588885201e+00
2.382635212256233537e+00
2.382635212256233537e+00
2.362947111423078006e+00
2.362947111423078006e+00
2.362947111423078006e+00
2.431949217200232383e+00
2.431949217200232383e+00
2.353759331034272151e+00
2.353759331034272151e+00
2.260568987090670667e+00
2.260568987090670667e+00
2.217255165257729033e+00
2.217255165257729033e+00
2.166066103091524919e+00
2.166066103091524919e+00
2.079063447981200685e+00
2.079063447981200685e+00
2.015874019592883037e+00
2.015874019592883037e+00
2.035749626148258606e+00
2.035749626148258606e+00
2.035749626148258606e+00
2.087876216925565576e+00
2.087876216925565576e+00
2.184066652424695665e+00
2.184066652424695665e+00
2.335758781701101849e+00
2.335758781701101849e+00
2.463262672811060039e+00
2.463262672811060039e+00
2.483700796533097499e+00
2.483700796533097499e+00
2.502076357310709209e+00
2.502076357310709209e+00
2.599204321420941710e+00
2.599204321420941710e+00
2.523076998199408116e+00
2.523076998199408116e+00
2.523076998199408116e+00
2.495513657032990551e+00
2.495513657032990551e+00
2.406635944700461049e+00
2.406635944700461049e+00
2.311383037812433372e+00
2.275944456312753772e+00
2.275944456312753772e+00
2.267881710257271255e+00
2.264319101535081202e+00
2.264319101535081202e+00
2.244443494979705633e+00
2.233943174535355514e+00
2.233943174535355514e+00
2.266944181646168399e+00
2.202817224646748340e+00
2.202817224646748340e+00
2.145065462202826012e+00
2.155940794091616652e+00
2.155940794091616652e+00
2.110564409314249268e+00
2.040624774925992480e+00
2.040624774925992480e+00
2.101564134647663895e+00
2.165691091647083955e+00
2.165691091647083955e+00
2.322633381145664977e+00
2.359009491256446989e+00
2.359009491256446989e+00
2.312320566423536228e+00
2.470012878810998735e+00
2.470012878810998735e+00
2.598454298532059781e+00
2.739646107364116290e+00
2.739646107364116290e+00
2.826648762474440968e+00
2.768709494308298158e+00
2.768709494308298158e+00
2.572953520310068409e+00
2.120502212591937052e+00
2.120502212591937052e+00
1.837931089205603330e+00
1.788804589983825188e+00
1.788804589983825188e+00
1.929433881649220250e+00
2.126127384258552855e+00
2.126127384258552855e+00
2.233755668813135031e+00
2.233755668813135031e+00
2.330133610034486047e+00
2.296007568590349823e+00
2.296007568590349823e+00
2.150503128147221332e+00
2.161190954313791490e+00
2.161190954313791490e+00
2.206754844813379357e+00
2.186879238258003344e+00
2.186879238258003344e+00
2.173378826258125951e+00
2.239755851924192243e+00
2.239755851924192243e+00
2.195879512924588717e+00
2.123689809869686140e+00
2.123689809869686140e+00
2.110001892147587377e+00
2.206942350535599839e+00
2.206942350535599839e+00
2.326195989867855030e+00
2.246506057924130939e+00
2.246506057924130939e+00
2.152940702536088047e+00
2.184629169591357556e+00
2.184629169591357556e+00
2.286632282479323930e+00
2.452574846644489881e+00
2.452574846644489881e+00
2.553452925199133361e+00
2.443574571977904952e+00
2.443574571977904952e+00
2.235068208868678852e+00
2.053375164036988387e+00
2.053375164036988387e+00
1.910495803704947093e+00
1.825930722983489574e+00
1.825930722983489574e+00
1.807930173650319050e+00
1.946496902371288140e+00
1.946496902371288140e+00
2.099501571703238145e+00
2.295445051423688376e+00
2.471325418866542556e+00
2.471325418866542556e+00
2.594329172643208281e+00
2.625455122531815455e+00
2.625455122531815455e+00
2.694082216864528423e+00
2.816148442030091292e+00
2.816148442030091292e+00
2.867900021362956409e+00
2.881212927640613763e+00
2.881212927640613763e+00
2.642893154698324754e+00
2.273694387646107540e+00
2.273694387646107540e+00
1.936746604815820838e+00
1.623049531540879498e+00
1.623049531540879498e+00
1.549922299874874287e+00
1.664863307596057052e+00
1.664863307596057052e+00
1.791242164372691903e+00
1.944809350871303355e+00
1.944809350871303355e+00
2.148253059480575100e+00
2.257193884090700653e+00
2.257193884090700653e+00
2.433824274422437206e+00
2.420511368144779851e+00
2.420511368144779851e+00
2.271819330423901828e+00
2.358071962645344577e+00
2.358071962645344577e+00
2.422573931089205601e+00
2.287569811090426342e+00
2.287569811090426342e+00
2.268444227423932702e+00
2.148440565202795582e+00
2.148440565202795582e+00
2.102501663258766751e+00
2.102501663258766751e+00
2.214255073702200427e+00
2.214255073702200427e+00
2.413761162144840711e+00
2.413761162144840711e+00
2.604641987365337030e+00
2.604641987365337030e+00
2.599204321420941710e+00
2.599204321420941710e+00
2.555890499588000075e+00
2.555890499588000075e+00
2.553452925199133361e+00
2.553452925199133361e+00
2.505076448866237371e+00
2.505076448866237371e+00
2.505076448866237371e+00
2.391072969756157018e+00
2.391072969756157018e+00
2.278569536423841413e+00
2.278569536423841413e+00
2.135690176091799675e+00
2.135690176091799675e+00
2.065000518814661401e+00
2.065000518814661401e+00
1.979310403759880321e+00
1.979310403759880321e+00
1.804555070650349480e+00
1.804555070650349480e+00
1.728240241706594960e+00
1.898870448927274301e+00
1.898870448927274301e+00
2.071000701925717724e+00
2.071000701925717724e+00
2.135127658925138228e+00
2.135127658925138228e+00
2.166253608813745402e+00
2.166253608813745402e+00
2.444512100589007364e+00
2.444512100589007364e+00
2.444512100589007364e+00
2.570703451643421733e+00
2.570703451643421733e+00
2.467012787255470574e+00
2.467012787255470574e+00
2.521576952421643814e+00
2.521576952421643814e+00
2.422198919644764192e+00
2.422198919644764192e+00
2.065000518814661401e+00
2.065000518814661401e+00
1.786367015594958252e+00
1.786367015594958252e+00
1.613111728263191713e+00
1.613111728263191713e+00
1.458044495986815958e+00
1.458044495986815958e+00
1.651362895596178992e+00
1.651362895596178992e+00
1.969560106204413019e+00
1.969560106204413019e+00
1.969560106204413019e+00
2.459887569811090469e+00
2.459887569811090469e+00
2.597891781365397890e+00
2.597891781365397890e+00
2.555327982421338628e+00
2.555327982421338628e+00
2.710957731864375830e+00
2.710957731864375830e+00
2.830773888363292468e+00
2.830773888363292468e+00
2.827773796807763862e+00
2.827773796807763862e+00
3.003466658528397559e+00
3.003466658528397559e+00
2.941214758751182767e+00
2.941214758751182767e+00
2.941214758751182767e+00
2.634267891476180345e+00
2.634267891476180345e+00
1.977060335093234089e+00
1.977060335093234089e+00
1.540359508041627246e+00
1.540359508041627246e+00
1.793867244483779544e+00
1.793867244483779544e+00
2.144502945036164565e+00
2.144502945036164565e+00
2.491576036866359534e+00
2.491576036866359534e+00
2.697644825586718476e+00
2.697644825586718476e+00
2.678331736198004354e+00
2.678331736198004354e+00
2.678331736198004354e+00
2.172816309091464060e+00
2.172816309091464060e+00
2.033499557481612818e+00
2.033499557481612818e+00
2.043249855037080120e+00
2.043249855037080120e+00
1.912745872371593547e+00
1.912745872371593547e+00
1.837181066316721179e+00
1.837181066316721179e+00
1.653237952818384482e+00
1.653237952818384482e+00
1.727865230262153995e+00
1.727865230262153995e+00
2.107001800592058771e+00
2.107001800592058771e+00
2.107001800592058771e+00
2.321133335367900674e+00
2.321133335367900674e+00
2.410573564867091623e+00
2.410573564867091623e+00
2.529264687032685366e+00
2.529264687032685366e+00
2.795335306863612868e+00
3.155533799249244709e+00
3.155533799249244709e+00
3.047530503250221123e+00
3.047530503250221123e+00
2.416386242255928352e+00
2.416386242255928352e+00
2.416386242255928352e+00
1.841493697927793161e+00
1.841493697927793161e+00
1.646862758262886528e+00
1.646862758262886528e+00
1.833430951872310644e+00
1.833430951872310644e+00
1.910495803704947093e+00
1.910495803704947093e+00
1.773429120761742084e+00
1.773429120761742084e+00
1.813180333872493666e+00
1.813180333872493666e+00
1.926621295815912349e+00
1.926621295815912349e+00
2.024311777092806519e+00
2.024311777092806519e+00
2.024311777092806519e+00
2.017936582537308787e+00
2.017936582537308787e+00
1.694676717429120849e+00
1.694676717429120849e+00
1.680988799707022308e+00
1.680988799707022308e+00
2.037624683370464318e+00
2.037624683370464318e+00
2.571078463087863142e+00
2.571078463087863142e+00
2.865274941251869656e+00
2.865274941251869656e+00
2.886650593585009528e+00
2.886650593585009528e+00
2.964465468306527907e+00
2.964465468306527907e+00
2.964465468306527907e+00
3.196785058137760593e+00
3.196785058137760593e+00
2.958652790917691622e+00
2.958652790917691622e+00
2.441512009033478758e+00
2.441512009033478758e+00
2.164753563035981099e+00
2.164753563035981099e+00
2.042874843592639156e+00
2.042874843592639156e+00
1.957559739982299263e+00
1.957559739982299263e+00
1.792742210150456206e+00
1.792742210150456206e+00
1.609924130985442625e+00
1.609924130985442625e+00
1.665800836207159685e+00
1.665800836207159685e+00
1.665800836207159685e+00
1.765178868984038862e+00
1.765178868984038862e+00
2.189504318369090985e+00
2.189504318369090985e+00
2.623580065309610188e+00
2.623580065309610188e+00
2.620204962309641061e+00
2.620204962309641061e+00
2.490638508255257122e+00
2.490638508255257122e+00
2.485388348033082284e+00
2.485388348033082284e+00
2.532264778588213971e+00
2.532264778588213971e+00
2.475263039033173573e+00
2.475263039033173573e+00
2.252131229590746742e+00
2.252131229590746742e+00
2.024874294259468410e+00
2.024874294259468410e+00
2.024874294259468410e+00
1.657550584429456464e+00
1.351353740043336416e+00
1.351353740043336416e+00
1.245037995544297615e+00
1.245037995544297615e+00
1.229850032044434993e+00
1.229850032044434993e+00
1.406292916653950620e+00
1.406292916653950620e+00
1.719427472762230291e+00
1.719427472762230291e+00
2.251943723868526259e+00
2.251943723868526259e+00
2.539952513199255080e+00
2.539952513199255080e+00
3.021279702139347378e+00
3.021279702139347378e+00
3.333289223914304156e+00
3.333289223914304156e+00
3.333289223914304156e+00
3.048655537583544461e+00
3.048655537583544461e+00
2.627517685476241649e+00
2.627517685476241649e+00
2.242943449201941331e+00
2.242943449201941331e+00
2.171691274758141166e+00
2.171691274758141166e+00
2.352821802423169739e+00
2.352821802423169739e+00
2.520639423810540958e+00
2.520639423810540958e+00
2.767771965697195302e+00
2.767771965697195302e+00
2.987903683584093528e+00
2.987903683584093528e+00
2.987903683584093528e+00
2.964652974028748389e+00
2.964652974028748389e+00
3.029154942472609857e+00
3.029154942472609857e+00
2.855899655140842874e+00
2.855899655140842874e+00
2.591141575365459193e+00
2.591141575365459193e+00
2.181441572313608468e+00
2.181441572313608468e+00
1.807555162205877863e+00
1.807555162205877863e+00
1.346853602710043507e+00
1.346853602710043507e+00
1.242975432599871866e+00
1.242975432599871866e+00
1.242975432599871866e+00
1.223662343211157522e+00
1.223662343211157522e+00
1.240350352488784447e+00
1.240350352488784447e+00
1.359603991821039415e+00
1.359603991821039415e+00
1.898495437482833337e+00
1.898495437482833337e+00
2.424636494033631351e+00
2.424636494033631351e+00
2.759521713919492303e+00
2.759521713919492303e+00
2.867712515640735926e+00
2.867712515640735926e+00
3.063655995361186601e+00
3.063655995361186601e+00
3.142595904416028318e+00
3.142595904416028318e+00
3.142595904416028318e+00
3.112219977416303074e+00
3.112219977416303074e+00
3.241411420026246049e+00
3.241411420026246049e+00
3.202785241248817361e+00
3.202785241248817361e+00
2.770772057252723908e+00
2.770772057252723908e+00
2.199254615924558287e+00
2.199254615924558287e+00
1.825930722983489574e+00
1.825930722983489574e+00
1.481107699819940837e+00
1.481107699819940837e+00
1.126909390545365763e+00
1.126909390545365763e+00
1.190473830378124376e+00
1.190473830378124376e+00
1.504358409375285976e+00
1.504358409375285976e+00
1.805117587817010927e+00
1.805117587817010927e+00
2.109626880703146412e+00
2.109626880703146412e+00
2.533952330088198757e+00
2.533952330088198757e+00
2.522514481032746669e+00
2.522514481032746669e+00
2.184254158146916147e+00
2.184254158146916147e+00
2.154628254036072832e+00
2.154628254036072832e+00
2.106814294869838289e+00
2.106814294869838289e+00
2.106814294869838289e+00
2.054875209814752690e+00
2.054875209814752690e+00
2.106251777703176842e+00
2.106251777703176842e+00
2.376260017700735361e+00
2.376260017700735361e+00
2.695019745475630835e+00
2.695019745475630835e+00
2.580641254921109962e+00
2.580641254921109962e+00
2.326946012756737403e+00
2.326946012756737403e+00
2.184629169591357556e+00
2.184629169591357556e+00
2.333508713034455617e+00
2.333508713034455617e+00
2.333508713034455617e+00
2.373447431867427682e+00
2.373447431867427682e+00
2.183316629535813735e+00
2.183316629535813735e+00
1.698801843317972349e+00
1.698801843317972349e+00
1.595111178930021190e+00
1.595111178930021190e+00
1.732740379039887646e+00
1.732740379039887646e+00
1.713989806817835193e+00
1.713989806817835193e+00
2.003123630481887130e+00
2.003123630481887130e+00
2.284194708090456771e+00
2.284194708090456771e+00
2.169628711813714972e+00
2.169628711813714972e+00
2.169628711813714972e+00
2.002936124759666647e+00
2.002936124759666647e+00
1.994873378704184130e+00
1.994873378704184130e+00
2.319445783867915889e+00
2.319445783867915889e+00
2.618517410809656276e+00
2.618517410809656276e+00
2.762334299752799982e+00
2.762334299752799982e+00
2.951902584917752481e+00
2.951902584917752481e+00
2.980778466139713867e+00
2.980778466139713867e+00
2.643643177587206683e+00
2.643643177587206683e+00
2.643643177587206683e+00
2.369509811700796664e+00
2.369509811700796664e+00
2.320008301034577336e+00
2.320008301034577336e+00
2.295257545701467894e+00
2.295257545701467894e+00
2.132690084536271069e+00
2.132690084536271069e+00
1.723177587206640826e+00
1.723177587206640826e+00
1.234162663655506975e+00
1.234162663655506975e+00
1.434418774987029632e+00
1.803055024872585177e+00
1.803055024872585177e+00
2.292257454145939732e+00
2.292257454145939732e+00
2.800210455641346297e+00
2.800210455641346297e+00
3.059155858027894137e+00
3.059155858027894137e+00
3.090469313638721793e+00
3.090469313638721793e+00
3.090469313638721793e+00
2.981340983306375314e+00
2.981340983306375314e+00
2.983028534806360099e+00
2.983028534806360099e+00
2.890963225196081066e+00
2.890963225196081066e+00
2.493263588366343875e+00
2.493263588366343875e+00
2.089188756981108952e+00
2.089188756981108952e+00
2.100814111758781966e+00
2.100814111758781966e+00
2.080750999481185470e+00
2.080750999481185470e+00
1.996748435926389398e+00
1.996748435926389398e+00
1.996748435926389398e+00
1.733115390484328611e+00
1.733115390484328611e+00
1.236037720877712243e+00
1.236037720877712243e+00
1.008218268379772242e+00
1.008218268379772242e+00
1.193661427655873242e+00
1.193661427655873242e+00
1.505108432264168128e+00
1.505108432264168128e+00
1.923433698538163483e+00
1.923433698538163483e+00
2.561328165532395840e+00
2.561328165532395840e+00
3.425354533524582745e+00
3.425354533524582745e+00
3.425354533524582745e+00
3.782365428632465498e+00
3.782365428632465498e+00
3.790428174687948459e+00
3.790428174687948459e+00
3.048093020416883014e+00
3.048093020416883014e+00
2.697082308420057029e+00
2.697082308420057029e+00
2.276506973479415219e+00
2.276506973479415219e+00
2.069688161870173904e+00
2.069688161870173904e+00
1.984560563982054937e+00
1.984560563982054937e+00
2.107376812036500180e+00
2.107376812036500180e+00
2.107376812036500180e+00
2.276131962034974254e+00
2.276131962034974254e+00
2.283069673757133433e+00
2.283069673757133433e+00
2.494763634144108178e+00
2.494763634144108178e+00
2.609329630420849977e+00
2.609329630420849977e+00
2.237505783257545566e+00
2.237505783257545566e+00
2.262444044312875935e+00
2.262444044312875935e+00
2.199254615924558287e+00
2.199254615924558287e+00
1.780929349650563154e+00
1.780929349650563154e+00
1.780929349650563154e+00
1.699176854762413313e+00
1.699176854762413313e+00
1.792929715872676688e+00
1.792929715872676688e+00
1.538859462263863165e+00
1.538859462263863165e+00
1.651362895596178992e+00
1.651362895596178992e+00
1.939746696371349222e+00
1.939746696371349222e+00
2.085251136814477935e+00
2.085251136814477935e+00
2.051125095370342155e+00
2.051125095370342155e+00
2.280257087923826198e+00
2.280257087923826198e+00
2.636705465865047060e+00
2.636705465865047060e+00
2.868462538529618300e+00
2.868462538529618300e+00
2.845774346140934608e+00
2.845774346140934608e+00
2.670081484420300910e+00
2.670081484420300910e+00
2.083563585314493150e+00
2.083563585314493150e+00
1.711364726706747552e+00
1.711364726706747552e+00
1.571297952208014159e+00
1.571297952208014159e+00
1.571297952208014159e+00
1.413230628376110243e+00
1.413230628376110243e+00
1.316665181432538745e+00
1.316665181432538745e+00
1.602423902096621777e+00
1.602423902096621777e+00
2.206192327646717910e+00
2.206192327646717910e+00
2.612329721976378583e+00
2.612329721976378583e+00
3.033467574083681839e+00
3.033467574083681839e+00
3.058030823694570799e+00
3.058030823694570799e+00
2.868837549974059264e+00
2.868837549974059264e+00
2.868837549974059264e+00
2.645330729087191468e+00
2.645330729087191468e+00
2.401385784478286212e+00
2.401385784478286212e+00
2.300695211645863214e+00
2.300695211645863214e+00
2.344759056367687222e+00
2.344759056367687222e+00
2.490638508255257122e+00
2.490638508255257122e+00
2.670456495864741875e+00
2.670456495864741875e+00
2.777522263252662604e+00
2.777522263252662604e+00
3.025967345194860769e+00
3.025967345194860769e+00
3.025967345194860769e+00
3.110532425916318289e+00
3.110532425916318289e+00
2.952840113528855337e+00
2.952840113528855337e+00
2.871087618640705497e+00
2.871087618640705497e+00
2.449387249366740793e+00
2.449387249366740793e+00
2.143940427869502674e+00
2.143940427869502674e+00
2.086001159703360308e+00
2.086001159703360308e+00
1.743240699484237322e+00
1.743240699484237322e+00
1.444356578264717639e+00
1.444356578264717639e+00
1.444356578264717639e+00
1.468544816431165634e+00
1.468544816431165634e+00
1.420543351542710830e+00
1.420543351542710830e+00
9.962179021576585969e-01
9.962179021576585969e-01
1.223474837488937039e+00
1.223474837488937039e+00
1.857806695760979121e+00
1.857806695760979121e+00
2.256631366924039650e+00
2.705145054475539546e+00
2.705145054475539546e+00
3.237848811304055996e+00
3.237848811304055996e+00
3.658611651966917844e+00
3.658611651966917844e+00
3.417291787469100228e+00
3.417291787469100228e+00
2.996716452528458419e+00
2.996716452528458419e+00
2.364447157200842309e+00
2.364447157200842309e+00
2.364447157200842309e+00
1.642550126651814324e+00
1.642550126651814324e+00
1.581423261207922648e+00
1.581423261207922648e+00
1.722615070039979157e+00
1.722615070039979157e+00
1.880494888149662813e+00
1.880494888149662813e+00
1.966185003204443671e+00
1.966185003204443671e+00
2.044187383648182976e+00
2.044187383648182976e+00
2.346071596423230599e+00
2.346071596423230599e+00
2.800397961363566779e+00
2.800397961363566779e+00
2.800397961363566779e+00
3.136595721304971107e+00
3.136595721304971107e+00
3.201097689748832575e+00
3.201097689748832575e+00
2.896213385418256347e+00
2.896213385418256347e+00
2.499451277199621568e+00
2.499451277199621568e+00
2.402885830256050514e+00
2.402885830256050514e+00
2.427824091311380439e+00
2.427824091311380439e+00
2.354321848200934042e+00
2.354321848200934042e+00
2.214630085146641392e+00
2.214630085146641392e+00
2.214630085146641392e+00
1.805680104983672596e+00
1.805680104983672596e+00
1.623987060151982131e+00
1.623987060151982131e+00
1.777366740928373101e+00
1.777366740928373101e+00
1.947996948149052443e+00
1.947996948149052443e+00
2.058625324259163225e+00
2.058625324259163225e+00
2.426699056978057101e+00
2.426699056978057101e+00
2.696707296975615620e+00
2.696707296975615620e+00
2.750521439252906930e+00
2.750521439252906930e+00
2.750521439252906930e+00
2.686394482253486871e+00
2.686394482253486871e+00
2.513701712088381779e+00
2.513701712088381779e+00
2.167566148869289222e+00
2.167566148869289222e+00
1.985310586870937088e+00
1.985310586870937088e+00
1.986810632648701391e+00
1.986810632648701391e+00
1.767616443372905799e+00
1.767616443372905799e+00
1.521233924375133606e+00
1.521233924375133606e+00
1.564172734763634054e+00
1.564172734763634054e+00
1.564172734763634054e+00
2.141315347758415477e+00
2.141315347758415477e+00
2.545202673421430362e+00
2.545202673421430362e+00
2.744146244697409198e+00
2.744146244697409198e+00
2.845211828974272716e+00
2.845211828974272716e+00
3.082781579027680241e+00
3.082781579027680241e+00
3.240473891415143637e+00
3.240473891415143637e+00
3.022779747917111681e+00
3.022779747917111681e+00
2.746396313364055430e+00
2.746396313364055430e+00
2.238443311868648422e+00
2.238443311868648422e+00
1.550109805597094770e+00
1.550109805597094770e+00
1.550109805597094770e+00
1.483545274208807774e+00
1.483545274208807774e+00
1.520483901486251455e+00
1.520483901486251455e+00
1.423168431653798027e+00
1.423168431653798027e+00
1.846743858149967998e+00
1.846743858149967998e+00
2.245943540757469048e+00
2.245943540757469048e+00
2.763271828363902394e+00
2.763271828363902394e+00
3.146908536027100745e+00
3.146908536027100745e+00
2.987153660695211599e+00
2.987153660695211599e+00
2.756521622363963697e+00
2.756521622363963697e+00
2.756521622363963697e+00
2.575766106143375644e+00
2.575766106143375644e+00
2.529827204199346813e+00
2.529827204199346813e+00
2.590016541032135855e+00
2.590016541032135855e+00
2.474138004699850679e+00
2.474138004699850679e+00
2.324883449812311209e+00
2.324883449812311209e+00
2.486700888088625661e+00
2.486700888088625661e+00
2.481638233588671305e+00
2.481638233588671305e+00
2.234693197424237443e+00
2.234693197424237443e+00
2.234693197424237443e+00
1.972372692037720920e+00
1.972372692037720920e+00
1.806805139316995934e+00
1.806805139316995934e+00
1.954559648426770879e+00
1.954559648426770879e+00
2.138690267647328280e+00
2.138690267647328280e+00
2.088438734092227023e+00
2.088438734092227023e+00
2.041937314981536300e+00
2.041937314981536300e+00
2.044937406537064906e+00
2.044937406537064906e+00
1.872432142094180296e+00
1.872432142094180296e+00
1.872432142094180296e+00
1.791617175817133090e+00
1.791617175817133090e+00
1.689989074373607680e+00
1.689989074373607680e+00
2.187816766869105756e+00
2.187816766869105756e+00
2.462137638477736701e+00
2.462137638477736701e+00
2.580828760643330444e+00
2.580828760643330444e+00
2.914401440473647131e+00
2.914401440473647131e+00
3.057093295083467943e+00
3.057093295083467943e+00
2.982278511917478170e+00
2.982278511917478170e+00
2.709832697531052492e+00
2.709832697531052492e+00
2.568453382976775501e+00
2.422011413922543710e+00
2.422011413922543710e+00
2.453137363811151772e+00
2.453137363811151772e+00
2.511076631977294138e+00
2.511076631977294138e+00
2.223255348368785356e+00
2.223255348368785356e+00
2.161003448591571008e+00
2.161003448591571008e+00
2.281382122257148648e+00
2.281382122257148648e+00
2.255881344035157721e+00
2.255881344035157721e+00
2.357134434034241721e+00
2.357134434034241721e+00
2.059562852870265637e+00
2.059562852870265637e+00
1.726927701651051361e+00
1.726927701651051361e+00
1.726927701651051361e+00
1.610486648152104294e+00
1.610486648152104294e+00
1.828555803094576770e+00
1.828555803094576770e+00
1.965434980315561520e+00
1.965434980315561520e+00
2.284944730979339145e+00
2.284944730979339145e+00
2.482763267921994643e+00
2.482763267921994643e+00
2.760646748252815641e+00
2.760646748252815641e+00
2.682644367809076336e+00
2.682644367809076336e+00
2.646643269142734844e+00
2.646643269142734844e+00
2.646643269142734844e+00
2.759896725363933268e+00
2.759896725363933268e+00
2.974965788750877138e+00
2.974965788750877138e+00
3.013029450361644379e+00
3.013029450361644379e+00
2.764209356975005250e+00
2.764209356975005250e+00
2.434011780144657688e+00
2.434011780144657688e+00
2.181629078035828950e+00
2.181629078035828950e+00
1.934684041871395088e+00
1.934684041871395088e+00
1.726927701651051361e+00
1.726927701651051361e+00
1.726927701651051361e+00
1.598673787652211020e+00
1.598673787652211020e+00
1.724677632984405129e+00
1.724677632984405129e+00
1.957747245704519745e+00
1.957747245704519745e+00
2.096126468703268575e+00
2.096126468703268575e+00
2.128752464369640052e+00
2.128752464369640052e+00
2.099126560258797181e+00
2.099126560258797181e+00
1.701801934873500954e+00
1.701801934873500954e+00
1.524796533097323659e+00
1.524796533097323659e+00
2.022061708426160731e+00
2.022061708426160731e+00
2.022061708426160731e+00
2.414886196478164049e+00
2.414886196478164049e+00
2.566953337199011198e+00
2.566953337199011198e+00
2.949652516251106249e+00
2.949652516251106249e+00
3.261662038026063026e+00
3.261662038026063026e+00
3.365165196691793703e+00
3.365165196691793703e+00
3.020529679250465449e+00
3.020529679250465449e+00
2.741146153141880593e+00
2.741146153141880593e+00
2.469637867366557771e+00
2.469637867366557771e+00
2.419761345255897922e+00
2.419761345255897922e+00
2.370822351756340485e+00
2.370822351756340485e+00
1.891182714316232749e+00
1.891182714316232749e+00
1.709489669484542285e+00
1.709489669484542285e+00
1.999561021759697299e+00
1.999561021759697299e+00
1.997310953093050845e+00
1.997310953093050845e+00
2.122752281258583285e+00
2.122752281258583285e+00
2.122752281258583285e+00
2.445074617755668811e+00
2.445074617755668811e+00
2.736271004364147164e+00
2.736271004364147164e+00
2.794022766808069491e+00
2.794022766808069491e+00
2.628830225531785025e+00
2.628830225531785025e+00
2.360134525589770327e+00
2.360134525589770327e+00
2.268069215979491737e+00
2.268069215979491737e+00
2.292069948423719250e+00
2.292069948423719250e+00
2.249506149479659545e+00
2.249506149479659545e+00
2.284194708090456771e+00
2.284194708090456771e+00
2.284194708090456771e+00
2.290382396923734465e+00
2.290382396923734465e+00
2.256256355479598685e+00
2.256256355479598685e+00
2.326571001312295994e+00
2.326571001312295994e+00
2.259256447035126847e+00
2.259256447035126847e+00
1.982685506759849892e+00
1.982685506759849892e+00
1.723552598651082013e+00
1.723552598651082013e+00
1.609549119541001438e+00
1.609549119541001438e+00
1.371041840876491502e+00
1.371041840876491502e+00
1.371041840876491502e+00
1.423355937376018510e+00
1.423355937376018510e+00
1.782804406872768421e+00
1.782804406872768421e+00
2.403260841700491479e+00
2.403260841700491479e+00
3.085219153416547400e+00
3.085219153416547400e+00
3.157408856471449976e+00
3.157408856471449976e+00
2.852712057863094230e+00
2.852712057863094230e+00
2.668206427198095643e+00
2.668206427198095643e+00
2.452949858088931290e+00
2.452949858088931290e+00
2.452949858088931290e+00
2.484450819421979428e+00
2.484450819421979428e+00
2.455762443922238969e+00
2.455762443922238969e+00
2.446949674977874079e+00
2.446949674977874079e+00
2.408511001922666317e+00
2.408511001922666317e+00
2.457825006866664719e+00
2.457825006866664719e+00
2.368759788811914291e+00
2.368759788811914291e+00
2.115814569536424106e+00
2.115814569536424106e+00
2.010061342204047197e+00
2.010061342204047197e+00
2.214255073702200427e+00
2.214255073702200427e+00
2.193066927091281038e+00
2.193066927091281038e+00
2.424261482589190386e+00
2.424261482589190386e+00
2.921339152195806754e+00
2.921339152195806754e+00
2.838086611529893055e+00
2.838086611529893055e+00
2.527577135532700581e+00
2.527577135532700581e+00
2.331446150090029423e+00
2.331446150090029423e+00
2.167753654591509704e+00
2.167753654591509704e+00
2.167753654591509704e+00
2.071188207647938206e+00
2.071188207647938206e+00
1.914620929593798593e+00
1.914620929593798593e+00
1.872244636371959814e+00
1.872244636371959814e+00
1.895307840205084471e+00
1.895307840205084471e+00
2.316258186590166801e+00
2.316258186590166801e+00
2.682081850642414445e+00
2.682081850642414445e+00
2.803210547196874902e+00
2.803210547196874902e+00
2.809023224585711187e+00
2.809023224585711187e+00
2.809023224585711187e+00
2.709270180364391045e+00
2.709270180364391045e+00
2.720145512253181685e+00
2.720145512253181685e+00
2.538827478865932186e+00
2.538827478865932186e+00
2.374947477645191540e+00
2.374947477645191540e+00
2.230005554368724940e+00
2.230005554368724940e+00
2.124252327036347587e+00
2.124252327036347587e+00
2.126877407147435228e+00
2.126877407147435228e+00
2.119752189703054679e+00
2.119752189703054679e+00
2.119752189703054679e+00
2.128939970091860534e+00
2.128939970091860534e+00
2.141127842036194995e+00
2.141127842036194995e+00
2.222317819757682944e+00
2.222317819757682944e+00
2.210317453535568966e+00
2.210317453535568966e+00
2.249131138035218136e+00
2.249131138035218136e+00
2.301820245979186552e+00
2.301820245979186552e+00
2.280819605090487201e+00
2.280819605090487201e+00
2.092001342814417075e+00
2.092001342814417075e+00
1.709864680928983471e+00
1.709864680928983471e+00
1.709864680928983471e+00
1.737803033539842001e+00
1.737803033539842001e+00
2.085626148258918899e+00
2.085626148258918899e+00
2.186316721091342341e+00
2.186316721091342341e+00
2.118439649647511303e+00
2.118439649647511303e+00
2.100439100314340557e+00
2.100439100314340557e+00
2.360134525589770327e+00
2.360134525589770327e+00
2.461387615588854771e+00
2.461387615588854771e+00
2.686019470809045906e+00
2.686019470809045906e+00
2.971028168584246565e+00
2.971028168584246565e+00
2.971028168584246565e+00
3.232786156804101640e+00
3.232786156804101640e+00
2.903901120029297456e+00
2.903901120029297456e+00
2.342883999145481511e+00
2.342883999145481511e+00
2.025624317148350340e+00
2.025624317148350340e+00
1.959434797204504530e+00
1.959434797204504530e+00
2.032187017426068998e+00
2.032187017426068998e+00
2.150315622425000850e+00
2.150315622425000850e+00
2.159690908536027187e+00
2.159690908536027187e+00
2.366884731589709023e+00
2.366884731589709023e+00
2.366884731589709023e+00
2.464200201422162451e+00
2.464200201422162451e+00
2.438699423200171079e+00
2.438699423200171079e+00
2.277444502090518075e+00
2.277444502090518075e+00
2.304632831812494231e+00
2.304632831812494231e+00
2.514639240699484635e+00
2.514639240699484635e+00
2.523452009643849081e+00
2.523452009643849081e+00
2.531702261421552080e+00
2.531702261421552080e+00
2.636705465865047060e+00
2.636705465865047060e+00
2.636705465865047060e+00
2.625080111087374490e+00
2.625080111087374490e+00
2.574828577532273233e+00
2.574828577532273233e+00
2.525514572588274831e+00
2.525514572588274831e+00
2.263006561479537382e+00
2.263006561479537382e+00
2.037249671926022909e+00
2.037249671926022909e+00
1.876557267983031796e+00
1.876557267983031796e+00
1.866619464705344011e+00
1.866619464705344011e+00
1.941059236426893042e+00
1.941059236426893042e+00
1.941059236426893042e+00
2.030499465926084213e+00
2.296757591479232197e+00
2.296757591479232197e+00
2.296757591479232197e+00
2.494013611255226248e+00
2.669706472975859946e+00
2.669706472975859946e+00
2.631642811365093149e+00
2.533014801477095901e+00
2.533014801477095901e+00
2.447699697866756008e+00
2.516326792199468976e+00
2.516326792199468976e+00
2.718832972197637865e+00
2.443949583422345917e+00
2.443949583422345917e+00
2.183316629535813735e+00
2.194191961424603932e+00
2.194191961424603932e+00
2.111876949369793088e+00
2.077750907925656865e+00
2.077750907925656865e+00
2.059937864314706601e+00
2.048875026703695923e+00
2.137565233314004942e+00
2.137565233314004942e+00
2.359196996978667915e+00
2.364634662923062791e+00
2.364634662923062791e+00
2.342883999145481511e+00
2.354134342478713116e+00
2.354134342478713116e+00
2.374947477645191540e+00
2.157628345591601438e+00
2.157628345591601438e+00
2.060875392925809457e+00
2.269756767479476078e+00
2.269756767479476078e+00
2.325445966978973100e+00
2.329758598590044638e+00
2.329758598590044638e+00
2.413386150700399746e+00
2.410198553422650658e+00
2.410198553422650658e+00
2.445824640644550740e+00
2.443762077700125435e+00
2.443762077700125435e+00
2.504326425977354997e+00
2.446387157811212187e+00
2.446387157811212187e+00
2.310070497756889552e+00
2.366322214423047576e+00
2.366322214423047576e+00
2.490826013977477604e+00
2.490826013977477604e+00
2.370072328867458111e+00
2.159878414258247670e+00
2.159878414258247670e+00
2.093313882869960452e+00
2.034999603259376677e+00
2.034999603259376677e+00
2.100064088869899592e+00
2.190816858424634361e+00
2.190816858424634361e+00
2.363884640034180418e+00
2.557578051087984861e+00
2.557578051087984861e+00
2.700644917142247081e+00
2.705520065919980510e+00
2.705520065919980510e+00
2.545015167699209435e+00
2.412073610644855925e+00
2.412073610644855925e+00
2.425949034089175171e+00
2.293569994201483109e+00
2.293569994201483109e+00
2.045499923703726353e+00
1.988123172704245212e+00
1.988123172704245212e+00
1.874307199316385342e+00
1.858931730094302237e+00
1.858931730094302237e+00
2.034624591814935712e+00
2.213505050813318054e+00
2.213505050813318054e+00
2.413198644978179264e+00
2.688269539475692138e+00
2.688269539475692138e+00
2.559265602587969646e+00
2.438136906033509188e+00
2.438136906033509188e+00
2.470387890255439700e+00
2.430261665700247153e+00
2.430261665700247153e+00
2.442449537644581614e+00
2.391260475478377501e+00
2.391260475478377501e+00
2.339696401867732423e+00
2.373447431867427682e+00
2.373447431867427682e+00
2.274631916257209951e+00
2.212942533646656607e+00
2.212942533646656607e+00
2.259631458479567812e+00
2.246506057924130939e+00
2.246506057924130939e+00
2.282507156590471986e+00
2.326008484145634547e+00
2.326008484145634547e+00
2.383572740867336393e+00
2.538077455977050256e+00
2.538077455977050256e+00
2.503576403088473068e+00
2.359196996978667915e+00
2.359196996978667915e+00
2.289257362590411127e+00
2.317945738090151586e+00
2.317945738090151586e+00
2.350196722312082542e+00
2.337446333201086635e+00
2.337446333201086635e+00
2.228318002868740155e+00
2.244818506424146598e+00
2.244818506424146598e+00
2.307632923368022837e+00
2.250068666646320992e+00
2.250068666646320992e+00
2.231130588702047834e+00
2.308570451979125249e+00
2.308570451979125249e+00
2.331258644367808941e+00
2.331258644367808941e+00
2.331258644367808941e+00
2.326758507034516477e+00
2.326758507034516477e+00
2.256256355479598685e+00
2.256256355479598685e+00
2.263569078646198829e+00
2.263569078646198829e+00
2.245568529313028083e+00
2.245568529313028083e+00
2.248193609424115724e+00
2.248193609424115724e+00
2.505076448866237371e+00
2.505076448866237371e+00
2.575578600421155162e+00
2.575578600421155162e+00
2.445449629200109776e+00
2.445449629200109776e+00
2.411323587755973996e+00
2.411323587755973996e+00
2.411323587755973996e+00
2.394635578478347071e+00
2.394635578478347071e+00
2.347384136478774419e+00
2.347384136478774419e+00
2.374947477645191540e+00
2.374947477645191540e+00
2.395948118533890892e+00
2.395948118533890892e+00
2.378885097811823002e+00
2.378885097811823002e+00
2.359196996978667915e+00
2.359196996978667915e+00
2.280444593646046680e+00
2.280444593646046680e+00
2.287569811090426342e+00
2.287569811090426342e+00
2.216880153813287624e+00
2.216880153813287624e+00
2.216880153813287624e+00
2.269194250312814631e+00
2.269194250312814631e+00
2.278007019257179522e+00
2.278007019257179522e+00
2.253818781090731527e+00
2.253818781090731527e+00
2.222130314035462462e+00
2.222130314035462462e+00
2.187254249702444309e+00
2.187254249702444309e+00
2.074188299203466812e+00
2.074188299203466812e+00
2.089001251258888470e+00
2.089001251258888470e+00
2.269194250312814631e+00
2.269194250312814631e+00
2.440011963255714900e+00
2.440011963255714900e+00
2.440011963255714900e+00
2.486325876644184696e+00
2.486325876644184696e+00
2.502638874477370656e+00
2.502638874477370656e+00
2.524014526810510528e+00
2.524014526810510528e+00
2.535452375865963059e+00
2.535452375865963059e+00
2.483700796533097499e+00
2.483700796533097499e+00
2.222130314035462462e+00
2.222130314035462462e+00
2.198879604480116878e+00
2.198879604480116878e+00
2.360134525589770327e+00
2.360134525589770327e+00
2.360134525589770327e+00
2.303695303201391820e+00
2.303695303201391820e+00
2.188754295480208611e+00
2.188754295480208611e+00
2.119377178258613714e+00
2.119377178258613714e+00
2.187629261146885273e+00
2.187629261146885273e+00
2.327508529923398850e+00
2.327508529923398850e+00
2.362009582811975594e+00
2.362009582811975594e+00
2.433824274422437206e+00
2.433824274422437206e+00
2.470762901699881109e+00
2.470762901699881109e+00
2.470762901699881109e+00
2.483513290810876573e+00
2.483513290810876573e+00
2.510701620532853173e+00
2.510701620532853173e+00
2.359009491256446989e+00
2.359009491256446989e+00
2.329383587145603673e+00
2.329383587145603673e+00
2.280444593646046680e+00
2.280444593646046680e+00
2.193441938535722002e+00
2.193441938535722002e+00
2.189879329813531950e+00
2.189879329813531950e+00
2.304820337534714714e+00
2.304820337534714714e+00
2.304820337534714714e+00
2.229068025757622085e+00
2.229068025757622085e+00
2.243130954924161813e+00
2.243130954924161813e+00
2.314758140812402942e+00
2.314758140812402942e+00
2.349259193700979687e+00
2.349259193700979687e+00
2.480700704977568893e+00
2.480700704977568893e+00
2.419011322367015993e+00
2.419011322367015993e+00
2.372509903256325270e+00
2.372509903256325270e+00
2.443012054811243061e+00
2.443012054811243061e+00
2.325820978423414065e+00
2.325820978423414065e+00
2.308007934812463802e+00
2.308007934812463802e+00
2.294882534257026929e+00
2.294882534257026929e+00
2.294882534257026929e+00
2.159690908536027187e+00
2.159690908536027187e+00
2.149940610980559885e+00
2.149940610980559885e+00
2.212755027924436124e+00
2.212755027924436124e+00
2.343634022034363884e+00
2.343634022034363884e+00
2.413011139255958781e+00
2.413011139255958781e+00
2.453887386700033701e+00
2.453887386700033701e+00
2.513889217810602261e+00
2.513889217810602261e+00
2.497013702810754854e+00
2.497013702810754854e+00
2.497013702810754854e+00
2.413198644978179264e+00
2.413198644978179264e+00
2.401948301644947659e+00
2.401948301644947659e+00
2.290944914090395912e+00
2.290944914090395912e+00
2.182004089480269915e+00
2.182004089480269915e+00
2.230193060090945423e+00
2.230193060090945423e+00
2.281757133701590057e+00
2.281757133701590057e+00
2.181066560869167059e+00
2.181066560869167059e+00
2.208442396313364142e+00
2.208442396313364142e+00
2.208442396313364142e+00
2.235255714590899334e+00
2.235255714590899334e+00
2.312320566423536228e+00
2.312320566423536228e+00
2.343821527756584366e+00
2.343821527756584366e+00
2.379447614978484449e+00
2.379447614978484449e+00
2.480513199255348411e+00
2.480513199255348411e+00
2.418823816644795066e+00
2.418823816644795066e+00
2.312133060701315301e+00
2.312133060701315301e+00
2.393135532700583212e+00
2.393135532700583212e+00
2.433261757255775315e+00
2.433261757255775315e+00
2.433261757255775315e+00
2.342321481978820064e+00
2.342321481978820064e+00
2.258693929868464956e+00
2.258693929868464956e+00
2.123314798425245176e+00
2.123314798425245176e+00
2.122377269814142320e+00
2.122377269814142320e+00
2.231505600146489243e+00
2.231505600146489243e+00
2.398198187200537124e+00
2.398198187200537124e+00
2.563765739921262110e+00
2.563765739921262110e+00
2.446387157811212187e+00
2.446387157811212187e+00
2.308382946256904766e+00
2.308382946256904766e+00
2.316258186590166801e+00
2.316258186590166801e+00
2.316258186590166801e+00
2.449199743644520311e+00
2.449199743644520311e+00
2.477138096255378841e+00
2.477138096255378841e+00
2.487450910977508034e+00
2.487450910977508034e+00
2.343259010589922919e+00
2.343259010589922919e+00
2.248943632312997654e+00
2.248943632312997654e+00
2.219317728202154782e+00
2.219317728202154782e+00
2.141690359202856442e+00
2.141690359202856442e+00
2.091063814203314664e+00
2.091063814203314664e+00
2.091063814203314664e+00
2.119752189703054679e+00
2.119752189703054679e+00
2.227567979979857782e+00
2.227567979979857782e+00
2.396698141422773265e+00
2.396698141422773265e+00
2.512201666310617476e+00
2.512201666310617476e+00
2.543515121921445576e+00
2.543515121921445576e+00
2.532264778588213971e+00
2.532264778588213971e+00
2.474700521866512126e+00
2.474700521866512126e+00
2.485950865199743731e+00
2.485950865199743731e+00
2.457637501144443792e+00
2.457637501144443792e+00
2.457637501144443792e+00
2.313820612201300086e+00
2.313820612201300086e+00
2.291882442701498768e+00
2.291882442701498768e+00
2.258506424146244473e+00
2.258506424146244473e+00
2.213317545091097571e+00
2.213317545091097571e+00
2.232443128757591655e+00
2.232443128757591655e+00
2.320195806756797818e+00
2.320195806756797818e+00
2.403260841700491479e+00
2.403260841700491479e+00
2.376635029145176325e+00
2.376635029145176325e+00
2.376635029145176325e+00
2.287757316812646824e+00
2.287757316812646824e+00
2.236380748924222672e+00
2.236380748924222672e+00
2.094626422925504272e+00
2.094626422925504272e+00
2.096313974425489057e+00
2.096313974425489057e+00
2.316258186590166801e+00
2.316258186590166801e+00
2.323758415478988315e+00
2.323758415478988315e+00
2.270506790368358452e+00
2.270506790368358452e+00
2.285132236701559627e+00
2.285132236701559627e+00
2.285132236701559627e+00
2.266006653035065987e+00
2.266006653035065987e+00
2.335196264534440402e+00
2.335196264534440402e+00
2.421823908200323228e+00
2.421823908200323228e+00
2.414698690755943566e+00
2.414698690755943566e+00
2.330883632923367976e+00
2.330883632923367976e+00
2.367259743034150432e+00
2.367259743034150432e+00
2.415636219367045978e+00
2.415636219367045978e+00
2.545015167699209435e+00
2.545015167699209435e+00
2.545015167699209435e+00
2.520639423810540958e+00
2.520639423810540958e+00
2.346259102145451525e+00
2.346259102145451525e+00
2.339321390423291458e+00
2.339321390423291458e+00
2.239943357646412725e+00
2.239943357646412725e+00
2.196067018646809643e+00
2.196067018646809643e+00
2.189879329813531950e+00
2.189879329813531950e+00
2.154065736869411385e+00
2.154065736869411385e+00
2.215192602313302839e+00
2.215192602313302839e+00
2.215192602313302839e+00
2.312320566423536228e+00
2.312320566423536228e+00
2.365947202978606612e+00
2.365947202978606612e+00
2.412261116367076408e+00
2.412261116367076408e+00
2.459325052644428578e+00
2.459325052644428578e+00
2.476763084810937876e+00
2.476763084810937876e+00
2.468325327311013950e+00
2.468325327311013950e+00
2.367072237311929506e+00
2.367072237311929506e+00
2.333508713034455617e+00
2.333508713034455617e+00
2.333508713034455617e+00
2.306507889034699499e+00
2.306507889034699499e+00
2.221942808313242423e+00
2.221942808313242423e+00
2.229068025757622085e+00
2.229068025757622085e+00
2.206379833368938392e+00
2.206379833368938392e+00
2.182191595202490397e+00
2.182191595202490397e+00
2.250631183812982439e+00
2.250631183812982439e+00
2.356196905423139309e+00
2.356196905423139309e+00
2.425949034089175171e+00
2.425949034089175171e+00
2.441887020477920167e+00
2.441887020477920167e+00
2.441887020477920167e+00
2.465137730033265306e+00
2.465137730033265306e+00
2.443762077700125435e+00
2.443762077700125435e+00
2.379447614978484449e+00
2.379447614978484449e+00
2.327321024201178368e+00
2.327321024201178368e+00
2.331258644367808941e+00
2.331258644367808941e+00
2.251381206701864812e+00
2.251381206701864812e+00
2.198317087313455875e+00
2.198317087313455875e+00
2.272944364757225166e+00
2.272944364757225166e+00
2.272944364757225166e+00
2.254756309701834383e+00
2.254756309701834383e+00
2.244818506424146598e+00
2.244818506424146598e+00
2.273881893368328022e+00
2.273881893368328022e+00
2.271069307535019899e+00
2.271069307535019899e+00
2.312508072145756710e+00
2.312508072145756710e+00
2.394635578478347071e+00
2.394635578478347071e+00
2.519326883754997581e+00
2.519326883754997581e+00
2.655081026642659214e+00
2.655081026642659214e+00
2.596016724143193066e+00
2.596016724143193066e+00
2.596016724143193066e+00
2.445824640644550740e+00
2.445824640644550740e+00
2.367447248756370914e+00
2.367447248756370914e+00
2.222880336924344391e+00
2.222880336924344391e+00
2.198317087313455875e+00
2.198317087313455875e+00
2.232068117313150690e+00
2.232068117313150690e+00
2.201879696035645484e+00
2.201879696035645484e+00
2.203004730368968822e+00
2.203004730368968822e+00
2.244631000701926116e+00
2.244631000701926116e+00
2.263006561479537382e+00
2.263006561479537382e+00
2.263006561479537382e+00
2.289819879757073018e+00
2.289819879757073018e+00
2.309882992034669069e+00
2.309882992034669069e+00
2.337446333201086635e+00
2.337446333201086635e+00
2.372884914700766235e+00
2.372884914700766235e+00
2.361447065645314147e+00
2.361447065645314147e+00
2.377385052034058699e+00
2.377385052034058699e+00
2.394635578478347071e+00
2.394635578478347071e+00
2.308757957701345731e+00
2.308757957701345731e+00
2.308757957701345731e+00
2.305570360423596643e+00
2.305570360423596643e+00
2.299757683034760802e+00
2.299757683034760802e+00
2.312320566423536228e+00
2.312320566423536228e+00
2.373072420422986717e+00
2.373072420422986717e+00
2.335946287423322332e+00
2.335946287423322332e+00
2.314945646534623425e+00
2.314945646534623425e+00
2.333321207312235135e+00
2.333321207312235135e+00
2.356009399700918827e+00
2.356009399700918827e+00
2.356009399700918827e+00
2.412823633533738299e+00
2.412823633533738299e+00
2.391447981200597983e+00
2.391447981200597983e+00
2.345509079256569152e+00
2.345509079256569152e+00
2.398948210089419053e+00
2.398948210089419053e+00
2.383385235145115466e+00
2.383385235145115466e+00
2.261131504257332114e+00
2.261131504257332114e+00
2.227755485702078264e+00
2.227755485702078264e+00
2.161753471480452937e+00
2.161753471480452937e+00
2.161753471480452937e+00
2.113376995147556947e+00
2.113376995147556947e+00
2.157440839869380955e+00
2.157440839869380955e+00
2.247818597979674760e+00
2.247818597979674760e+00
2.239005829035309869e+00
2.239005829035309869e+00
2.287569811090426342e+00
2.287569811090426342e+00
2.351509262367625919e+00
2.351509262367625919e+00
2.435136814477980582e+00
2.435136814477980582e+00
2.465512741477706271e+00
2.465512741477706271e+00
2.413573656422620228e+00
2.413573656422620228e+00
2.413573656422620228e+00
2.418448805200354101e+00
2.418448805200354101e+00
2.395385601367229444e+00
2.395385601367229444e+00
2.358259468367565059e+00
2.358259468367565059e+00
2.406823450422681532e+00
2.406823450422681532e+00
2.359384502700888397e+00
2.359384502700888397e+00
2.306320383312479017e+00
2.306320383312479017e+00
2.334071230201117064e+00
2.334071230201117064e+00
2.320945829645680192e+00
2.320945829645680192e+00
2.320945829645680192e+00
2.296382580034791232e+00
2.296382580034791232e+00
2.338758873256630455e+00
2.338758873256630455e+00
2.351321756645405436e+00
2.351321756645405436e+00
2.395573107089449927e+00
2.395573107089449927e+00
2.378697592089602519e+00
2.378697592089602519e+00
2.340446424756614796e+00
2.340446424756614796e+00
2.370072328867458111e+00
2.370072328867458111e+00
2.277632007812738557e+00
2.277632007812738557e+00
2.277632007812738557e+00
2.226067934202093479e+00
2.226067934202093479e+00
2.214067567979979945e+00
2.214067567979979945e+00
2.161190954313791490e+00
2.161190954313791490e+00
2.158753379924924776e+00
2.158753379924924776e+00
2.183129123813593253e+00
2.183129123813593253e+00
2.227567979979857782e+00
2.227567979979857782e+00
2.330696127201147494e+00
2.330696127201147494e+00
2.389947935422834124e+00
2.389947935422834124e+00
2.421261391033662225e+00
2.421261391033662225e+00
2.421261391033662225e+00
2.487638416699728516e+00
2.487638416699728516e+00
2.461200109866634289e+00
2.461200109866634289e+00
2.455012421033357040e+00
2.455012421033357040e+00
2.435511825922421991e+00
2.435511825922421991e+00
2.359384502700888397e+00
2.359384502700888397e+00
2.350946745200964472e+00
2.350946745200964472e+00
2.308007934812463802e+00
2.308007934812463802e+00
2.243130954924161813e+00
2.243130954924161813e+00
2.205817316202276945e+00
2.205817316202276945e+00
2.256443861201819168e+00
2.256443861201819168e+00
2.256443861201819168e+00
2.326195989867855030e+00
2.326195989867855030e+00
2.324695944090090727e+00
2.324695944090090727e+00
2.294507522812585520e+00
2.294507522812585520e+00
2.363322122867518971e+00
2.363322122867518971e+00
2.389760429700613198e+00
2.389760429700613198e+00
2.351321756645405436e+00
2.351321756645405436e+00
2.408323496200445835e+00
2.408323496200445835e+00
2.370447340311899076e+00
2.370447340311899076e+00
2.281194616534928166e+00
2.281194616534928166e+00
2.280069582201605716e+00
2.280069582201605716e+00
2.280069582201605716e+00
2.276694479201635701e+00
2.276694479201635701e+00
2.249881160924100509e+00
2.249881160924100509e+00
2.260756492812891150e+00
2.260756492812891150e+00
2.284194708090456771e+00
2.284194708090456771e+00
2.299757683034760802e+00
2.299757683034760802e+00
2.318883266701254442e+00
2.318883266701254442e+00
2.344571550645466296e+00
2.344571550645466296e+00
2.379635120700704931e+00
2.379635120700704931e+00
2.371384868923001932e+00
2.371384868923001932e+00
2.371384868923001932e+00
2.338196356089969008e+00
2.338196356089969008e+00
2.395948118533890892e+00
2.395948118533890892e+00
2.351509262367625919e+00
2.351509262367625919e+00
2.282882168034912951e+00
2.282882168034912951e+00
2.237693288979766049e+00
2.237693288979766049e+00
2.193629444257942485e+00
2.193629444257942485e+00
2.182379100924710880e+00
2.182379100924710880e+00
2.227942991424298746e+00
2.227942991424298746e+00
2.227942991424298746e+00
2.242380932035279439e+00
2.302570268868068482e+00
2.302570268868068482e+00
2.362947111423078006e+00
2.362947111423078006e+00
2.387135349589526001e+00
2.387135349589526001e+00
2.420136356700338887e+00
2.420136356700338887e+00
2.420136356700338887e+00
2.353571825312051669e+00
2.353571825312051669e+00
2.359572008423108880e+00
2.359572008423108880e+00
2.388822901089510786e+00
2.388822901089510786e+00
2.306882900479140464e+00
2.306882900479140464e+00
2.276881984923856628e+00
2.276881984923856628e+00
2.254006286812952009e+00
2.254006286812952009e+00
2.234318185979796478e+00
2.234318185979796478e+00
2.234318185979796478e+00
2.266381664479506952e+00
2.266381664479506952e+00
2.270131778923917043e+00
2.270131778923917043e+00
2.264319101535081202e+00
2.264319101535081202e+00
2.299757683034760802e+00
2.299757683034760802e+00
2.324508438367870244e+00
2.324508438367870244e+00
2.360509537034211291e+00
2.360509537034211291e+00
2.444324594866786882e+00
2.444324594866786882e+00
2.440011963255714900e+00
2.440011963255714900e+00
2.453324869533372254e+00
2.453324869533372254e+00
2.453324869533372254e+00
2.448824732200079346e+00
2.448824732200079346e+00
2.350759239478743989e+00
2.350759239478743989e+00
2.287569811090426342e+00
2.287569811090426342e+00
2.208442396313364142e+00
2.208442396313364142e+00
2.167566148869289222e+00
2.167566148869289222e+00
2.204692281868953607e+00
2.204692281868953607e+00
2.247256080813012868e+00
2.247256080813012868e+00
2.289632374034852091e+00
2.289632374034852091e+00
2.289632374034852091e+00
2.323008392590105942e+00
2.323008392590105942e+00
2.320383312479018745e+00
2.320383312479018745e+00
2.371759880367442896e+00
2.371759880367442896e+00
2.372509903256325270e+00
2.372509903256325270e+00
2.341758964812158617e+00
2.341758964812158617e+00
2.386197820978423145e+00
2.386197820978423145e+00
2.351696768089846401e+00
2.351696768089846401e+00
2.275194433423871843e+00
2.275194433423871843e+00
2.259256447035126847e+00
2.259256447035126847e+00
2.259256447035126847e+00
2.222692831202123909e+00
2.222692831202123909e+00
2.203754753257850751e+00
2.203754753257850751e+00
2.222317819757682944e+00
2.222317819757682944e+00
2.248568620868556689e+00
2.248568620868556689e+00
2.308945463423566213e+00
2.308945463423566213e+00
2.345321573534348669e+00
2.345321573534348669e+00
2.361822077089755112e+00
2.361822077089755112e+00
2.415448713644825496e+00
2.415448713644825496e+00
2.415448713644825496e+00
2.422011413922543710e+00
2.422011413922543710e+00
2.388635395367290304e+00
2.388635395367290304e+00
2.422386425366985119e+00
2.422386425366985119e+00
2.327321024201178368e+00
2.327321024201178368e+00
2.271819330423901828e+00
2.271819330423901828e+00
2.280444593646046680e+00
2.280444593646046680e+00
2.222692831202123909e+00
2.222692831202123909e+00
2.199254615924558287e+00
2.199254615924558287e+00
2.199254615924558287e+00
2.232818140202032620e+00
2.232818140202032620e+00
2.268444227423932702e+00
2.268444227423932702e+00
2.331258644367808941e+00
2.331258644367808941e+00
2.359947019867549844e+00
2.359947019867549844e+00
2.384322763756218322e+00
2.384322763756218322e+00
2.435324320200201509e+00
2.435324320200201509e+00
2.397448164311655194e+00
2.397448164311655194e+00
2.392010498367259874e+00
2.392010498367259874e+00
2.372322397534104788e+00
2.372322397534104788e+00
2.267319193090609808e+00
2.267319193090609808e+00
2.246131046479689974e+00
2.246131046479689974e+00
2.231130588702047834e+00
2.231130588702047834e+00
2.211817499313333268e+00
2.211817499313333268e+00
2.242755943479720404e+00
2.242755943479720404e+00
2.242755943479720404e+00
2.257381389812921579e+00
2.257381389812921579e+00
2.302945280312509890e+00
2.302945280312509890e+00
2.351321756645405436e+00
2.351321756645405436e+00
2.355634388256477418e+00
2.355634388256477418e+00
2.392198004089480357e+00
2.392198004089480357e+00
2.401198278756065729e+00
2.401198278756065729e+00
2.370634846034120002e+00
2.370634846034120002e+00
2.370634846034120002e+00
2.386010315256203107e+00
2.386010315256203107e+00
2.346446607867672007e+00
2.346446607867672007e+00
2.266756675923947917e+00
2.266756675923947917e+00
2.250818689535202921e+00
2.250818689535202921e+00
2.216130130924405695e+00
2.216130130924405695e+00
2.208442396313364142e+00
2.208442396313364142e+00
2.227942991424298746e+00
2.227942991424298746e+00
2.232818140202032620e+00
2.232818140202032620e+00
2.232818140202032620e+00
2.279694570757164307e+00
2.279694570757164307e+00
2.332946195867793726e+00
2.332946195867793726e+00
2.330883632923367976e+00
2.330883632923367976e+00
2.382447706534013054e+00
2.382447706534013054e+00
2.392948026978362286e+00
2.392948026978362286e+00
2.371197363200781449e+00
2.371197363200781449e+00
2.413948667867061193e+00
2.413948667867061193e+00
2.358259468367565059e+00
2.358259468367565059e+00
2.358259468367565059e+00
2.314195623645741495e+00
2.314195623645741495e+00
2.297132602923673161e+00
2.297132602923673161e+00
2.252881252479629115e+00
2.252881252479629115e+00
2.238443311868648422e+00
2.238443311868648422e+00
2.247818597979674760e+00
2.247818597979674760e+00
2.260381481368449741e+00
2.260381481368449741e+00
2.318883266701254442e+00
2.318883266701254442e+00
2.365947202978606612e+00
2.365947202978606612e+00
2.365947202978606612e+00
2.378697592089602519e+00
2.378697592089602519e+00
2.414511185033723084e+00
2.414511185033723084e+00
2.390885464033936536e+00
2.390885464033936536e+00
2.361259559923093665e+00
2.361259559923093665e+00
2.375885006256294396e+00
2.375885006256294396e+00
2.296945097201452679e+00
2.296945097201452679e+00
2.267694204535050773e+00
2.267694204535050773e+00
2.244631000701926116e+00
2.244631000701926116e+00
2.211254982146671821e+00
2.211254982146671821e+00
2.211254982146671821e+00
2.227755485702078264e+00
2.227755485702078264e+00
2.238630817590868904e+00
2.238630817590868904e+00
2.253443769646290562e+00
2.253443769646290562e+00
2.293007477034821662e+00
2.293007477034821662e+00
2.306882900479140464e+00
2.306882900479140464e+00
2.341196447645496725e+00
2.341196447645496725e+00
2.384885280922879769e+00
2.384885280922879769e+00
2.365947202978606612e+00
2.365947202978606612e+00
2.365947202978606612e+00
2.392573015533921321e+00
2.392573015533921321e+00
2.383760246589556875e+00
2.383760246589556875e+00
2.299570177312540320e+00
2.299570177312540320e+00
2.279882076479384789e+00
2.279882076479384789e+00
2.225317911313211550e+00
2.225317911313211550e+00
2.202442213202307375e+00
2.202442213202307375e+00
2.225317911313211550e+00
2.225317911313211550e+00
2.240693380535294654e+00
2.240693380535294654e+00
2.240693380535294654e+00
2.290944914090395912e+00
2.290944914090395912e+00
2.340258919034394314e+00
2.340258919034394314e+00
2.348321665089877275e+00
2.348321665089877275e+00
2.377947569200720146e+00
2.377947569200720146e+00
2.366134708700827094e+00
2.366134708700827094e+00
2.346821619312112972e+00
2.346821619312112972e+00
2.404948393200476264e+00
2.404948393200476264e+00
2.357321939756462204e+00
2.357321939756462204e+00
2.357321939756462204e+00
2.276319467757194737e+00
2.276319467757194737e+00
2.234880703146458369e+00
2.234880703146458369e+00
2.221755302591021497e+00
2.221755302591021497e+00
2.230380565813165905e+00
2.230380565813165905e+00
2.247068575090792386e+00
2.247068575090792386e+00
2.266194158757286470e+00
2.266194158757286470e+00
2.312508072145756710e+00
2.312508072145756710e+00
2.346446607867672007e+00
2.346446607867672007e+00
2.364259651478621826e+00
2.364259651478621826e+00
2.401198278756065729e+00
2.401198278756065729e+00
2.401198278756065729e+00
2.386572832422864110e+00
2.386572832422864110e+00
2.358259468367565059e+00
2.358259468367565059e+00
2.394260567033906106e+00
2.394260567033906106e+00
2.321883358256782603e+00
2.321883358256782603e+00
2.273506881923887057e+00
2.273506881923887057e+00
2.244443494979705633e+00
2.244443494979705633e+00
2.193816949980162967e+00
2.193816949980162967e+00
2.212755027924436124e+00
2.212755027924436124e+00
2.238443311868648422e+00
2.238443311868648422e+00
2.238443311868648422e+00
2.249318643757439062e+00
2.249318643757439062e+00
2.296945097201452679e+00
2.296945097201452679e+00
2.324883449812311209e+00
2.324883449812311209e+00
2.348884182256538722e+00
2.348884182256538722e+00
2.389197912533951751e+00
2.389197912533951751e+00
2.359384502700888397e+00
2.359384502700888397e+00
2.362009582811975594e+00
2.362009582811975594e+00
2.375885006256294396e+00
2.375885006256294396e+00
2.375885006256294396e+00
2.287569811090426342e+00
2.287569811090426342e+00
2.257756401257362544e+00
2.257756401257362544e+00
2.228693014313181120e+00
2.228693014313181120e+00
2.183691640980254700e+00
2.183691640980254700e+00
2.224380382702108694e+00
2.224380382702108694e+00
2.239380840479750834e+00
2.239380840479750834e+00
2.271256813257240381e+00
2.271256813257240381e+00
2.332383678701132279e+00
2.332383678701132279e+00
2.332383678701132279e+00
2.356946928312021239e+00
2.356946928312021239e+00
2.407010956144902014e+00
2.407010956144902014e+00
2.432324228644673347e+00
2.432324228644673347e+00
2.396885647144993747e+00
2.396885647144993747e+00
2.423136448255867048e+00
2.423136448255867048e+00
2.391072969756157018e+00
2.391072969756157018e+00
2.300507705923642732e+00
2.300507705923642732e+00
2.281382122257148648e+00
2.281382122257148648e+00
2.281382122257148648e+00
2.228130497146519229e+00
2.228130497146519229e+00
2.207879879146702695e+00
2.207879879146702695e+00
2.249318643757439062e+00
2.249318643757439062e+00
2.261506515701773079e+00
2.261506515701773079e+00
2.296945097201452679e+00
2.296945097201452679e+00
2.327883541367839371e+00
2.327883541367839371e+00
2.332196172978911797e+00
2.332196172978911797e+00
2.379447614978484449e+00
2.379447614978484449e+00
2.379447614978484449e+00
2.390885464033936536e+00
2.390885464033936536e+00
2.353759331034272151e+00
2.353759331034272151e+00
2.384322763756218322e+00
2.384322763756218322e+00
2.311008026367992407e+00
2.311008026367992407e+00
2.249881160924100509e+00
2.249881160924100509e+00
2.235630726035340299e+00
2.235630726035340299e+00
2.199254615924558287e+00
2.199254615924558287e+00
2.192504409924619146e+00
2.192504409924619146e+00
2.243505966368602778e+00
2.243505966368602778e+00
2.243505966368602778e+00
2.266756675923947917e+00
2.266756675923947917e+00
2.318883266701254442e+00
2.318883266701254442e+00
2.373447431867427682e+00
2.373447431867427682e+00
2.387135349589526001e+00
2.387135349589526001e+00
2.404198370311593891e+00
2.404198370311593891e+00
2.369134800256355700e+00
2.369134800256355700e+00
2.349634205145421095e+00
2.349634205145421095e+00
2.382260200811792572e+00
2.382260200811792572e+00
2.382260200811792572e+00
2.303320291756950855e+00
2.303320291756950855e+00
2.251381206701864812e+00
2.251381206701864812e+00
2.217255165257729033e+00
2.217255165257729033e+00
2.186879238258003344e+00
2.186879238258003344e+00
2.211067476424451339e+00
2.211067476424451339e+00
2.225692922757652514e+00
2.225692922757652514e+00
2.251006195257423848e+00
2.251006195257423848e+00
2.314758140812402942e+00
2.314758140812402942e+00
2.314758140812402942e+00
2.343446516312143402e+00
2.343446516312143402e+00
2.377947569200720146e+00
2.377947569200720146e+00
2.409261024811548246e+00
2.409261024811548246e+00
2.384322763756218322e+00
2.384322763756218322e+00
2.387885372478407930e+00
2.387885372478407930e+00
2.380010132145145896e+00
2.380010132145145896e+00
2.294882534257026929e+00
2.294882534257026929e+00
2.275756950590533290e+00
2.275756950590533290e+00
2.249318643757439062e+00
2.249318643757439062e+00
2.229255531479842567e+00
2.229255531479842567e+00
2.244818506424146598e+00
2.244818506424146598e+00
2.244818506424146598e+00
2.254381298257393418e+00
2.254381298257393418e+00
2.294507522812585520e+00
2.294507522812585520e+00
2.342321481978820064e+00
2.343071504867702437e+00
2.343071504867702437e+00
2.381135166478469234e+00
2.381135166478469234e+00
2.391447981200597983e+00
2.391447981200597983e+00
2.367447248756370914e+00
2.367447248756370914e+00
2.391635486922818910e+00
2.391635486922818910e+00
2.336133793145542814e+00
2.336133793145542814e+00
2.261131504257332114e+00
2.261131504257332114e+00
2.261131504257332114e+00
2.244255989257484707e+00
2.244255989257484707e+00
2.205254799035615054e+00
2.205254799035615054e+00
2.206379833368938392e+00
2.206379833368938392e+00
2.228130497146519229e+00
2.228130497146519229e+00
2.227192968535416817e+00
2.227192968535416817e+00
2.275194433423871843e+00
2.275194433423871843e+00
2.338946378978850937e+00
2.338946378978850937e+00
2.360134525589770327e+00
2.360134525589770327e+00
2.409261024811548246e+00
2.409261024811548246e+00
2.409261024811548246e+00
2.396698141422773265e+00
2.396698141422773265e+00
2.364634662923062791e+00
2.364634662923062791e+00
2.409073519089327764e+00
2.409073519089327764e+00
2.335571275978881367e+00
2.335571275978881367e+00
2.279882076479384789e+00
2.279882076479384789e+00
2.252881252479629115e+00
2.252881252479629115e+00
2.209004913480026033e+00
2.209004913480026033e+00
2.210317453535568966e+00
2.210317453535568966e+00
2.210317453535568966e+00
2.237693288979766049e+00
2.237693288979766049e+00
2.260568987090670667e+00
2.260568987090670667e+00
2.318883266701254442e+00
2.318883266701254442e+00
2.360322031311990809e+00
2.360322031311990809e+00
2.384135258033997840e+00
2.384135258033997840e+00
2.416011230811487387e+00
2.416011230811487387e+00
2.391260475478377501e+00
2.391260475478377501e+00
2.380760155034028269e+00
2.380760155034028269e+00
2.386010315256203107e+00
2.386010315256203107e+00
2.386010315256203107e+00
2.289632374034852091e+00
2.289632374034852091e+00
2.248756126590777171e+00
2.248756126590777171e+00
2.219692739646595747e+00
2.219692739646595747e+00
2.183129123813593253e+00
2.183129123813593253e+00
2.193816949980162967e+00
2.193816949980162967e+00
2.218942716757713818e+00
2.218942716757713818e+00
2.261319009979552597e+00
2.261319009979552597e+00
2.321320841090121156e+00
2.321320841090121156e+00
2.340071413312173831e+00
2.340071413312173831e+00
2.340071413312173831e+00
2.379447614978484449e+00
2.379447614978484449e+00
2.402135807367168141e+00
2.402135807367168141e+00
2.373072420422986717e+00
2.396323129978331856e+00
2.396323129978331856e+00
2.396323129978331856e+00
2.370822351756340485e+00
2.370822351756340485e+00
2.280444593646046680e+00
2.280444593646046680e+00
2.257006378368480615e+00
2.257006378368480615e+00
2.207879879146702695e+00
2.207879879146702695e+00
2.185191686758019003e+00
2.185191686758019003e+00
2.220442762535478121e+00
2.220442762535478121e+00
2.248193609424115724e+00
2.248193609424115724e+00
2.302945280312509890e+00
2.302945280312509890e+00
2.302945280312509890e+00
2.344384044923245813e+00
2.344384044923245813e+00
2.357134434034241721e+00
2.357134434034241721e+00
2.403823358867152926e+00
2.403823358867152926e+00
2.413386150700399746e+00
2.413386150700399746e+00
2.361447065645314147e+00
2.361447065645314147e+00
2.390885464033936536e+00
2.390885464033936536e+00
2.323195898312326424e+00
2.323195898312326424e+00
2.269944273201696561e+00
2.269944273201696561e+00
2.245381023590808045e+00
2.245381023590808045e+00
2.245381023590808045e+00
2.205254799035615054e+00
2.205254799035615054e+00
2.206004821924497428e+00
2.206004821924497428e+00
2.230380565813165905e+00
2.230380565813165905e+00
2.245568529313028083e+00
2.245568529313028083e+00
2.314758140812402942e+00
2.314758140812402942e+00
2.347571642200994901e+00
2.347571642200994901e+00
2.367259743034150432e+00
2.367259743034150432e+00
