0.000000000000000000e+00
0.000000000000000000e+00
2.238630817590868904e+00
2.238630817590868904e+00
2.238630817590868904e+00
2.203942258980071234e+00
2.203942258980071234e+00
2.203942258980071234e+00
2.224192876979888212e+00
2.224192876979888212e+00
2.224192876979888212e+00
2.224192876979888212e+00
2.235818231757560781e+00
2.235818231757560781e+00
2.235818231757560781e+00
2.268069215979491737e+00
2.268069215979491737e+00
2.268069215979491737e+00
2.318883266701254442e+00
2.318883266701254442e+00
2.318883266701254442e+00
2.318883266701254442e+00
2.335008758812219920e+00
2.335008758812219920e+00
2.335008758812219920e+00
2.375885006256294396e+00
2.375885006256294396e+00
2.375885006256294396e+00
2.406448438978240567e+00
2.406448438978240567e+00
2.406448438978240567e+00
2.406448438978240567e+00
2.376447523422955843e+00
2.376447523422955843e+00
2.376447523422955843e+00
2.393885555589465142e+00
2.393885555589465142e+00
2.393885555589465142e+00
2.393885555589465142e+00
2.368759788811914291e+00
2.368759788811914291e+00
2.368759788811914291e+00
2.283632190923795324e+00
2.283632190923795324e+00
2.283632190923795324e+00
2.257193884090700653e+00
2.257193884090700653e+00
2.257193884090700653e+00
2.257193884090700653e+00
2.218192693868831444e+00
2.218192693868831444e+00
2.218192693868831444e+00
2.205817316202276945e+00
2.205817316202276945e+00
2.205817316202276945e+00
2.235443220313119816e+00
2.235443220313119816e+00
2.235443220313119816e+00
2.235443220313119816e+00
2.246693563646351421e+00
2.246693563646351421e+00
2.246693563646351421e+00
2.297695120090334608e+00
2.297695120090334608e+00
2.297695120090334608e+00
2.345509079256569152e+00
2.345509079256569152e+00
2.345509079256569152e+00
2.345509079256569152e+00
2.355821893978697901e+00
2.355821893978697901e+00
2.355821893978697901e+00
2.409448530533769173e+00
2.409448530533769173e+00
2.409448530533769173e+00
2.409448530533769173e+00
2.402698324533829588e+00
2.402698324533829588e+00
2.402698324533829588e+00
2.366884731589709023e+00
2.366884731589709023e+00
2.366884731589709023e+00
2.400448255867183356e+00
2.400448255867183356e+00
2.400448255867183356e+00
2.400448255867183356e+00
2.341946470534379099e+00
2.341946470534379099e+00
2.341946470534379099e+00
2.268256721701712220e+00
2.268256721701712220e+00
2.268256721701712220e+00
2.268256721701712220e+00
2.244443494979705633e+00
2.244443494979705633e+00
2.244443494979705633e+00
2.196254524369030126e+00
2.196254524369030126e+00
2.196254524369030126e+00
2.191566881313516735e+00
2.191566881313516735e+00
2.191566881313516735e+00
2.191566881313516735e+00
2.224380382702108694e+00
2.224380382702108694e+00
2.224380382702108694e+00
2.245943540757469048e+00
2.245943540757469048e+00
2.245943540757469048e+00
2.293757499923703591e+00
2.293757499923703591e+00
2.293757499923703591e+00
2.341571459089938134e+00
2.341571459089938134e+00
2.341571459089938134e+00
2.341571459089938134e+00
2.364822168645283273e+00
2.364822168645283273e+00
2.364822168645283273e+00
2.413948667867061193e+00
2.413948667867061193e+00
2.413948667867061193e+00
2.387885372478407930e+00
2.387885372478407930e+00
2.387885372478407930e+00
2.387885372478407930e+00
2.376072511978514878e+00
2.376072511978514878e+00
2.376072511978514878e+00
2.409636036255989211e+00
2.409636036255989211e+00
2.409636036255989211e+00
2.319445783867915889e+00
2.319445783867915889e+00
2.319445783867915889e+00
2.319445783867915889e+00
2.269381756035035114e+00
2.269381756035035114e+00
2.269381756035035114e+00
2.236755760368663637e+00
2.236755760368663637e+00
2.236755760368663637e+00
2.195504501480147752e+00
2.195504501480147752e+00
2.195504501480147752e+00
2.195504501480147752e+00
2.209004913480026033e+00
2.209004913480026033e+00
2.209004913480026033e+00
2.232255623035371173e+00
2.232255623035371173e+00
2.232255623035371173e+00
2.262256538590655452e+00
2.262256538590655452e+00
2.262256538590655452e+00
2.262256538590655452e+00
2.319258278145695407e+00
2.319258278145695407e+00
2.319258278145695407e+00
2.346821619312112972e+00
2.346821619312112972e+00
2.346821619312112972e+00
2.380947660756248752e+00
2.380947660756248752e+00
2.380947660756248752e+00
2.380947660756248752e+00
2.411136082033753514e+00
2.411136082033753514e+00
2.411136082033753514e+00
2.379072603534043484e+00
2.379072603534043484e+00
2.379072603534043484e+00
2.389572923978392716e+00
2.389572923978392716e+00
2.389572923978392716e+00
2.389572923978392716e+00
2.389197912533951751e+00
2.389197912533951751e+00
2.389197912533951751e+00
2.292069948423719250e+00
2.292069948423719250e+00
2.292069948423719250e+00
2.260756492812891150e+00
2.260756492812891150e+00
2.260756492812891150e+00
2.260756492812891150e+00
2.226255439924313961e+00
2.226255439924313961e+00
2.226255439924313961e+00
2.190816858424634361e+00
2.190816858424634361e+00
2.190816858424634361e+00
2.190816858424634361e+00
2.222880336924344391e+00
2.222880336924344391e+00
2.222880336924344391e+00
2.241630909146397510e+00
2.241630909146397510e+00
2.241630909146397510e+00
2.280632099368266719e+00
2.280632099368266719e+00
2.280632099368266719e+00
2.280632099368266719e+00
2.334821253089998994e+00
2.334821253089998994e+00
2.334821253089998994e+00
2.350571733756523507e+00
2.350571733756523507e+00
2.350571733756523507e+00
2.397823175756096159e+00
2.397823175756096159e+00
2.397823175756096159e+00
2.397823175756096159e+00
2.406260933256020085e+00
2.406260933256020085e+00
2.406260933256020085e+00
2.371197363200781449e+00
2.371197363200781449e+00
2.371197363200781449e+00
2.404760887478255782e+00
2.404760887478255782e+00
2.404760887478255782e+00
2.404760887478255782e+00
2.363322122867518971e+00
2.363322122867518971e+00
2.363322122867518971e+00
2.284569719534897736e+00
2.284569719534897736e+00
2.284569719534897736e+00
2.261506515701773079e+00
2.261506515701773079e+00
2.261506515701773079e+00
2.261506515701773079e+00
2.206192327646717910e+00
2.206192327646717910e+00
2.206192327646717910e+00
2.189316812646870059e+00
2.189316812646870059e+00
2.189316812646870059e+00
2.226630451368755370e+00
2.226630451368755370e+00
2.226630451368755370e+00
2.243693472090823260e+00
2.243693472090823260e+00
2.243693472090823260e+00
2.291132419812616394e+00
2.291132419812616394e+00
2.291132419812616394e+00
2.291132419812616394e+00
2.335008758812219920e+00
2.335008758812219920e+00
2.335008758812219920e+00
2.355446882534256936e+00
2.355446882534256936e+00
2.355446882534256936e+00
2.408135990478225352e+00
2.408135990478225352e+00
2.408135990478225352e+00
2.408135990478225352e+00
2.401573290200506694e+00
2.401573290200506694e+00
2.401573290200506694e+00
2.371759880367442896e+00
2.371759880367442896e+00
2.371759880367442896e+00
2.402510818811609106e+00
2.402510818811609106e+00
2.402510818811609106e+00
2.402510818811609106e+00
2.333321207312235135e+00
2.333321207312235135e+00
2.333321207312235135e+00
2.273881893368328022e+00
2.273881893368328022e+00
2.273881893368328022e+00
2.248568620868556689e+00
2.248568620868556689e+00
2.248568620868556689e+00
2.248568620868556689e+00
2.193816949980162967e+00
2.193816949980162967e+00
2.193816949980162967e+00
2.198504593035676358e+00
2.198504593035676358e+00
2.198504593035676358e+00
2.198504593035676358e+00
2.230380565813165905e+00
2.230380565813165905e+00
2.230380565813165905e+00
2.253818781090731527e+00
2.253818781090731527e+00
2.253818781090731527e+00
2.319070772423474924e+00
2.319070772423474924e+00
2.319070772423474924e+00
2.319070772423474924e+00
2.352071779534287366e+00
2.352071779534287366e+00
2.352071779534287366e+00
2.371009857478560967e+00
2.371009857478560967e+00
2.371009857478560967e+00
2.412073610644855925e+00
2.412073610644855925e+00
2.412073610644855925e+00
2.412073610644855925e+00
2.384510269478438804e+00
2.384510269478438804e+00
2.384510269478438804e+00
2.376447523422955843e+00
2.376447523422955843e+00
2.376447523422955843e+00
2.397073152867214230e+00
2.397073152867214230e+00
2.397073152867214230e+00
2.397073152867214230e+00
2.310070497756889552e+00
2.310070497756889552e+00
2.310070497756889552e+00
2.267131687368389326e+00
2.267131687368389326e+00
2.267131687368389326e+00
2.231880611590930208e+00
2.231880611590930208e+00
2.231880611590930208e+00
2.231880611590930208e+00
2.198317087313455875e+00
2.198317087313455875e+00
2.198317087313455875e+00
2.215380108035523765e+00
2.215380108035523765e+00
2.215380108035523765e+00
2.215380108035523765e+00
2.233193151646474028e+00
2.233193151646474028e+00
2.233193151646474028e+00
2.267319193090609808e+00
2.267319193090609808e+00
2.267319193090609808e+00
2.331258644367808941e+00
2.331258644367808941e+00
2.331258644367808941e+00
2.331258644367808941e+00
2.347759147923215384e+00
2.347759147923215384e+00
2.347759147923215384e+00
2.392385509811700839e+00
2.392385509811700839e+00
2.392385509811700839e+00
2.418823816644795066e+00
2.418823816644795066e+00
2.418823816644795066e+00
2.418823816644795066e+00
2.374009949034089573e+00
2.374009949034089573e+00
2.374009949034089573e+00
2.393510544145024177e+00
2.393510544145024177e+00
2.393510544145024177e+00
2.372697408978545752e+00
2.372697408978545752e+00
2.372697408978545752e+00
2.372697408978545752e+00
2.280632099368266719e+00
2.280632099368266719e+00
2.280632099368266719e+00
2.257381389812921579e+00
2.257381389812921579e+00
2.257381389812921579e+00
2.257381389812921579e+00
2.212755027924436124e+00
2.212755027924436124e+00
2.212755027924436124e+00
2.191379375591296252e+00
2.191379375591296252e+00
2.191379375591296252e+00
2.220255256813257638e+00
2.220255256813257638e+00
2.220255256813257638e+00
2.220255256813257638e+00
2.240505874813074172e+00
2.240505874813074172e+00
2.240505874813074172e+00
2.288694845423749680e+00
2.288694845423749680e+00
2.288694845423749680e+00
2.340071413312173831e+00
2.340071413312173831e+00
2.340071413312173831e+00
2.340071413312173831e+00
2.353384319589831186e+00
2.353384319589831186e+00
2.353384319589831186e+00
2.404385876033814373e+00
2.404385876033814373e+00
2.404385876033814373e+00
2.412636127811517817e+00
2.412636127811517817e+00
2.412636127811517817e+00
2.412636127811517817e+00
2.372134891811884305e+00
2.372134891811884305e+00
2.372134891811884305e+00
2.404760887478255782e+00
2.404760887478255782e+00
2.404760887478255782e+00
2.345509079256569152e+00
2.345509079256569152e+00
2.345509079256569152e+00
2.345509079256569152e+00
2.271069307535019899e+00
2.271069307535019899e+00
2.271069307535019899e+00
2.258693929868464956e+00
2.258693929868464956e+00
2.258693929868464956e+00
2.205817316202276945e+00
2.205817316202276945e+00
2.205817316202276945e+00
2.205817316202276945e+00
2.194941984313486305e+00
2.194941984313486305e+00
2.194941984313486305e+00
2.230755577257606870e+00
2.230755577257606870e+00
2.230755577257606870e+00
2.246131046479689974e+00
2.246131046479689974e+00
2.246131046479689974e+00
2.246131046479689974e+00
2.297507614368114126e+00
2.297507614368114126e+00
2.297507614368114126e+00
2.338008850367748082e+00
2.338008850367748082e+00
2.338008850367748082e+00
2.366884731589709023e+00
2.366884731589709023e+00
2.366884731589709023e+00
2.366884731589709023e+00
2.422011413922543710e+00
2.422011413922543710e+00
2.422011413922543710e+00
2.401948301644947659e+00
2.401948301644947659e+00
2.401948301644947659e+00
2.372884914700766235e+00
2.372884914700766235e+00
2.372884914700766235e+00
2.372884914700766235e+00
2.410761070589312105e+00
2.410761070589312105e+00
2.410761070589312105e+00
2.325070955534531691e+00
2.325070955534531691e+00
2.325070955534531691e+00
2.269381756035035114e+00
2.269381756035035114e+00
2.269381756035035114e+00
2.269381756035035114e+00
2.247818597979674760e+00
2.247818597979674760e+00
2.247818597979674760e+00
2.200754661702322146e+00
2.200754661702322146e+00
2.200754661702322146e+00
2.213505050813318054e+00
2.213505050813318054e+00
2.213505050813318054e+00
2.213505050813318054e+00
2.239193334757530351e+00
2.239193334757530351e+00
2.239193334757530351e+00
2.263569078646198829e+00
2.263569078646198829e+00
2.263569078646198829e+00
2.263569078646198829e+00
2.315508163701284872e+00
2.315508163701284872e+00
2.315508163701284872e+00
2.344196539201025331e+00
2.344196539201025331e+00
2.344196539201025331e+00
2.368009765923032361e+00
2.368009765923032361e+00
2.368009765923032361e+00
2.368009765923032361e+00
2.409636036255989211e+00
2.409636036255989211e+00
2.409636036255989211e+00
2.369509811700796664e+00
2.369509811700796664e+00
2.369509811700796664e+00
2.373072420422986717e+00
2.373072420422986717e+00
2.373072420422986717e+00
2.373072420422986717e+00
2.383947752311777357e+00
2.383947752311777357e+00
2.383947752311777357e+00
2.295257545701467894e+00
2.295257545701467894e+00
2.295257545701467894e+00
2.259818964201788294e+00
2.259818964201788294e+00
2.259818964201788294e+00
2.259818964201788294e+00
2.223817865535447247e+00
2.223817865535447247e+00
2.223817865535447247e+00
2.184441663869136629e+00
2.184441663869136629e+00
2.184441663869136629e+00
2.215192602313302839e+00
2.215192602313302839e+00
2.215192602313302839e+00
2.215192602313302839e+00
2.242755943479720404e+00
2.242755943479720404e+00
2.242755943479720404e+00
2.290007385479293500e+00
2.290007385479293500e+00
2.290007385479293500e+00
2.290007385479293500e+00
2.343071504867702437e+00
2.343071504867702437e+00
2.343071504867702437e+00
2.346634113589892490e+00
2.346634113589892490e+00
2.346634113589892490e+00
2.389947935422834124e+00
2.389947935422834124e+00
2.389947935422834124e+00
2.389947935422834124e+00
2.408323496200445835e+00
2.408323496200445835e+00
2.408323496200445835e+00
2.369697317423017147e+00
2.369697317423017147e+00
2.369697317423017147e+00
2.395573107089449927e+00
2.395573107089449927e+00
2.395573107089449927e+00
2.395573107089449927e+00
2.359384502700888397e+00
2.359384502700888397e+00
2.359384502700888397e+00
2.286257271034882521e+00
2.286257271034882521e+00
2.286257271034882521e+00
2.271819330423901828e+00
2.271819330423901828e+00
2.271819330423901828e+00
2.271819330423901828e+00
2.218567705313272853e+00
2.218567705313272853e+00
2.218567705313272853e+00
2.195692007202368234e+00
2.195692007202368234e+00
2.195692007202368234e+00
2.231318094424268317e+00
2.231318094424268317e+00
2.231318094424268317e+00
2.231318094424268317e+00
2.254006286812952009e+00
2.254006286812952009e+00
2.254006286812952009e+00
2.304820337534714714e+00
2.304820337534714714e+00
2.304820337534714714e+00
2.350759239478743989e+00
2.350759239478743989e+00
2.350759239478743989e+00
2.350759239478743989e+00
2.353571825312051669e+00
2.353571825312051669e+00
2.353571825312051669e+00
2.398385692922757606e+00
2.398385692922757606e+00
2.398385692922757606e+00
2.398385692922757606e+00
2.400635761589403838e+00
2.400635761589403838e+00
2.400635761589403838e+00
2.365572191534165203e+00
2.365572191534165203e+00
2.365572191534165203e+00
2.401948301644947659e+00
2.401948301644947659e+00
2.401948301644947659e+00
2.401948301644947659e+00
2.338008850367748082e+00
2.338008850367748082e+00
2.338008850367748082e+00
2.273131870479445649e+00
2.273131870479445649e+00
2.273131870479445649e+00
2.251568712424085295e+00
2.251568712424085295e+00
2.251568712424085295e+00
2.251568712424085295e+00
2.200567155980101663e+00
2.200567155980101663e+00
2.200567155980101663e+00
2.201129673146763555e+00
2.201129673146763555e+00
2.201129673146763555e+00
2.230005554368724940e+00
2.230005554368724940e+00
2.230005554368724940e+00
2.230005554368724940e+00
2.250818689535202921e+00
2.250818689535202921e+00
2.250818689535202921e+00
2.311570543534653854e+00
2.311570543534653854e+00
2.311570543534653854e+00
2.351509262367625919e+00
2.351509262367625919e+00
2.351509262367625919e+00
2.351509262367625919e+00
2.368947294534135217e+00
2.368947294534135217e+00
2.368947294534135217e+00
2.414511185033723084e+00
2.414511185033723084e+00
2.414511185033723084e+00
2.414511185033723084e+00
2.391447981200597983e+00
2.391447981200597983e+00
2.391447981200597983e+00
2.377572557756279181e+00
2.377572557756279181e+00
2.377572557756279181e+00
2.396885647144993747e+00
2.396885647144993747e+00
2.396885647144993747e+00
2.396885647144993747e+00
2.310445509201330516e+00
2.310445509201330516e+00
2.310445509201330516e+00
2.265631641590625023e+00
2.265631641590625023e+00
2.265631641590625023e+00
2.233755668813135031e+00
2.233755668813135031e+00
2.233755668813135031e+00
2.233755668813135031e+00
2.187254249702444309e+00
2.187254249702444309e+00
2.187254249702444309e+00
2.205067293313394572e+00
2.205067293313394572e+00
2.205067293313394572e+00
2.229443037202063049e+00
2.229443037202063049e+00
2.229443037202063049e+00
2.229443037202063049e+00
2.257568895535142062e+00
2.257568895535142062e+00
2.257568895535142062e+00
2.319445783867915889e+00
2.319445783867915889e+00
2.319445783867915889e+00
2.346634113589892490e+00
2.346634113589892490e+00
2.346634113589892490e+00
2.346634113589892490e+00
2.380197637867366822e+00
2.380197637867366822e+00
2.380197637867366822e+00
2.409636036255989211e+00
2.409636036255989211e+00
2.409636036255989211e+00
2.371759880367442896e+00
2.371759880367442896e+00
2.371759880367442896e+00
2.371759880367442896e+00
2.388822901089510786e+00
2.388822901089510786e+00
2.388822901089510786e+00
2.381885189367351607e+00
2.381885189367351607e+00
2.381885189367351607e+00
2.299945188756981285e+00
2.299945188756981285e+00
2.299945188756981285e+00
2.299945188756981285e+00
2.278569536423841413e+00
2.278569536423841413e+00
2.278569536423841413e+00
2.235818231757560781e+00
2.235818231757560781e+00
2.235818231757560781e+00
2.206004821924497428e+00
2.206004821924497428e+00
2.206004821924497428e+00
2.206004821924497428e+00
2.229630542924283532e+00
2.229630542924283532e+00
2.229630542924283532e+00
2.239193334757530351e+00
2.239193334757530351e+00
2.239193334757530351e+00
2.288319833979308715e+00
2.288319833979308715e+00
2.288319833979308715e+00
2.288319833979308715e+00
2.336696310312204705e+00
2.336696310312204705e+00
2.336696310312204705e+00
2.340821436201055761e+00
2.340821436201055761e+00
2.340821436201055761e+00
2.378697592089602519e+00
2.378697592089602519e+00
2.378697592089602519e+00
2.378697592089602519e+00
2.363134617145298488e+00
2.363134617145298488e+00
2.363134617145298488e+00
2.317570726645710621e+00
2.317570726645710621e+00
2.317570726645710621e+00
2.357884456923124095e+00
2.357884456923124095e+00
2.357884456923124095e+00
2.357884456923124095e+00
2.317758232367931104e+00
2.317758232367931104e+00
2.317758232367931104e+00
2.250068666646320992e+00
2.250068666646320992e+00
2.250068666646320992e+00
2.235630726035340299e+00
2.235630726035340299e+00
2.235630726035340299e+00
2.235630726035340299e+00
2.191566881313516735e+00
2.191566881313516735e+00
2.191566881313516735e+00
2.185566698202459968e+00
2.185566698202459968e+00
2.185566698202459968e+00
2.220817773979919085e+00
2.220817773979919085e+00
2.220817773979919085e+00
2.220817773979919085e+00
2.246318552201910457e+00
2.246318552201910457e+00
2.246318552201910457e+00
2.306320383312479017e+00
2.306320383312479017e+00
2.306320383312479017e+00
2.306320383312479017e+00
2.343259010589922919e+00
2.343259010589922919e+00
2.343259010589922919e+00
2.353009308145390222e+00
2.353009308145390222e+00
2.353009308145390222e+00
2.405510910367137711e+00
2.405510910367137711e+00
2.405510910367137711e+00
2.405510910367137711e+00
2.387510361033966966e+00
2.387510361033966966e+00
2.387510361033966966e+00
2.367447248756370914e+00
2.367447248756370914e+00
2.367447248756370914e+00
2.413011139255958781e+00
2.413011139255958781e+00
2.413011139255958781e+00
2.413011139255958781e+00
2.353946836756492633e+00
2.353946836756492633e+00
2.353946836756492633e+00
2.315508163701284872e+00
2.315508163701284872e+00
2.315508163701284872e+00
2.293382488479262626e+00
2.293382488479262626e+00
2.293382488479262626e+00
2.293382488479262626e+00
2.229068025757622085e+00
2.229068025757622085e+00
2.229068025757622085e+00
2.238818323313089387e+00
2.238818323313089387e+00
2.238818323313089387e+00
2.255881344035157721e+00
2.255881344035157721e+00
2.255881344035157721e+00
2.255881344035157721e+00
2.276319467757194737e+00
2.276319467757194737e+00
2.276319467757194737e+00
2.326008484145634547e+00
2.326008484145634547e+00
2.326008484145634547e+00
2.326008484145634547e+00
2.340071413312173831e+00
2.340071413312173831e+00
2.340071413312173831e+00
2.357134434034241721e+00
2.357134434034241721e+00
2.357134434034241721e+00
2.403448347422711961e+00
2.403448347422711961e+00
2.403448347422711961e+00
2.403448347422711961e+00
2.379260109256263966e+00
2.379260109256263966e+00
2.379260109256263966e+00
2.390697958311716054e+00
2.390697958311716054e+00
2.390697958311716054e+00
2.408135990478225352e+00
2.408135990478225352e+00
2.408135990478225352e+00
2.408135990478225352e+00
2.319445783867915889e+00
2.319445783867915889e+00
2.319445783867915889e+00
2.277819513534959039e+00
2.277819513534959039e+00
2.277819513534959039e+00
2.243318460646382295e+00
2.243318460646382295e+00
2.243318460646382295e+00
2.243318460646382295e+00
2.211254982146671821e+00
2.211254982146671821e+00
2.211254982146671821e+00
2.226817957090975852e+00
2.226817957090975852e+00
2.226817957090975852e+00
2.239943357646412725e+00
2.239943357646412725e+00
2.239943357646412725e+00
2.239943357646412725e+00
2.279694570757164307e+00
2.279694570757164307e+00
2.279694570757164307e+00
2.335008758812219920e+00
2.335008758812219920e+00
2.335008758812219920e+00
2.344946562089907705e+00
2.344946562089907705e+00
2.344946562089907705e+00
2.344946562089907705e+00
2.386197820978423145e+00
2.386197820978423145e+00
2.386197820978423145e+00
2.407760979033784388e+00
2.407760979033784388e+00
2.407760979033784388e+00
2.380010132145145896e+00
2.380010132145145896e+00
2.380010132145145896e+00
2.380010132145145896e+00
2.407760979033784388e+00
2.407760979033784388e+00
2.407760979033784388e+00
2.376447523422955843e+00
2.376447523422955843e+00
2.376447523422955843e+00
2.376447523422955843e+00
2.293007477034821662e+00
2.293007477034821662e+00
2.293007477034821662e+00
2.268631733146153184e+00
2.268631733146153184e+00
2.268631733146153184e+00
2.210879970702230857e+00
2.210879970702230857e+00
2.210879970702230857e+00
2.210879970702230857e+00
2.188566789757988129e+00
2.188566789757988129e+00
2.188566789757988129e+00
2.212755027924436124e+00
2.212755027924436124e+00
2.212755027924436124e+00
2.222880336924344391e+00
2.222880336924344391e+00
2.222880336924344391e+00
2.222880336924344391e+00
2.272006836146122755e+00
2.272006836146122755e+00
2.272006836146122755e+00
2.322633381145664977e+00
2.322633381145664977e+00
2.322633381145664977e+00
2.343071504867702437e+00
2.343071504867702437e+00
2.343071504867702437e+00
2.343071504867702437e+00
2.401385784478286212e+00
2.401385784478286212e+00
2.401385784478286212e+00
2.398948210089419053e+00
2.398948210089419053e+00
2.398948210089419053e+00
2.367822260200811879e+00
2.367822260200811879e+00
2.367822260200811879e+00
2.367822260200811879e+00
2.409073519089327764e+00
2.409073519089327764e+00
2.409073519089327764e+00
2.342321481978820064e+00
2.342321481978820064e+00
2.342321481978820064e+00
2.342321481978820064e+00
2.268819238868374111e+00
2.268819238868374111e+00
2.268819238868374111e+00
2.242193426313058957e+00
2.242193426313058957e+00
2.242193426313058957e+00
2.185754203924680450e+00
2.185754203924680450e+00
2.185754203924680450e+00
2.185754203924680450e+00
2.190816858424634361e+00
2.190816858424634361e+00
2.190816858424634361e+00
2.229818048646504014e+00
2.229818048646504014e+00
2.229818048646504014e+00
2.254568803979613900e+00
2.254568803979613900e+00
2.254568803979613900e+00
2.254568803979613900e+00
2.311570543534653854e+00
2.311570543534653854e+00
2.311570543534653854e+00
2.345884090701010116e+00
2.345884090701010116e+00
2.345884090701010116e+00
2.359759514145329362e+00
2.359759514145329362e+00
2.359759514145329362e+00
2.359759514145329362e+00
2.410011047700430176e+00
2.410011047700430176e+00
2.410011047700430176e+00
2.392573015533921321e+00
2.392573015533921321e+00
2.392573015533921321e+00
2.378697592089602519e+00
2.378697592089602519e+00
2.378697592089602519e+00
2.378697592089602519e+00
2.407010956144902014e+00
2.407010956144902014e+00
2.407010956144902014e+00
2.320195806756797818e+00
2.320195806756797818e+00
2.320195806756797818e+00
2.275194433423871843e+00
2.275194433423871843e+00
2.275194433423871843e+00
2.275194433423871843e+00
2.246318552201910457e+00
2.246318552201910457e+00
2.246318552201910457e+00
2.195692007202368234e+00
2.195692007202368234e+00
2.195692007202368234e+00
2.209567430646687480e+00
2.209567430646687480e+00
2.209567430646687480e+00
2.231318094424268317e+00
2.231318094424268317e+00
2.231318094424268317e+00
2.231318094424268317e+00
2.263944090090640238e+00
2.263944090090640238e+00
2.263944090090640238e+00
2.324695944090090727e+00
2.324695944090090727e+00
2.324695944090090727e+00
2.324695944090090727e+00
2.345884090701010116e+00
2.345884090701010116e+00
2.345884090701010116e+00
2.378510086367381593e+00
2.378510086367381593e+00
2.378510086367381593e+00
2.415073702200384531e+00
2.415073702200384531e+00
2.415073702200384531e+00
2.415073702200384531e+00
2.384510269478438804e+00
2.384510269478438804e+00
2.384510269478438804e+00
2.398760704367198571e+00
2.398760704367198571e+00
2.398760704367198571e+00
2.388260383922848895e+00
2.388260383922848895e+00
2.388260383922848895e+00
2.388260383922848895e+00
2.300320200201422249e+00
2.300320200201422249e+00
2.300320200201422249e+00
2.276131962034974254e+00
2.276131962034974254e+00
2.276131962034974254e+00
2.238255806146427940e+00
2.238255806146427940e+00
2.238255806146427940e+00
2.238255806146427940e+00
2.200567155980101663e+00
2.200567155980101663e+00
2.200567155980101663e+00
2.226255439924313961e+00
2.226255439924313961e+00
2.226255439924313961e+00
2.232068117313150690e+00
2.232068117313150690e+00
2.232068117313150690e+00
2.232068117313150690e+00
2.269381756035035114e+00
2.269381756035035114e+00
2.269381756035035114e+00
2.320758323923459709e+00
2.320758323923459709e+00
2.320758323923459709e+00
2.341196447645496725e+00
2.341196447645496725e+00
2.341196447645496725e+00
2.341196447645496725e+00
2.396323129978331856e+00
2.396323129978331856e+00
2.396323129978331856e+00
2.412823633533738299e+00
2.412823633533738299e+00
2.412823633533738299e+00
2.412823633533738299e+00
2.377385052034058699e+00
2.377385052034058699e+00
2.377385052034058699e+00
2.419198828089236475e+00
2.419198828089236475e+00
2.419198828089236475e+00
2.366884731589709023e+00
2.366884731589709023e+00
2.366884731589709023e+00
2.366884731589709023e+00
2.286819788201544412e+00
2.286819788201544412e+00
2.286819788201544412e+00
2.266756675923947917e+00
2.266756675923947917e+00
2.266756675923947917e+00
2.217630176702169997e+00
2.217630176702169997e+00
2.217630176702169997e+00
2.217630176702169997e+00
2.200942167424543072e+00
2.200942167424543072e+00
2.200942167424543072e+00
2.222130314035462462e+00
2.222130314035462462e+00
2.222130314035462462e+00
2.231505600146489243e+00
2.231505600146489243e+00
2.231505600146489243e+00
2.231505600146489243e+00
2.284382213812677254e+00
2.284382213812677254e+00
2.284382213812677254e+00
2.329196081423383191e+00
2.329196081423383191e+00
2.329196081423383191e+00
2.350009216589862060e+00
2.350009216589862060e+00
2.350009216589862060e+00
2.395573107089449927e+00
2.395573107089449927e+00
2.395573107089449927e+00
2.395573107089449927e+00
2.386947843867305519e+00
2.386947843867305519e+00
2.386947843867305519e+00
2.364447157200842309e+00
2.364447157200842309e+00
2.364447157200842309e+00
2.403823358867152926e+00
2.403823358867152926e+00
2.403823358867152926e+00
2.403823358867152926e+00
2.328821069978942226e+00
2.328821069978942226e+00
2.328821069978942226e+00
2.260943998535111632e+00
2.260943998535111632e+00
2.260943998535111632e+00
2.235443220313119816e+00
2.235443220313119816e+00
2.235443220313119816e+00
2.235443220313119816e+00
2.191566881313516735e+00
2.191566881313516735e+00
2.191566881313516735e+00
2.194004455702383449e+00
2.194004455702383449e+00
2.194004455702383449e+00
2.223630359813226764e+00
2.223630359813226764e+00
2.223630359813226764e+00
2.223630359813226764e+00
2.243693472090823260e+00
2.243693472090823260e+00
2.243693472090823260e+00
2.306507889034699499e+00
2.306507889034699499e+00
2.306507889034699499e+00
2.356384411145359792e+00
2.356384411145359792e+00
2.356384411145359792e+00
2.386197820978423145e+00
2.386197820978423145e+00
2.433074251533554833e+00
2.433074251533554833e+00
2.405135898922696747e+00
2.405135898922696747e+00
2.399698232978301426e+00
2.399698232978301426e+00
2.407010956144902014e+00
2.407010956144902014e+00
2.309132969145787140e+00
2.309132969145787140e+00
2.272569353312784202e+00
2.272569353312784202e+00
2.272569353312784202e+00
2.247443586535233351e+00
2.247443586535233351e+00
2.209567430646687480e+00
2.209567430646687480e+00
2.222692831202123909e+00
2.222692831202123909e+00
2.230005554368724940e+00
2.230005554368724940e+00
2.260006469924008776e+00
2.260006469924008776e+00
2.324320932645649762e+00
2.324320932645649762e+00
2.341571459089938134e+00
2.341571459089938134e+00
2.381885189367351607e+00
2.381885189367351607e+00
2.381885189367351607e+00
2.403073335978270997e+00
2.403073335978270997e+00
2.365572191534165203e+00
2.365572191534165203e+00
2.388822901089510786e+00
2.388822901089510786e+00
2.373634937589648164e+00
2.373634937589648164e+00
2.280444593646046680e+00
2.280444593646046680e+00
2.257568895535142062e+00
2.257568895535142062e+00
2.208254890591143660e+00
2.208254890591143660e+00
2.192879421369060555e+00
2.192879421369060555e+00
2.192879421369060555e+00
2.223255348368785356e+00
2.223255348368785356e+00
2.238255806146427940e+00
2.238255806146427940e+00
2.283632190923795324e+00
2.283632190923795324e+00
2.339508896145511940e+00
2.339508896145511940e+00
2.350571733756523507e+00
2.350571733756523507e+00
2.405135898922696747e+00
2.405135898922696747e+00
2.406448438978240567e+00
2.406448438978240567e+00
2.364447157200842309e+00
2.364447157200842309e+00
2.406823450422681532e+00
2.406823450422681532e+00
2.406823450422681532e+00
2.349821710867641578e+00
2.349821710867641578e+00
2.279319559312723342e+00
2.279319559312723342e+00
2.257568895535142062e+00
2.257568895535142062e+00
2.212755027924436124e+00
2.212755027924436124e+00
2.207504867702261730e+00
2.207504867702261730e+00
2.233943174535355514e+00
2.233943174535355514e+00
2.248756126590777171e+00
2.248756126590777171e+00
2.294320017090365038e+00
2.294320017090365038e+00
2.325820978423414065e+00
2.325820978423414065e+00
2.325820978423414065e+00
2.344946562089907705e+00
2.344946562089907705e+00
2.390510452589495571e+00
2.390510452589495571e+00
2.370447340311899076e+00
2.370447340311899076e+00
2.350571733756523507e+00
2.350571733756523507e+00
2.393135532700583212e+00
2.393135532700583212e+00
2.314945646534623425e+00
2.314945646534623425e+00
2.269756767479476078e+00
2.269756767479476078e+00
2.269756767479476078e+00
2.246506057924130939e+00
2.246506057924130939e+00
2.204504776146733125e+00
2.204504776146733125e+00
2.223442854091006282e+00
2.223442854091006282e+00
2.251568712424085295e+00
2.251568712424085295e+00
2.281757133701590057e+00
2.281757133701590057e+00
2.340446424756614796e+00
2.340446424756614796e+00
2.363322122867518971e+00
2.363322122867518971e+00
2.396510635700552783e+00
2.396510635700552783e+00
2.396510635700552783e+00
2.420698873867000778e+00
2.420698873867000778e+00
2.372322397534104788e+00
2.372322397534104788e+00
2.381510177922910199e+00
2.381510177922910199e+00
2.385447798089541660e+00
2.385447798089541660e+00
2.294320017090365038e+00
2.294320017090365038e+00
2.260193975646229259e+00
2.260193975646229259e+00
2.214067567979979945e+00
2.214067567979979945e+00
2.187441755424664791e+00
2.187441755424664791e+00
2.187441755424664791e+00
2.224380382702108694e+00
2.224380382702108694e+00
2.245381023590808045e+00
2.245381023590808045e+00
2.281382122257148648e+00
2.281382122257148648e+00
2.334633747367778511e+00
2.334633747367778511e+00
2.340071413312173831e+00
2.340071413312173831e+00
2.383010223700674501e+00
2.383010223700674501e+00
2.400073244422742391e+00
2.400073244422742391e+00
2.356571916867580274e+00
2.356571916867580274e+00
2.356571916867580274e+00
2.389947935422834124e+00
2.389947935422834124e+00
2.357134434034241721e+00
2.357134434034241721e+00
2.280444593646046680e+00
2.280444593646046680e+00
2.259256447035126847e+00
2.259256447035126847e+00
2.212942533646656607e+00
2.212942533646656607e+00
2.197379558702353020e+00
2.197379558702353020e+00
2.232818140202032620e+00
2.232818140202032620e+00
2.247068575090792386e+00
2.247068575090792386e+00
2.247068575090792386e+00
2.295632557145908859e+00
2.295632557145908859e+00
2.342508987701040546e+00
2.342508987701040546e+00
2.358071962645344577e+00
2.358071962645344577e+00
2.410386059144871140e+00
2.410386059144871140e+00
2.404573381756035300e+00
2.404573381756035300e+00
2.365197180089724238e+00
2.365197180089724238e+00
2.400260750144962874e+00
2.400260750144962874e+00
2.324883449812311209e+00
2.324883449812311209e+00
2.324883449812311209e+00
2.263194067201757864e+00
2.263194067201757864e+00
2.242755943479720404e+00
2.242755943479720404e+00
2.192879421369060555e+00
2.192879421369060555e+00
2.203567247535630269e+00
2.203567247535630269e+00
2.229443037202063049e+00
2.229443037202063049e+00
2.255881344035157721e+00
2.255881344035157721e+00
2.322258369701224012e+00
2.322258369701224012e+00
2.354134342478713116e+00
2.354134342478713116e+00
2.354134342478713116e+00
2.377572557756279181e+00
2.377572557756279181e+00
2.420698873867000778e+00
2.420698873867000778e+00
2.385447798089541660e+00
2.385447798089541660e+00
2.377385052034058699e+00
2.377385052034058699e+00
2.406448438978240567e+00
2.406448438978240567e+00
2.310820520645771925e+00
2.310820520645771925e+00
2.267506698812830290e+00
2.267506698812830290e+00
2.236005737479781263e+00
2.236005737479781263e+00
2.236005737479781263e+00
2.203754753257850751e+00
2.203754753257850751e+00
2.223255348368785356e+00
2.223255348368785356e+00
2.233005645924253102e+00
2.233005645924253102e+00
2.257943906979583026e+00
2.257943906979583026e+00
2.310445509201330516e+00
2.310445509201330516e+00
2.329571092867824156e+00
2.329571092867824156e+00
2.377947569200720146e+00
2.377947569200720146e+00
2.377947569200720146e+00
2.398385692922757606e+00
2.398385692922757606e+00
2.362009582811975594e+00
2.362009582811975594e+00
2.383947752311777357e+00
2.383947752311777357e+00
2.374197454756310055e+00
2.374197454756310055e+00
2.289444868312631609e+00
2.289444868312631609e+00
2.268256721701712220e+00
2.268256721701712220e+00
2.224380382702108694e+00
2.224380382702108694e+00
2.197379558702353020e+00
2.197379558702353020e+00
2.230380565813165905e+00
2.230380565813165905e+00
2.240318369090853690e+00
2.240318369090853690e+00
2.240318369090853690e+00
2.286444776757103448e+00
2.286444776757103448e+00
2.342321481978820064e+00
2.342321481978820064e+00
2.361822077089755112e+00
2.361822077089755112e+00
2.407198461867122496e+00
2.407198461867122496e+00
2.410573564867091623e+00
2.410573564867091623e+00
2.369884823145237629e+00
2.369884823145237629e+00
2.401573290200506694e+00
2.401573290200506694e+00
2.401573290200506694e+00
2.345884090701010116e+00
2.345884090701010116e+00
2.269006744590594149e+00
2.269006744590594149e+00
2.251193700979644330e+00
2.251193700979644330e+00
2.205629810480056463e+00
2.205629810480056463e+00
2.183504135258034218e+00
2.183504135258034218e+00
2.218567705313272853e+00
2.218567705313272853e+00
2.228880520035401602e+00
2.228880520035401602e+00
2.291507431257057803e+00
2.291507431257057803e+00
2.291507431257057803e+00
2.338946378978850937e+00
2.338946378978850937e+00
2.361822077089755112e+00
2.361822077089755112e+00
2.406823450422681532e+00
2.406823450422681532e+00
2.385447798089541660e+00
2.385447798089541660e+00
2.350196722312082542e+00
2.350196722312082542e+00
2.386760338145085036e+00
2.386760338145085036e+00
2.311383037812433372e+00
2.311383037812433372e+00
2.265256630146183614e+00
2.265256630146183614e+00
2.265256630146183614e+00
2.241255897701956545e+00
2.241255897701956545e+00
2.197379558702353020e+00
2.197379558702353020e+00
2.214255073702200427e+00
2.214255073702200427e+00
2.243505966368602778e+00
2.243505966368602778e+00
2.271256813257240381e+00
2.271256813257240381e+00
2.335383770256660885e+00
2.335383770256660885e+00
2.364634662923062791e+00
2.364634662923062791e+00
2.392010498367259874e+00
2.392010498367259874e+00
2.427261574144718992e+00
2.427261574144718992e+00
2.427261574144718992e+00
2.394073061311685624e+00
2.394073061311685624e+00
2.398010681478316641e+00
2.398010681478316641e+00
2.402885830256050514e+00
2.402885830256050514e+00
2.310070497756889552e+00
2.310070497756889552e+00
2.279319559312723342e+00
2.279319559312723342e+00
2.241630909146397510e+00
2.241630909146397510e+00
2.205067293313394572e+00
2.205067293313394572e+00
2.226067934202093479e+00
2.226067934202093479e+00
2.226067934202093479e+00
2.231880611590930208e+00
2.231880611590930208e+00
2.265819147312845505e+00
2.265819147312845505e+00
2.316820703756828248e+00
2.316820703756828248e+00
2.332571184423352761e+00
2.332571184423352761e+00
2.384697775200659287e+00
2.384697775200659287e+00
2.403260841700491479e+00
2.403260841700491479e+00
2.363322122867518971e+00
2.363322122867518971e+00
2.392198004089480357e+00
2.392198004089480357e+00
2.392198004089480357e+00
2.358446974089785542e+00
2.358446974089785542e+00
2.272756859035004684e+00
2.272756859035004684e+00
2.254943815424054865e+00
2.254943815424054865e+00
2.202067201757865966e+00
2.202067201757865966e+00
2.182754112369151844e+00
2.182754112369151844e+00
2.223817865535447247e+00
2.223817865535447247e+00
2.237880794701986531e+00
2.237880794701986531e+00
2.288882351145970162e+00
2.288882351145970162e+00
2.288882351145970162e+00
2.339883907589953349e+00
2.339883907589953349e+00
2.359947019867549844e+00
2.359947019867549844e+00
2.421448896755882263e+00
2.421448896755882263e+00
2.415261207922605013e+00
2.415261207922605013e+00
2.381322672200689716e+00
2.381322672200689716e+00
2.418636310922574584e+00
2.418636310922574584e+00
2.344571550645466296e+00
2.344571550645466296e+00
2.271444318979460864e+00
2.271444318979460864e+00
2.271444318979460864e+00
2.252881252479629115e+00
2.252881252479629115e+00
2.204129764702292160e+00
2.204129764702292160e+00
2.198129581591235393e+00
2.198129581591235393e+00
2.231693105868709726e+00
2.231693105868709726e+00
2.244255989257484707e+00
2.244255989257484707e+00
2.299945188756981285e+00
2.299945188756981285e+00
2.331821161534470832e+00
2.331821161534470832e+00
2.353759331034272151e+00
2.353759331034272151e+00
2.353759331034272151e+00
2.406448438978240567e+00
2.406448438978240567e+00
2.380760155034028269e+00
2.380760155034028269e+00
2.371947386089663379e+00
2.371947386089663379e+00
2.397260658589434712e+00
2.397260658589434712e+00
2.309132969145787140e+00
2.309132969145787140e+00
2.267694204535050773e+00
2.267694204535050773e+00
2.239193334757530351e+00
2.239193334757530351e+00
2.203754753257850751e+00
2.203754753257850751e+00
2.222505325479903426e+00
2.222505325479903426e+00
2.239943357646412725e+00
2.239943357646412725e+00
2.239943357646412725e+00
2.265256630146183614e+00
2.265256630146183614e+00
2.309507980590228104e+00
2.309507980590228104e+00
2.326571001312295994e+00
2.326571001312295994e+00
2.364634662923062791e+00
2.364634662923062791e+00
2.397073152867214230e+00
2.397073152867214230e+00
2.365947202978606612e+00
2.365947202978606612e+00
2.376635029145176325e+00
2.376635029145176325e+00
2.376635029145176325e+00
2.379072603534043484e+00
2.379072603534043484e+00
2.299757683034760802e+00
2.299757683034760802e+00
2.280069582201605716e+00
2.280069582201605716e+00
2.228318002868740155e+00
2.228318002868740155e+00
2.184254158146916147e+00
2.184254158146916147e+00
2.220630268257698603e+00
2.220630268257698603e+00
2.230380565813165905e+00
2.230380565813165905e+00
2.272569353312784202e+00
2.272569353312784202e+00
2.272569353312784202e+00
2.320383312479018745e+00
2.320383312479018745e+00
2.332946195867793726e+00
2.332946195867793726e+00
2.378885097811823002e+00
2.378885097811823002e+00
2.387510361033966966e+00
2.387510361033966966e+00
2.349071687978759204e+00
2.349071687978759204e+00
2.386947843867305519e+00
2.386947843867305519e+00
2.342321481978820064e+00
2.342321481978820064e+00
2.273319376201666131e+00
2.273319376201666131e+00
2.273319376201666131e+00
2.250818689535202921e+00
2.250818689535202921e+00
2.216692648091067142e+00
2.216692648091067142e+00
2.220067751091036712e+00
2.220067751091036712e+00
2.265631641590625023e+00
2.265631641590625023e+00
2.291507431257057803e+00
2.291507431257057803e+00
2.350384228034303025e+00
2.350384228034303025e+00
2.381135166478469234e+00
2.381135166478469234e+00
2.388635395367290304e+00
2.388635395367290304e+00
2.388635395367290304e+00
2.436449354533524403e+00
2.436449354533524403e+00
2.418073793755913137e+00
2.375885006256294396e+00
2.375885006256294396e+00
2.375885006256294396e+00
2.412636127811517817e+00
2.412636127811517817e+00
2.331633655812249906e+00
2.331633655812249906e+00
2.265444135868404540e+00
2.265444135868404540e+00
2.236568254646443155e+00
2.236568254646443155e+00
2.188566789757988129e+00
2.188566789757988129e+00
2.203379741813409787e+00
2.203379741813409787e+00
2.227755485702078264e+00
2.227755485702078264e+00
2.254756309701834383e+00
2.254756309701834383e+00
2.254756309701834383e+00
2.310633014923550999e+00
2.310633014923550999e+00
2.340821436201055761e+00
2.340821436201055761e+00
2.367447248756370914e+00
2.367447248756370914e+00
2.414886196478164049e+00
2.414886196478164049e+00
2.384885280922879769e+00
2.384885280922879769e+00
2.381322672200689716e+00
2.381322672200689716e+00
2.390697958311716054e+00
2.390697958311716054e+00
2.297320108645893644e+00
2.297320108645893644e+00
2.297320108645893644e+00
2.255693838312936794e+00
2.255693838312936794e+00
2.222692831202123909e+00
2.222692831202123909e+00
2.191566881313516735e+00
2.191566881313516735e+00
2.215192602313302839e+00
2.215192602313302839e+00
2.234505691702016961e+00
2.234505691702016961e+00
2.274631916257209951e+00
2.274631916257209951e+00
2.327508529923398850e+00
2.327508529923398850e+00
2.342508987701040546e+00
2.342508987701040546e+00
2.342508987701040546e+00
2.384697775200659287e+00
2.384697775200659287e+00
2.406448438978240567e+00
2.406448438978240567e+00
2.362384594256416559e+00
2.362384594256416559e+00
2.392948026978362286e+00
2.392948026978362286e+00
2.372134891811884305e+00
2.372134891811884305e+00
2.282694662312692468e+00
2.282694662312692468e+00
2.259631458479567812e+00
2.259631458479567812e+00
2.259631458479567812e+00
2.210504959257789892e+00
2.210504959257789892e+00
2.191191869869075770e+00
2.191191869869075770e+00
2.229068025757622085e+00
2.229068025757622085e+00
2.240505874813074172e+00
2.240505874813074172e+00
2.290194891201513983e+00
2.290194891201513983e+00
2.338196356089969008e+00
2.338196356089969008e+00
2.348696676534318240e+00
2.348696676534318240e+00
2.406635944700461049e+00
2.406635944700461049e+00
2.403823358867152926e+00
2.403823358867152926e+00
2.403823358867152926e+00
2.368947294534135217e+00
2.368947294534135217e+00
2.404198370311593891e+00
2.404198370311593891e+00
2.342133976256599581e+00
2.342133976256599581e+00
2.267881710257271255e+00
2.267881710257271255e+00
2.248568620868556689e+00
2.248568620868556689e+00
2.195879512924588717e+00
2.195879512924588717e+00
2.196629535813471090e+00
2.196629535813471090e+00
2.227192968535416817e+00
2.227192968535416817e+00
2.246506057924130939e+00
2.246506057924130939e+00
2.246506057924130939e+00
2.303882808923612302e+00
2.303882808923612302e+00
2.344009033478804849e+00
2.344009033478804849e+00
2.362759605700857524e+00
2.362759605700857524e+00
2.413573656422620228e+00
2.413573656422620228e+00
2.395385601367229444e+00
2.395385601367229444e+00
2.385260292367321178e+00
2.385260292367321178e+00
2.407010956144902014e+00
2.407010956144902014e+00
2.318883266701254442e+00
2.318883266701254442e+00
2.318883266701254442e+00
2.268819238868374111e+00
2.268819238868374111e+00
2.235630726035340299e+00
2.235630726035340299e+00
2.195129490035706787e+00
2.195129490035706787e+00
2.212942533646656607e+00
2.212942533646656607e+00
2.235443220313119816e+00
2.235443220313119816e+00
2.266944181646168399e+00
2.266944181646168399e+00
2.332946195867793726e+00
2.332946195867793726e+00
2.332946195867793726e+00
2.349446699423200169e+00
2.349446699423200169e+00
2.378697592089602519e+00
2.378697592089602519e+00
2.410948576311533031e+00
2.410948576311533031e+00
2.378322580645161111e+00
2.378322580645161111e+00
2.389760429700613198e+00
2.389760429700613198e+00
2.383760246589556875e+00
2.383760246589556875e+00
2.293757499923703591e+00
2.293757499923703591e+00
2.259256447035126847e+00
2.259256447035126847e+00
2.259256447035126847e+00
2.221380291146580532e+00
2.221380291146580532e+00
2.191004364146854844e+00
2.191004364146854844e+00
2.224192876979888212e+00
2.224192876979888212e+00
2.231880611590930208e+00
2.231880611590930208e+00
2.278007019257179522e+00
2.278007019257179522e+00
2.323570909756767389e+00
2.323570909756767389e+00
2.337258827478866152e+00
2.337258827478866152e+00
2.386760338145085036e+00
2.386760338145085036e+00
2.386760338145085036e+00
2.401948301644947659e+00
2.401948301644947659e+00
2.368384777367473326e+00
2.368384777367473326e+00
2.407385967589342979e+00
2.407385967589342979e+00
2.367447248756370914e+00
2.367447248756370914e+00
2.290382396923734465e+00
2.290382396923734465e+00
2.262444044312875935e+00
2.262444044312875935e+00
2.216692648091067142e+00
2.216692648091067142e+00
2.198504593035676358e+00
2.198504593035676358e+00
2.198504593035676358e+00
2.225692922757652514e+00
2.225692922757652514e+00
2.239005829035309869e+00
2.239005829035309869e+00
2.300507705923642732e+00
2.300507705923642732e+00
2.350009216589862060e+00
2.350009216589862060e+00
2.365947202978606612e+00
2.365947202978606612e+00
2.410386059144871140e+00
2.410386059144871140e+00
2.399323221533860018e+00
2.399323221533860018e+00
2.374759971922971058e+00
2.374759971922971058e+00
2.408135990478225352e+00
2.408135990478225352e+00
2.408135990478225352e+00
2.327696035645618888e+00
2.327696035645618888e+00
2.257568895535142062e+00
2.257568895535142062e+00
2.242193426313058957e+00
2.242193426313058957e+00
2.192879421369060555e+00
2.192879421369060555e+00
2.200192144535660699e+00
2.200192144535660699e+00
2.230568071535386387e+00
2.230568071535386387e+00
2.249131138035218136e+00
2.249131138035218136e+00
2.301445234534745587e+00
2.301445234534745587e+00
2.301445234534745587e+00
2.331258644367808941e+00
2.331258644367808941e+00
2.355446882534256936e+00
2.355446882534256936e+00
2.402323313089388623e+00
2.402323313089388623e+00
2.376260017700735361e+00
2.376260017700735361e+00
2.377572557756279181e+00
2.377572557756279181e+00
2.396135624256111374e+00
2.396135624256111374e+00
2.302195257423627517e+00
2.302195257423627517e+00
2.262631550035096417e+00
2.262631550035096417e+00
2.262631550035096417e+00
2.235068208868678852e+00
2.235068208868678852e+00
2.197754570146794428e+00
2.197754570146794428e+00
2.214442579424420909e+00
2.214442579424420909e+00
2.227005462813196335e+00
2.227005462813196335e+00
2.262444044312875935e+00
2.262444044312875935e+00
2.330508621478927012e+00
2.330508621478927012e+00
2.358821985534226506e+00
2.358821985534226506e+00
2.403448347422711961e+00
2.403448347422711961e+00
2.403448347422711961e+00
2.418073793755913137e+00
2.418073793755913137e+00
2.363134617145298488e+00
2.363134617145298488e+00
2.373634937589648164e+00
2.373634937589648164e+00
2.342883999145481511e+00
2.342883999145481511e+00
2.250443678090761956e+00
2.250443678090761956e+00
2.225130405590991067e+00
2.225130405590991067e+00
2.172253791924802613e+00
2.172253791924802613e+00
2.148815576647236547e+00
2.148815576647236547e+00
2.180691549424726094e+00
2.180691549424726094e+00
2.180691549424726094e+00
2.183691640980254700e+00
2.183691640980254700e+00
2.227005462813196335e+00
2.227005462813196335e+00
2.294320017090365038e+00
2.294320017090365038e+00
2.339883907589953349e+00
2.339883907589953349e+00
2.408698507644886799e+00
2.408698507644886799e+00
2.429136631366924259e+00
2.429136631366924259e+00
2.412261116367076408e+00
2.412261116367076408e+00
2.446199652088991705e+00
2.446199652088991705e+00
2.446199652088991705e+00
2.379635120700704931e+00
2.379635120700704931e+00
2.303695303201391820e+00
2.303695303201391820e+00
2.284007202368236289e+00
2.284007202368236289e+00
2.228880520035401602e+00
2.228880520035401602e+00
2.212567522202215642e+00
2.212567522202215642e+00
2.233380657368694511e+00
2.233380657368694511e+00
2.235068208868678852e+00
2.235068208868678852e+00
2.246318552201910457e+00
2.246318552201910457e+00
2.246318552201910457e+00
2.240130863368633207e+00
2.240130863368633207e+00
2.241630909146397510e+00
2.241630909146397510e+00
2.277819513534959039e+00
2.277819513534959039e+00
2.282132145146031021e+00
2.282132145146031021e+00
2.299570177312540320e+00
2.299570177312540320e+00
2.321133335367900674e+00
2.321133335367900674e+00
2.200004638813440216e+00
2.200004638813440216e+00
2.187816766869105756e+00
2.187816766869105756e+00
2.187816766869105756e+00
2.206754844813379357e+00
2.206754844813379357e+00
2.212567522202215642e+00
2.212567522202215642e+00
2.212755027924436124e+00
2.212755027924436124e+00
2.139252784813989727e+00
2.139252784813989727e+00
2.127064912869655711e+00
2.127064912869655711e+00
2.216692648091067142e+00
2.216692648091067142e+00
2.301070223090304623e+00
2.301070223090304623e+00
2.427261574144718992e+00
2.427261574144718992e+00
2.427261574144718992e+00
2.543890133365886541e+00
2.543890133365886541e+00
2.508451551866206941e+00
2.508451551866206941e+00
2.514826746421705117e+00
2.514826746421705117e+00
2.532452284310434454e+00
2.532452284310434454e+00
2.435886837366862956e+00
2.435886837366862956e+00
2.361822077089755112e+00
2.361822077089755112e+00
2.248943632312997654e+00
2.248943632312997654e+00
2.161940977202673420e+00
2.161940977202673420e+00
2.128002441480758122e+00
2.128002441480758122e+00
2.128002441480758122e+00
2.079438459425641650e+00
2.079438459425641650e+00
2.091063814203314664e+00
2.091063814203314664e+00
2.137565233314004942e+00
2.137565233314004942e+00
2.178628986480300345e+00
2.178628986480300345e+00
2.330696127201147494e+00
2.330696127201147494e+00
2.456887478255561863e+00
2.456887478255561863e+00
2.430449171422468080e+00
2.430449171422468080e+00
2.476388073366496911e+00
2.476388073366496911e+00
2.476388073366496911e+00
2.459512558366649504e+00
2.459512558366649504e+00
2.392385509811700839e+00
2.392385509811700839e+00
2.406073427533799602e+00
2.406073427533799602e+00
2.330321115756706529e+00
2.330321115756706529e+00
2.231318094424268317e+00
2.231318094424268317e+00
2.230005554368724940e+00
2.230005554368724940e+00
2.199629627368999252e+00
2.199629627368999252e+00
2.210317453535568966e+00
2.210317453535568966e+00
2.210317453535568966e+00
2.238630817590868904e+00
2.238630817590868904e+00
2.300507705923642732e+00
2.300507705923642732e+00
2.379447614978484449e+00
2.379447614978484449e+00
2.388447889645069822e+00
2.388447889645069822e+00
2.379447614978484449e+00
2.379447614978484449e+00
2.453512375255592737e+00
2.453512375255592737e+00
2.433074251533554833e+00
2.433074251533554833e+00
2.433074251533554833e+00
2.376447523422955843e+00
2.376447523422955843e+00
2.369697317423017147e+00
2.369697317423017147e+00
2.340446424756614796e+00
2.340446424756614796e+00
2.282694662312692468e+00
2.282694662312692468e+00
2.230568071535386387e+00
2.230568071535386387e+00
2.196254524369030126e+00
2.196254524369030126e+00
2.223630359813226764e+00
2.223630359813226764e+00
2.248568620868556689e+00
2.248568620868556689e+00
2.248568620868556689e+00
2.282694662312692468e+00
2.282694662312692468e+00
2.390322946867275089e+00
2.390322946867275089e+00
2.346821619312112972e+00
2.346821619312112972e+00
2.301070223090304623e+00
2.301070223090304623e+00
2.310820520645771925e+00
2.310820520645771925e+00
2.234505691702016961e+00
2.234505691702016961e+00
2.185004181035798521e+00
2.185004181035798521e+00
2.180129032258064647e+00
2.180129032258064647e+00
2.214255073702200427e+00
2.214255073702200427e+00
2.328821069978942226e+00
2.328821069978942226e+00
2.370822351756340485e+00
2.370822351756340485e+00
2.370822351756340485e+00
2.426511551255836618e+00
2.426511551255836618e+00
2.443199560533463544e+00
2.443199560533463544e+00
2.452762352366710363e+00
2.452762352366710363e+00
2.478263130588702179e+00
2.478263130588702179e+00
2.427449079866939474e+00
2.427449079866939474e+00
2.297132602923673161e+00
2.297132602923673161e+00
2.243693472090823260e+00
2.243693472090823260e+00
2.188004272591326682e+00
2.188004272591326682e+00
2.188004272591326682e+00
2.094438917203283790e+00
2.094438917203283790e+00
2.062750450148014725e+00
2.062750450148014725e+00
2.031624500259407551e+00
2.031624500259407551e+00
2.033499557481612818e+00
2.033499557481612818e+00
2.106439283425397324e+00
2.106439283425397324e+00
2.187816766869105756e+00
2.187816766869105756e+00
2.301632740256966070e+00
2.301632740256966070e+00
2.415073702200384531e+00
2.415073702200384531e+00
2.415073702200384531e+00
2.469825373088778253e+00
2.469825373088778253e+00
2.524389538254951937e+00
2.524389538254951937e+00
2.509389080477309353e+00
2.509389080477309353e+00
2.438324411755729670e+00
2.438324411755729670e+00
2.456887478255561863e+00
2.456887478255561863e+00
2.386947843867305519e+00
2.386947843867305519e+00
2.314195623645741495e+00
2.314195623645741495e+00
2.293007477034821662e+00
2.293007477034821662e+00
2.293007477034821662e+00
2.258131412701803509e+00
2.258131412701803509e+00
2.273506881923887057e+00
2.273506881923887057e+00
2.342696493423261028e+00
2.342696493423261028e+00
2.371197363200781449e+00
2.371197363200781449e+00
2.380197637867366822e+00
2.380197637867366822e+00
2.322070863979003530e+00
2.322070863979003530e+00
2.274069399090548504e+00
2.274069399090548504e+00
2.274069399090548504e+00
2.288319833979308715e+00
2.288319833979308715e+00
2.254568803979613900e+00
2.254568803979613900e+00
2.220630268257698603e+00
2.220630268257698603e+00
2.188379284035767647e+00
2.188379284035767647e+00
2.096688985869930022e+00
2.096688985869930022e+00
2.114314523758659803e+00
2.114314523758659803e+00
2.164566057313760616e+00
2.164566057313760616e+00
2.163441022980437278e+00
2.163441022980437278e+00
2.204504776146733125e+00
2.204504776146733125e+00
2.204504776146733125e+00
2.244255989257484707e+00
2.244255989257484707e+00
2.310258003479110034e+00
2.310258003479110034e+00
2.380572649311807787e+00
2.380572649311807787e+00
2.427636585589159957e+00
2.427636585589159957e+00
2.427074068422498510e+00
2.427074068422498510e+00
2.413011139255958781e+00
2.413011139255958781e+00
2.337258827478866152e+00
2.337258827478866152e+00
2.350759239478743989e+00
2.350759239478743989e+00
2.350759239478743989e+00
2.398573198644978088e+00
2.398573198644978088e+00
2.410948576311533031e+00
2.410948576311533031e+00
2.479575670644245999e+00
2.479575670644245999e+00
2.424261482589190386e+00
2.424261482589190386e+00
2.341008941923276243e+00
2.341008941923276243e+00
2.364822168645283273e+00
2.364822168645283273e+00
2.342508987701040546e+00
2.342508987701040546e+00
2.342508987701040546e+00
2.316070680867946319e+00
2.316070680867946319e+00
2.333508713034455617e+00
2.333508713034455617e+00
2.369509811700796664e+00
2.369509811700796664e+00
2.423698965422528495e+00
2.423698965422528495e+00
2.405510910367137711e+00
2.405510910367137711e+00
2.359009491256446989e+00
2.359009491256446989e+00
2.399135715811639535e+00
2.399135715811639535e+00
2.339321390423291458e+00
2.339321390423291458e+00
2.339321390423291458e+00
2.205442304757835537e+00
2.205442304757835537e+00
2.156503311258278099e+00
2.156503311258278099e+00
2.128002441480758122e+00
2.128002441480758122e+00
2.098564043092135289e+00
2.098564043092135289e+00
2.097439008758812395e+00
2.097439008758812395e+00
2.118814661091952267e+00
2.118814661091952267e+00
2.186504226813562823e+00
2.186504226813562823e+00
2.257006378368480615e+00
2.257006378368480615e+00
2.257006378368480615e+00
2.285319742423780109e+00
2.285319742423780109e+00
2.356384411145359792e+00
2.356384411145359792e+00
2.231693105868709726e+00
2.231693105868709726e+00
2.130815027314065802e+00
2.130815027314065802e+00
2.180879055146946577e+00
2.180879055146946577e+00
2.150690633869442259e+00
2.150690633869442259e+00
2.106626789147617806e+00
2.106626789147617806e+00
2.088438734092227023e+00
2.088438734092227023e+00
2.088438734092227023e+00
2.095188940092165719e+00
2.095188940092165719e+00
2.151253151036103706e+00
2.151253151036103706e+00
2.224567888424329176e+00
2.224567888424329176e+00
2.262444044312875935e+00
2.262444044312875935e+00
2.301820245979186552e+00
2.301820245979186552e+00
2.370072328867458111e+00
2.370072328867458111e+00
2.434574297311319135e+00
2.434574297311319135e+00
2.514451734977264152e+00
2.514451734977264152e+00
2.396135624256111374e+00
2.396135624256111374e+00
2.396135624256111374e+00
2.311570543534653854e+00
2.311570543534653854e+00
2.281382122257148648e+00
2.281382122257148648e+00
2.222692831202123909e+00
2.222692831202123909e+00
2.292444959868159771e+00
2.292444959868159771e+00
2.378322580645161111e+00
2.378322580645161111e+00
2.461950132755516218e+00
2.461950132755516218e+00
2.517451826532791870e+00
2.517451826532791870e+00
2.504888943144016888e+00
2.504888943144016888e+00
2.504888943144016888e+00
2.504701437421796406e+00
2.504701437421796406e+00
2.491388531144139051e+00
2.491388531144139051e+00
2.462325144199957183e+00
2.462325144199957183e+00
2.456699972533341381e+00
2.456699972533341381e+00
2.421636402478102745e+00
2.421636402478102745e+00
2.463450178533280521e+00
2.463450178533280521e+00
2.422011413922543710e+00
2.422011413922543710e+00
2.344384044923245813e+00
2.344384044923245813e+00
2.344384044923245813e+00
2.219317728202154782e+00
2.219317728202154782e+00
2.143002899258400262e+00
2.143002899258400262e+00
2.092563859981078966e+00
2.092563859981078966e+00
2.051875118259224084e+00
2.051875118259224084e+00
2.049250038148136888e+00
2.049250038148136888e+00
2.039312234870449103e+00
2.039312234870449103e+00
2.035562120426038124e+00
2.035562120426038124e+00
2.077750907925656865e+00
2.077750907925656865e+00
2.077750907925656865e+00
2.107751823480941145e+00
2.107751823480941145e+00
2.172816309091464060e+00
2.172816309091464060e+00
2.242755943479720404e+00
2.242755943479720404e+00
2.292819971312600735e+00
2.292819971312600735e+00
2.304070314645832784e+00
2.304070314645832784e+00
2.271069307535019899e+00
2.271069307535019899e+00
2.209754936368907963e+00
2.209754936368907963e+00
2.179754020813623683e+00
2.179754020813623683e+00
2.179754020813623683e+00
2.150878139591662741e+00
2.150878139591662741e+00
2.143002899258400262e+00
2.143002899258400262e+00
2.291319925534837321e+00
2.291319925534837321e+00
2.569015900143436948e+00
2.569015900143436948e+00
2.627517685476241649e+00
2.627517685476241649e+00
2.415636219367045978e+00
2.415636219367045978e+00
2.272569353312784202e+00
2.272569353312784202e+00
2.227755485702078264e+00
2.227755485702078264e+00
2.227755485702078264e+00
2.219317728202154782e+00
2.219317728202154782e+00
2.244443494979705633e+00
2.244443494979705633e+00
2.279882076479384789e+00
2.279882076479384789e+00
2.209192419202246516e+00
2.209192419202246516e+00
2.176941434980315559e+00
2.176941434980315559e+00
2.197942075869014911e+00
2.197942075869014911e+00
2.226817957090975852e+00
2.226817957090975852e+00
2.298820154423657947e+00
2.298820154423657947e+00
2.298820154423657947e+00
2.383010223700674501e+00
2.383010223700674501e+00
2.443012054811243061e+00
2.443012054811243061e+00
2.446762169255653596e+00
2.446762169255653596e+00
2.189504318369090985e+00
2.189504318369090985e+00
2.128377452925199087e+00
2.128377452925199087e+00
2.173378826258125951e+00
2.173378826258125951e+00
2.139627796258431136e+00
2.139627796258431136e+00
2.065000518814661401e+00
2.065000518814661401e+00
2.065000518814661401e+00
1.962997405926694583e+00
1.962997405926694583e+00
1.871869624927518627e+00
1.871869624927518627e+00
1.992060792870876229e+00
1.992060792870876229e+00
2.184629169591357556e+00
2.184629169591357556e+00
2.407760979033784388e+00
2.407760979033784388e+00
2.600516861476485531e+00
2.600516861476485531e+00
2.598079287087618372e+00
2.598079287087618372e+00
2.637642994476149916e+00
2.637642994476149916e+00
2.637642994476149916e+00
2.683019379253517300e+00
2.683019379253517300e+00
2.646080751976073397e+00
2.646080751976073397e+00
2.591704092532120640e+00
2.591704092532120640e+00
2.437949400311288706e+00
2.437949400311288706e+00
2.272569353312784202e+00
2.272569353312784202e+00
2.164191045869319652e+00
2.164191045869319652e+00
2.185754203924680450e+00
2.185754203924680450e+00
2.185754203924680450e+00
2.184629169591357556e+00
2.184629169591357556e+00
2.177128940702536042e+00
2.177128940702536042e+00
2.160628437147130043e+00
2.160628437147130043e+00
2.193629444257942485e+00
2.193629444257942485e+00
2.234693197424237443e+00
2.234693197424237443e+00
2.229630542924283532e+00
2.229630542924283532e+00
2.162128482924894346e+00
2.162128482924894346e+00
2.123314798425245176e+00
2.123314798425245176e+00
2.070625690481276759e+00
2.070625690481276759e+00
2.070625690481276759e+00
2.072500747703482027e+00
2.072500747703482027e+00
2.088626239814447505e+00
2.088626239814447505e+00
2.294882534257026929e+00
2.294882534257026929e+00
2.568453382976775501e+00
2.568453382976775501e+00
2.505451460310678335e+00
2.505451460310678335e+00
2.533014801477095901e+00
2.533014801477095901e+00
2.602204412976470316e+00
2.602204412976470316e+00
2.407760979033784388e+00
2.407760979033784388e+00
2.407760979033784388e+00
2.203004730368968822e+00
2.203004730368968822e+00
1.990185735648670962e+00
1.990185735648670962e+00
1.826118228705710056e+00
1.826118228705710056e+00
1.853494064149906917e+00
1.853494064149906917e+00
1.857994201483199603e+00
1.857994201483199603e+00
1.773991637928403531e+00
1.773991637928403531e+00
1.784304452650532724e+00
1.784304452650532724e+00
1.737428022095401037e+00
1.737428022095401037e+00
1.737428022095401037e+00
1.929433881649220250e+00
1.929433881649220250e+00
2.302382763145847999e+00
2.302382763145847999e+00
2.360697042756431774e+00
2.360697042756431774e+00
2.419198828089236475e+00
2.419198828089236475e+00
2.497576219977416301e+00
2.497576219977416301e+00
2.550265327921384717e+00
2.550265327921384717e+00
2.556078005310220558e+00
2.556078005310220558e+00
2.573141026032288892e+00
2.573141026032288892e+00
2.573141026032288892e+00
2.499076265755180604e+00
2.499076265755180604e+00
2.572203497421186036e+00
2.572203497421186036e+00
2.375322489089632505e+00
2.375322489089632505e+00
2.112814477980895500e+00
2.112814477980895500e+00
2.036687154759361462e+00
2.036687154759361462e+00
2.030311960203863730e+00
2.030311960203863730e+00
2.117314615314187964e+00
2.117314615314187964e+00
2.117314615314187964e+00
2.121064729758598499e+00
2.121064729758598499e+00
2.142252876369517889e+00
2.142252876369517889e+00
2.273881893368328022e+00
2.273881893368328022e+00
2.509014069032868388e+00
2.509014069032868388e+00
2.668956450086977572e+00
2.668956450086977572e+00
2.563015717032380181e+00
2.563015717032380181e+00
2.231130588702047834e+00
2.231130588702047834e+00
2.016999053926206376e+00
2.016999053926206376e+00
2.016999053926206376e+00
2.159503402813806705e+00
2.159503402813806705e+00
2.182566606646931362e+00
2.182566606646931362e+00
2.336696310312204705e+00
2.336696310312204705e+00
2.494201116977446731e+00
2.494201116977446731e+00
2.525327066866054349e+00
2.525327066866054349e+00
2.582328806421094747e+00
2.582328806421094747e+00
2.442637043366802097e+00
2.442637043366802097e+00
2.164941068758201581e+00
2.164941068758201581e+00
2.164941068758201581e+00
1.735365459150975065e+00
1.735365459150975065e+00
1.313477584154789879e+00
1.313477584154789879e+00
1.130471999267555816e+00
1.130471999267555816e+00
1.236975249488815098e+00
1.236975249488815098e+00
1.468544816431165634e+00
1.468544816431165634e+00
1.943496810815759979e+00
1.943496810815759979e+00
2.494576128421887695e+00
2.494576128421887695e+00
2.966903042695394621e+00
2.966903042695394621e+00
2.966903042695394621e+00
3.408854029969176302e+00
3.408854029969176302e+00
3.255286843470564850e+00
3.255286843470564850e+00
3.079406476027710671e+00
3.079406476027710671e+00
2.813523361919004095e+00
2.813523361919004095e+00
2.552515396588030505e+00
2.552515396588030505e+00
2.200004638813440216e+00
2.200004638813440216e+00
1.667113376262703506e+00
1.667113376262703506e+00
1.523671498764000320e+00
1.523671498764000320e+00
1.523671498764000320e+00
1.806992645039216416e+00
1.806992645039216416e+00
1.784866969817194171e+00
1.784866969817194171e+00
1.663550767540513231e+00
1.663550767540513231e+00
1.773616626483962344e+00
1.773616626483962344e+00
1.858369212927640568e+00
1.858369212927640568e+00
1.927746330149235465e+00
1.927746330149235465e+00
2.218005188146610962e+00
2.218005188146610962e+00
2.583453840754417641e+00
2.583453840754417641e+00
2.583453840754417641e+00
2.812210821863460275e+00
2.812210821863460275e+00
2.919651600695821969e+00
2.919651600695821969e+00
2.795710318308054276e+00
2.795710318308054276e+00
2.737583544419690984e+00
2.737583544419690984e+00
2.413198644978179264e+00
2.413198644978179264e+00
2.062750450148014725e+00
2.062750450148014725e+00
1.934121524704733419e+00
1.934121524704733419e+00
2.122752281258583285e+00
2.122752281258583285e+00
2.168878688924833043e+00
2.168878688924833043e+00
2.059187841425824672e+00
2.059187841425824672e+00
2.059187841425824672e+00
1.953434614093447763e+00
1.953434614093447763e+00
1.878807336649678250e+00
1.878807336649678250e+00
1.946496902371288140e+00
1.946496902371288140e+00
1.788992095706045893e+00
1.788992095706045893e+00
1.865119418927579709e+00
1.865119418927579709e+00
1.977247840815454571e+00
1.977247840815454571e+00
1.671050996429334523e+00
1.671050996429334523e+00
1.671050996429334523e+00
1.365041657765434735e+00
1.365041657765434735e+00
1.257975890377513783e+00
1.257975890377513783e+00
1.534734336375011443e+00
1.534734336375011443e+00
2.113001983703115982e+00
2.113001983703115982e+00
2.614017273476363368e+00
2.614017273476363368e+00
3.188159794915616185e+00
3.188159794915616185e+00
3.371727896969511917e+00
3.371727896969511917e+00
2.966153019806512692e+00
2.966153019806512692e+00
2.966153019806512692e+00
2.712270271919919651e+00
2.712270271919919651e+00
2.699332377086703261e+00
2.699332377086703261e+00
2.889838190862758616e+00
2.889838190862758616e+00
3.202035218359935431e+00
3.202035218359935431e+00
3.275349955748161346e+00
3.275349955748161346e+00
3.045092928861354409e+00
3.045092928861354409e+00
2.391072969756157018e+00
2.391072969756157018e+00
1.681363811151463272e+00
1.681363811151463272e+00
1.681363811151463272e+00
1.611049165318765741e+00
1.611049165318765741e+00
1.756741111484115159e+00
1.756741111484115159e+00
1.779804315317239816e+00
1.779804315317239816e+00
1.865869441816461860e+00
1.865869441816461860e+00
1.916683492538224565e+00
1.916683492538224565e+00
2.229630542924283532e+00
2.229630542924283532e+00
2.413573656422620228e+00
2.413573656422620228e+00
2.413573656422620228e+00
2.396885647144993747e+00
2.396885647144993747e+00
2.387697866756187448e+00
2.387697866756187448e+00
2.398198187200537124e+00
2.629017731254005508e+00
2.629017731254005508e+00
2.629017731254005508e+00
2.790835169530320403e+00
2.790835169530320403e+00
2.853837092196417569e+00
2.853837092196417569e+00
2.678144230475783871e+00
2.678144230475783871e+00
2.551952879421369058e+00
2.551952879421369058e+00
2.543702627643666059e+00
2.543702627643666059e+00
2.537889950254829774e+00
2.537889950254829774e+00
2.559265602587969646e+00
2.559265602587969646e+00
2.302945280312509890e+00
2.302945280312509890e+00
2.302945280312509890e+00
1.507733512375255769e+00
1.507733512375255769e+00
8.722766197698904600e-01
8.722766197698904600e-01
6.823333231604968852e-01
6.823333231604968852e-01
7.993368938261055101e-01
7.993368938261055101e-01
1.241475386822107563e+00
1.241475386822107563e+00
1.861931821649830621e+00
1.861931821649830621e+00
2.502451368755150174e+00
2.502451368755150174e+00
2.810523270363475490e+00
2.810523270363475490e+00
2.810523270363475490e+00
2.819711050752281345e+00
2.819711050752281345e+00
2.718645466475417383e+00
2.718645466475417383e+00
2.580641254921109962e+00
2.580641254921109962e+00
2.701582445753349493e+00
2.701582445753349493e+00
2.768334482863857193e+00
2.768334482863857193e+00
2.479388164922025517e+00
2.479388164922025517e+00
2.391447981200597983e+00
2.391447981200597983e+00
2.833023957029938700e+00
2.833023957029938700e+00
2.833023957029938700e+00
3.076593890194402992e+00
3.076593890194402992e+00
2.594704184087649246e+00
2.594704184087649246e+00
1.889870174260689151e+00
1.889870174260689151e+00
1.481295205542161320e+00
1.481295205542161320e+00
1.549359782708212618e+00
1.549359782708212618e+00
1.616674336985381544e+00
1.616674336985381544e+00
1.593236121707815700e+00
1.593236121707815700e+00
1.593236121707815700e+00
1.546547196874904717e+00
1.546547196874904717e+00
1.669175939207129034e+00
1.669175939207129034e+00
2.185004181035798521e+00
2.185004181035798521e+00
2.320570818201239227e+00
2.320570818201239227e+00
2.484075807977538464e+00
2.484075807977538464e+00
2.537514938810388809e+00
2.537514938810388809e+00
2.268444227423932702e+00
2.268444227423932702e+00
2.374947477645191540e+00
2.374947477645191540e+00
2.374947477645191540e+00
2.824961210974456183e+00
3.121595263527329411e+00
3.121595263527329411e+00
3.618860438856166262e+00
3.618860438856166262e+00
3.443355082857753047e+00
3.443355082857753047e+00
2.637830500198370398e+00
2.637830500198370398e+00
2.637830500198370398e+00
2.235068208868678852e+00
2.235068208868678852e+00
2.102126651814325342e+00
2.102126651814325342e+00
2.002373607593005200e+00
2.002373607593005200e+00
1.840743675038911231e+00
1.840743675038911231e+00
1.607861568041016875e+00
1.607861568041016875e+00
1.690176580095828163e+00
1.690176580095828163e+00
1.758428662984099944e+00
1.758428662984099944e+00
1.795179784539323142e+00
1.795179784539323142e+00
2.013811456648457288e+00
2.013811456648457288e+00
2.013811456648457288e+00
2.188941801202429094e+00
2.188941801202429094e+00
2.236193243202001746e+00
2.236193243202001746e+00
2.566765831476790716e+00
2.566765831476790716e+00
2.787835077974791798e+00
2.787835077974791798e+00
2.758396679586168965e+00
2.758396679586168965e+00
2.793272743919187118e+00
2.793272743919187118e+00
2.545765190588091809e+00
2.545765190588091809e+00
2.545765190588091809e+00
2.383572740867336393e+00
2.383572740867336393e+00
2.439824457533493973e+00
2.439824457533493973e+00
2.510326609088412209e+00
2.510326609088412209e+00
2.663893795587023661e+00
2.663893795587023661e+00
2.559640614032411055e+00
2.559640614032411055e+00
2.347196630756553937e+00
2.347196630756553937e+00
2.254756309701834383e+00
2.254756309701834383e+00
2.254756309701834383e+00
2.233943174535355514e+00
2.233943174535355514e+00
2.152378185369426600e+00
2.152378185369426600e+00
1.809617725150303613e+00
1.809617725150303613e+00
1.542984588152714664e+00
1.542984588152714664e+00
1.851994018372142614e+00
1.851994018372142614e+00
2.110376903592028786e+00
2.110376903592028786e+00
2.308945463423566213e+00
2.308945463423566213e+00
2.096688985869930022e+00
2.096688985869930022e+00
2.096688985869930022e+00
2.024311777092806519e+00
2.024311777092806519e+00
2.015499008148442073e+00
2.015499008148442073e+00
2.042687337870418673e+00
2.042687337870418673e+00
2.162128482924894346e+00
2.162128482924894346e+00
1.841306192205572678e+00
1.841306192205572678e+00
1.568297860652485554e+00
1.568297860652485554e+00
1.601111362041077957e+00
1.601111362041077957e+00
2.237693288979766049e+00
2.237693288979766049e+00
2.237693288979766049e+00
2.475263039033173573e+00
2.475263039033173573e+00
2.131752555925168657e+00
2.131752555925168657e+00
1.770616534928434183e+00
1.770616534928434183e+00
1.689239051484725529e+00
1.689239051484725529e+00
2.029561937314981801e+00
2.029561937314981801e+00
2.678331736198004354e+00
2.678331736198004354e+00
3.360852565080721277e+00
3.360852565080721277e+00
3.575734122745445109e+00
3.575734122745445109e+00
3.575734122745445109e+00
3.331414166692098888e+00
3.331414166692098888e+00
3.008716818750571953e+00
3.008716818750571953e+00
2.811835810419019310e+00
2.811835810419019310e+00
2.656393566698202147e+00
2.656393566698202147e+00
2.449949766533402684e+00
2.449949766533402684e+00
2.167941160313730187e+00
2.167941160313730187e+00
1.892495254371776570e+00
1.892495254371776570e+00
1.528359141819513489e+00
1.528359141819513489e+00
1.528359141819513489e+00
1.680051271095919674e+00
1.680051271095919674e+00
1.929808893093661437e+00
1.929808893093661437e+00
1.993373332926419828e+00
1.993373332926419828e+00
2.208629902035584625e+00
2.208629902035584625e+00
2.636705465865047060e+00
2.636705465865047060e+00
2.733833429975280005e+00
2.733833429975280005e+00
2.677394207586901498e+00
2.677394207586901498e+00
2.677394207586901498e+00
2.227005462813196335e+00
2.227005462813196335e+00
2.014936490981780626e+00
2.014936490981780626e+00
1.861744315927610138e+00
1.861744315927610138e+00
1.753366008484145588e+00
1.753366008484145588e+00
1.594361156041139038e+00
1.594361156041139038e+00
1.596611224707785270e+00
1.596611224707785270e+00
2.058062807092501334e+00
2.058062807092501334e+00
2.475638050477614982e+00
2.475638050477614982e+00
2.475638050477614982e+00
2.353196813867610704e+00
2.353196813867610704e+00
2.287757316812646824e+00
2.287757316812646824e+00
2.288507339701529197e+00
2.288507339701529197e+00
2.349071687978759204e+00
2.349071687978759204e+00
2.333508713034455617e+00
2.333508713034455617e+00
2.226442945646534444e+00
2.226442945646534444e+00
2.358634479812006024e+00
2.358634479812006024e+00
2.533764824365978274e+00
2.533764824365978274e+00
2.533764824365978274e+00
2.578391186254463285e+00
2.578391186254463285e+00
2.418261299478133619e+00
2.418261299478133619e+00
2.117127109591967482e+00
2.117127109591967482e+00
1.707614612262337239e+00
1.707614612262337239e+00
1.928871364482558803e+00
1.928871364482558803e+00
2.309882992034669069e+00
2.309882992034669069e+00
2.395010589922788480e+00
2.395010589922788480e+00
2.576328623310037536e+00
2.576328623310037536e+00
2.576328623310037536e+00
2.680956816309091550e+00
2.680956816309091550e+00
2.518201849421674243e+00
2.518201849421674243e+00
2.552890408032471470e+00
2.552890408032471470e+00
2.783897457808160780e+00
2.783897457808160780e+00
2.723145603808710291e+00
2.723145603808710291e+00
2.815960936307870810e+00
2.815960936307870810e+00
2.998404004028443204e+00
2.998404004028443204e+00
3.003279152806177077e+00
3.003279152806177077e+00
2.968965605639820815e+00
2.968965605639820815e+00
2.968965605639820815e+00
2.738708578753013434e+00
2.738708578753013434e+00
2.457262489700002828e+00
2.457262489700002828e+00
2.121627246925260390e+00
2.121627246925260390e+00
1.999561021759697299e+00
1.999561021759697299e+00
1.837556077761162365e+00
1.837556077761162365e+00
1.672738547929319308e+00
1.672738547929319308e+00
1.630174748985259603e+00
1.630174748985259603e+00
1.950809533982360344e+00
1.950809533982360344e+00
1.950809533982360344e+00
2.052250129703665493e+00
2.052250129703665493e+00
2.054125186925870761e+00
2.054125186925870761e+00
1.797429853205969374e+00
1.797429853205969374e+00
1.762928800317392408e+00
1.762928800317392408e+00
1.995435895870845799e+00
1.995435895870845799e+00
2.256631366924039650e+00
2.256631366924039650e+00
2.148253059480575100e+00
2.148253059480575100e+00
2.220255256813257638e+00
2.220255256813257638e+00
2.220255256813257638e+00
2.134752647480697263e+00
2.134752647480697263e+00
2.151065645313883223e+00
2.151065645313883223e+00
2.208254890591143660e+00
2.208254890591143660e+00
2.064438001647999510e+00
2.064438001647999510e+00
2.162691000091555793e+00
2.162691000091555793e+00
2.308757957701345731e+00
2.308757957701345731e+00
2.250631183812982439e+00
2.250631183812982439e+00
2.521014435254982367e+00
2.521014435254982367e+00
2.521014435254982367e+00
2.897900936918241133e+00
2.897900936918241133e+00
2.860774803918576747e+00
2.860774803918576747e+00
2.592454115421003014e+00
2.592454115421003014e+00
2.397448164311655194e+00
2.397448164311655194e+00
2.356196905423139309e+00
2.356196905423139309e+00
2.078688436536759720e+00
2.078688436536759720e+00
2.170378734702597345e+00
2.170378734702597345e+00
2.354321848200934042e+00
2.354321848200934042e+00
2.354321848200934042e+00
2.469450361644337288e+00
2.469450361644337288e+00
2.227755485702078264e+00
2.227755485702078264e+00
2.009311319315164823e+00
2.009311319315164823e+00
1.659050630207220767e+00
1.659050630207220767e+00
1.508858546708578885e+00
1.508858546708578885e+00
1.846931363872188481e+00
1.846931363872188481e+00
2.043062349314859638e+00
2.043062349314859638e+00
2.306132877590258534e+00
2.306132877590258534e+00
2.306132877590258534e+00
2.847836909085360357e+00
2.847836909085360357e+00
2.869212561418500229e+00
2.869212561418500229e+00
2.729520798364208023e+00
2.729520798364208023e+00
2.525514572588274831e+00
2.525514572588274831e+00
2.279882076479384789e+00
2.279882076479384789e+00
2.390510452589495571e+00
2.390510452589495571e+00
2.194941984313486305e+00
2.194941984313486305e+00
2.082063539536728847e+00
2.082063539536728847e+00
2.081501022370067400e+00
2.081501022370067400e+00
2.081501022370067400e+00
2.171128757591479275e+00
2.171128757591479275e+00
2.675706656086916713e+00
2.675706656086916713e+00
3.026904873805963625e+00
3.026904873805963625e+00
2.465512741477706271e+00
2.465512741477706271e+00
2.092563859981078966e+00
2.092563859981078966e+00
2.016436536759544484e+00
2.016436536759544484e+00
1.793304727317117875e+00
1.793304727317117875e+00
1.793304727317117875e+00
2.200379650257881181e+00
2.200379650257881181e+00
2.476950590533158358e+00
2.476950590533158358e+00
2.553640430921353843e+00
2.553640430921353843e+00
2.511451643421735547e+00
2.511451643421735547e+00
2.583266335032197158e+00
2.583266335032197158e+00
2.592829126865443978e+00
2.592829126865443978e+00
2.666706381420331784e+00
2.666706381420331784e+00
2.706457594531082922e+00
2.706457594531082922e+00
2.455949949644459451e+00
2.455949949644459451e+00
2.455949949644459451e+00
2.421073885311441742e+00
2.421073885311441742e+00
2.176003906369212704e+00
2.176003906369212704e+00
2.083001068147831703e+00
2.083001068147831703e+00
1.693551683095797511e+00
1.693551683095797511e+00
1.356791405987731736e+00
1.356791405987731736e+00
1.755428571428571560e+00
1.755428571428571560e+00
1.894745323038422802e+00
1.894745323038422802e+00
1.915370952482680744e+00
1.915370952482680744e+00
1.984185552537614194e+00
1.984185552537614194e+00
2.343634022034363884e+00
2.343634022034363884e+00
2.343634022034363884e+00
2.725958189642017970e+00
2.725958189642017970e+00
3.039842768639180015e+00
3.039842768639180015e+00
3.053905697805719299e+00
3.053905697805719299e+00
2.750708944975127412e+00
2.750708944975127412e+00
2.601266884365367460e+00
2.601266884365367460e+00
2.365009674367503756e+00
2.365009674367503756e+00
2.242943449201941331e+00
2.242943449201941331e+00
2.242943449201941331e+00
2.196442030091250608e+00
2.196442030091250608e+00
2.103251686147648680e+00
2.103251686147648680e+00
2.065750541703543330e+00
2.065750541703543330e+00
1.978185369426557427e+00
1.978185369426557427e+00
2.092188848536637558e+00
2.092188848536637558e+00
2.219317728202154782e+00
2.219317728202154782e+00
1.927558824427014983e+00
1.927558824427014983e+00
1.819368022705771137e+00
1.819368022705771137e+00
1.819368022705771137e+00
2.020749168370616911e+00
2.020749168370616911e+00
2.438136906033509188e+00
2.438136906033509188e+00
2.594516678365428763e+00
2.594516678365428763e+00
2.081501022370067400e+00
2.081501022370067400e+00
1.707239600817896052e+00
1.707239600817896052e+00
1.973122714926602850e+00
1.973122714926602850e+00
2.341008941923276243e+00
2.341008941923276243e+00
2.465700247199926753e+00
2.465700247199926753e+00
2.465700247199926753e+00
2.797022858363597209e+00
2.797022858363597209e+00
2.974215765861995209e+00
2.974215765861995209e+00
2.957152745139927319e+00
2.957152745139927319e+00
2.792897732474746153e+00
2.792897732474746153e+00
2.588328989532151070e+00
2.588328989532151070e+00
2.443762077700125435e+00
2.443762077700125435e+00
2.353196813867610704e+00
2.353196813867610704e+00
2.108501846369823074e+00
2.108501846369823074e+00
2.108501846369823074e+00
1.854806604205450737e+00
1.854806604205450737e+00
1.746615802484206670e+00
1.810930265205847434e+00
1.810930265205847434e+00
1.810930265205847434e+00
2.178253975035859380e+00
2.178253975035859380e+00
2.410011047700430176e+00
2.410011047700430176e+00
2.530014709921567295e+00
2.530014709921567295e+00
2.469075350199895880e+00
2.469075350199895880e+00
2.347196630756553937e+00
2.347196630756553937e+00
2.411511093478194478e+00
2.411511093478194478e+00
2.427449079866939474e+00
2.427449079866939474e+00
2.544640156254768470e+00
2.544640156254768470e+00
2.544640156254768470e+00
2.562640705587938772e+00
2.562640705587938772e+00
2.295632557145908859e+00
2.295632557145908859e+00
2.269944273201696561e+00
2.269944273201696561e+00
2.176378917813653668e+00
2.176378917813653668e+00
2.226442945646534444e+00
2.226442945646534444e+00
2.597141758476516404e+00
2.597141758476516404e+00
2.499638782921842051e+00
2.499638782921842051e+00
2.389010406811731269e+00
2.389010406811731269e+00
2.389010406811731269e+00
2.231318094424268317e+00
2.231318094424268317e+00
2.080938505203405953e+00
2.080938505203405953e+00
2.016811548203985893e+00
2.016811548203985893e+00
1.825930722983489574e+00
1.825930722983489574e+00
1.658488113040559098e+00
1.658488113040559098e+00
1.769116489150669880e+00
1.769116489150669880e+00
1.886495071260719580e+00
1.886495071260719580e+00
1.886495071260719580e+00
1.941059236426893042e+00
1.941059236426893042e+00
2.303132786034730373e+00
2.303132786034730373e+00
2.784834986419263192e+00
2.784834986419263192e+00
3.401353801080355233e+00
3.401353801080355233e+00
3.328039063692129318e+00
3.328039063692129318e+00
2.735145970030823825e+00
2.735145970030823825e+00
2.423511459700308013e+00
2.423511459700308013e+00
2.128189947202978605e+00
2.128189947202978605e+00
2.128189947202978605e+00
1.863431867427594923e+00
1.863431867427594923e+00
2.214442579424420909e+00
2.214442579424420909e+00
2.441136997589037794e+00
2.441136997589037794e+00
2.511826654866176511e+00
2.511826654866176511e+00
2.520639423810540958e+00
2.520639423810540958e+00
2.538827478865932186e+00
2.538827478865932186e+00
2.503951414532914033e+00
2.503951414532914033e+00
2.552327890865810023e+00
2.552327890865810023e+00
2.439449446089053009e+00
2.439449446089053009e+00
2.256256355479598685e+00
2.256256355479598685e+00
2.025999328592791304e+00
2.025999328592791304e+00
2.025999328592791304e+00
1.970872646259956840e+00
1.970872646259956840e+00
2.044562395092623941e+00
2.044562395092623941e+00
2.048125003814813549e+00
2.048125003814813549e+00
2.083188573870052185e+00
2.083188573870052185e+00
2.261131504257332114e+00
2.261131504257332114e+00
2.445449629200109776e+00
2.445449629200109776e+00
2.443387066255684470e+00
2.443387066255684470e+00
2.354321848200934042e+00
2.354321848200934042e+00
2.122939786980803767e+00
2.122939786980803767e+00
2.122939786980803767e+00
1.910120792260505906e+00
1.910120792260505906e+00
2.062375438703573760e+00
2.062375438703573760e+00
2.035937131870479533e+00
2.035937131870479533e+00
2.050187566759239299e+00
2.050187566759239299e+00
2.157253334147160473e+00
2.157253334147160473e+00
2.338946378978850937e+00
2.338946378978850937e+00
2.499076265755180604e+00
2.499076265755180604e+00
2.370822351756340485e+00
2.370822351756340485e+00
2.370822351756340485e+00
2.413011139255958781e+00
2.413011139255958781e+00
2.590016541032135855e+00
2.590016541032135855e+00
2.856274666585283839e+00
2.856274666585283839e+00
2.566203314310129269e+00
2.566203314310129269e+00
2.209567430646687480e+00
2.209567430646687480e+00
1.948184453871272925e+00
1.948184453871272925e+00
1.658863124485000284e+00
1.658863124485000284e+00
1.658863124485000284e+00
1.753178502761925106e+00
1.753178502761925106e+00
1.990373241370891666e+00
1.990373241370891666e+00
2.744708761864070645e+00
2.744708761864070645e+00
3.218348216193121392e+00
3.218348216193121392e+00
3.244974028748436101e+00
3.244974028748436101e+00
2.613829767754142885e+00
2.613829767754142885e+00
1.873932187871944377e+00
1.873932187871944377e+00
1.742490676595355170e+00
1.742490676595355170e+00
1.742490676595355170e+00
1.917808526871547681e+00
1.917808526871547681e+00
2.162691000091555793e+00
2.162691000091555793e+00
2.365572191534165203e+00
2.365572191534165203e+00
2.506764000366222156e+00
2.506764000366222156e+00
2.937277138584551306e+00
2.937277138584551306e+00
3.200347666859950646e+00
3.200347666859950646e+00
2.942527298806726144e+00
2.942527298806726144e+00
2.503763908810693550e+00
2.503763908810693550e+00
2.503763908810693550e+00
2.196629535813471090e+00
2.196629535813471090e+00
2.131752555925168657e+00
2.131752555925168657e+00
2.090313791314432290e+00
2.090313791314432290e+00
1.964122440260017699e+00
1.964122440260017699e+00
1.959434797204504530e+00
1.959434797204504530e+00
2.022811731315042216e+00
2.022811731315042216e+00
2.271631824701681346e+00
2.271631824701681346e+00
2.397823175756096159e+00
2.397823175756096159e+00
2.388447889645069822e+00
2.388447889645069822e+00
2.388447889645069822e+00
2.148253059480575100e+00
2.148253059480575100e+00
2.150128116702780368e+00
2.150128116702780368e+00
2.134002624591814889e+00
2.134002624591814889e+00
2.154065736869411385e+00
2.154065736869411385e+00
2.197942075869014911e+00
2.197942075869014911e+00
2.508076540421765976e+00
2.508076540421765976e+00
2.510326609088412209e+00
2.510326609088412209e+00
2.252131229590746742e+00
2.252131229590746742e+00
2.252131229590746742e+00
2.274444410534989469e+00
2.274444410534989469e+00
2.288882351145970162e+00
2.288882351145970162e+00
2.263006561479537382e+00
2.263006561479537382e+00
2.087876216925565576e+00
2.087876216925565576e+00
1.938621662038026106e+00
1.938621662038026106e+00
1.911808343760490692e+00
1.911808343760490692e+00
1.977622852259895758e+00
1.977622852259895758e+00
2.157628345591601438e+00
2.157628345591601438e+00
2.157628345591601438e+00
2.409073519089327764e+00
2.409073519089327764e+00
2.638768028809472810e+00
2.638768028809472810e+00
2.700082399975585190e+00
2.700082399975585190e+00
2.692582171086764120e+00
2.692582171086764120e+00
2.753146519363994127e+00
2.753146519363994127e+00
2.777709768974883087e+00
2.777709768974883087e+00
2.596579241309854513e+00
2.596579241309854513e+00
2.439261940366832526e+00
2.439261940366832526e+00
2.439261940366832526e+00
2.436636860255744885e+00
2.436636860255744885e+00
2.385635303811762142e+00
2.385635303811762142e+00
2.476013061922055947e+00
2.476013061922055947e+00
2.502826380199591139e+00
2.502826380199591139e+00
2.425199011200292798e+00
2.425199011200292798e+00
2.426511551255836618e+00
2.426511551255836618e+00
2.341946470534379099e+00
2.341946470534379099e+00
2.341946470534379099e+00
2.194379467146824858e+00
2.194379467146824858e+00
2.137002716147343495e+00
2.137002716147343495e+00
2.017374065370647340e+00
2.017374065370647340e+00
1.971622669148838769e+00
1.971622669148838769e+00
2.002936124759666647e+00
2.002936124759666647e+00
2.059562852870265637e+00
2.059562852870265637e+00
2.190254341257972914e+00
2.190254341257972914e+00
2.362384594256416559e+00
2.362384594256416559e+00
2.505638966032898818e+00
2.505638966032898818e+00
2.505638966032898818e+00
2.643268166142765718e+00
2.643268166142765718e+00
2.563578234199041628e+00
2.563578234199041628e+00
2.384322763756218322e+00
2.384322763756218322e+00
2.301257728812525105e+00
2.301257728812525105e+00
2.234505691702016961e+00
2.234505691702016961e+00
2.151253151036103706e+00
2.151253151036103706e+00
2.011561387981810611e+00
2.011561387981810611e+00
1.865869441816461860e+00
1.865869441816461860e+00
1.865869441816461860e+00
2.052062623981445011e+00
2.052062623981445011e+00
2.303507797479171337e+00
2.303507797479171337e+00
2.527014618366038690e+00
2.527014618366038690e+00
2.661268715475936020e+00
2.661268715475936020e+00
2.651893429364910126e+00
2.651893429364910126e+00
2.617204870754112456e+00
2.617204870754112456e+00
2.563765739921262110e+00
2.563765739921262110e+00
2.313258095034638639e+00
2.313258095034638639e+00
2.313258095034638639e+00
2.221942808313242423e+00
2.221942808313242423e+00
2.123314798425245176e+00
2.123314798425245176e+00
2.078688436536759720e+00
2.078688436536759720e+00
2.193816949980162967e+00
2.193816949980162967e+00
2.302382763145847999e+00
2.302382763145847999e+00
2.333508713034455617e+00
2.333508713034455617e+00
2.437011871700186294e+00
2.437011871700186294e+00
2.509389080477309353e+00
2.509389080477309353e+00
2.509389080477309353e+00
2.455387432477798004e+00
2.455387432477798004e+00
2.530577227088229186e+00
2.530577227088229186e+00
2.490826013977477604e+00
2.490826013977477604e+00
2.440761986144596829e+00
2.440761986144596829e+00
2.482950773644215126e+00
2.482950773644215126e+00
2.381885189367351607e+00
2.381885189367351607e+00
2.329758598590044638e+00
2.329758598590044638e+00
2.336508804589983779e+00
2.336508804589983779e+00
2.336508804589983779e+00
2.269569261757255596e+00
2.269569261757255596e+00
2.340821436201055761e+00
2.340821436201055761e+00
2.352821802423169739e+00
2.352821802423169739e+00
2.314008117923521013e+00
2.314008117923521013e+00
2.278007019257179522e+00
2.278007019257179522e+00
2.207504867702261730e+00
2.207504867702261730e+00
2.209192419202246516e+00
2.209192419202246516e+00
2.223067842646564873e+00
2.223067842646564873e+00
2.223067842646564873e+00
2.249693655201880027e+00
2.249693655201880027e+00
2.326383495590075512e+00
2.326383495590075512e+00
2.405135898922696747e+00
2.405135898922696747e+00
2.317570726645710621e+00
2.317570726645710621e+00
2.464387707144383377e+00
2.464387707144383377e+00
2.411136082033753514e+00
2.411136082033753514e+00
2.298632648701437464e+00
2.298632648701437464e+00
2.246131046479689974e+00
2.246131046479689974e+00
2.246131046479689974e+00
2.143940427869502674e+00
2.143940427869502674e+00
2.079063447981200685e+00
2.079063447981200685e+00
2.125002349925229961e+00
2.125002349925229961e+00
2.173566331980346433e+00
2.173566331980346433e+00
2.338946378978850937e+00
2.338946378978850937e+00
2.467950315866573430e+00
2.467950315866573430e+00
2.718457960753196900e+00
2.718457960753196900e+00
2.780522354808191210e+00
2.780522354808191210e+00
2.780522354808191210e+00
2.530014709921567295e+00
2.530014709921567295e+00
2.346071596423230599e+00
2.346071596423230599e+00
2.301632740256966070e+00
2.301632740256966070e+00
2.197754570146794428e+00
2.197754570146794428e+00
2.166253608813745402e+00
2.166253608813745402e+00
2.208254890591143660e+00
2.208254890591143660e+00
2.170191228980376863e+00
2.170191228980376863e+00
2.345696584978789634e+00
2.345696584978789634e+00
2.345696584978789634e+00
2.500013794366283459e+00
2.500013794366283459e+00
2.335008758812219920e+00
2.335008758812219920e+00
2.344009033478804849e+00
2.344009033478804849e+00
2.380197637867366822e+00
2.380197637867366822e+00
2.335383770256660885e+00
2.335383770256660885e+00
2.345321573534348669e+00
2.345321573534348669e+00
2.422386425366985119e+00
2.422386425366985119e+00
2.457825006866664719e+00
2.457825006866664719e+00
2.457825006866664719e+00
2.391822992645039392e+00
2.391822992645039392e+00
2.258506424146244473e+00
2.258506424146244473e+00
2.200004638813440216e+00
2.200004638813440216e+00
2.200567155980101663e+00
2.200567155980101663e+00
2.223067842646564873e+00
2.223067842646564873e+00
2.295445051423688376e+00
2.295445051423688376e+00
2.313820612201300086e+00
2.313820612201300086e+00
2.339321390423291458e+00
2.339321390423291458e+00
2.359947019867549844e+00
2.359947019867549844e+00
2.358071962645344577e+00
2.358071962645344577e+00
2.358071962645344577e+00
2.410948576311533031e+00
2.410948576311533031e+00
2.435136814477980582e+00
2.435136814477980582e+00
2.417136265144810281e+00
2.417136265144810281e+00
2.462137638477736701e+00
2.462137638477736701e+00
2.388260383922848895e+00
2.388260383922848895e+00
2.274631916257209951e+00
2.274631916257209951e+00
2.202254707480086449e+00
2.202254707480086449e+00
2.108689352092044000e+00
2.108689352092044000e+00
2.108689352092044000e+00
1.896995391705069034e+00
1.896995391705069034e+00
1.769866512039552031e+00
1.769866512039552031e+00
1.888932645649586517e+00
1.888932645649586517e+00
2.199817133091219734e+00
2.199817133091219734e+00
2.423136448255867048e+00
2.423136448255867048e+00
2.411136082033753514e+00
2.411136082033753514e+00
2.452012329477828434e+00
2.452012329477828434e+00
2.452012329477828434e+00
2.613829767754142885e+00
2.613829767754142885e+00
2.911401348918118970e+00
2.911401348918118970e+00
3.057655812250129834e+00
3.057655812250129834e+00
2.767584459974974820e+00
2.767584459974974820e+00
2.502638874477370656e+00
2.502638874477370656e+00
2.381510177922910199e+00
2.381510177922910199e+00
2.279882076479384789e+00
2.279882076479384789e+00
2.311008026367992407e+00
2.311008026367992407e+00
2.311008026367992407e+00
2.355071871089815971e+00
2.355071871089815971e+00
2.330133610034486047e+00
2.330133610034486047e+00
2.235818231757560781e+00
2.235818231757560781e+00
2.210317453535568966e+00
2.210317453535568966e+00
2.271631824701681346e+00
2.271631824701681346e+00
2.325820978423414065e+00
2.325820978423414065e+00
2.243693472090823260e+00
2.243693472090823260e+00
2.214442579424420909e+00
2.214442579424420909e+00
2.214442579424420909e+00
2.247443586535233351e+00
2.247443586535233351e+00
2.188754295480208611e+00
2.188754295480208611e+00
2.194941984313486305e+00
2.194941984313486305e+00
2.130440015869624837e+00
2.130440015869624837e+00
2.168503677480392078e+00
2.168503677480392078e+00
2.231318094424268317e+00
2.231318094424268317e+00
2.317945738090151586e+00
2.317945738090151586e+00
2.457825006866664719e+00
2.457825006866664719e+00
2.457825006866664719e+00
2.509389080477309353e+00
2.509389080477309353e+00
2.462137638477736701e+00
2.462137638477736701e+00
2.492138554033020981e+00
2.492138554033020981e+00
2.479950682088686964e+00
2.479950682088686964e+00
2.383572740867336393e+00
2.383572740867336393e+00
2.363134617145298488e+00
2.363134617145298488e+00
2.363322122867518971e+00
2.363322122867518971e+00
2.239193334757530351e+00
2.239193334757530351e+00
2.175066377758110736e+00
2.175066377758110736e+00
2.175066377758110736e+00
2.103439191869869163e+00
2.103439191869869163e+00
2.074188299203466812e+00
2.074188299203466812e+00
2.149940610980559885e+00
2.149940610980559885e+00
2.177503952146977007e+00
2.177503952146977007e+00
2.231318094424268317e+00
2.231318094424268317e+00
2.375134983367412023e+00
2.375134983367412023e+00
2.341946470534379099e+00
2.341946470534379099e+00
2.276506973479415219e+00
2.276506973479415219e+00
2.276506973479415219e+00
2.233380657368694511e+00
2.233380657368694511e+00
2.269194250312814631e+00
2.269194250312814631e+00
2.428761619922483295e+00
2.428761619922483295e+00
2.507139011810663121e+00
2.507139011810663121e+00
2.497201208532975336e+00
2.497201208532975336e+00
2.450699789422284613e+00
2.450699789422284613e+00
2.443199560533463544e+00
2.443199560533463544e+00
2.443199560533463544e+00
2.462700155644398592e+00
2.462700155644398592e+00
2.434949308755760100e+00
2.434949308755760100e+00
2.406073427533799602e+00
2.406073427533799602e+00
2.457825006866664719e+00
2.457825006866664719e+00
2.447887203588976490e+00
2.447887203588976490e+00
2.440011963255714900e+00
2.440011963255714900e+00
2.449574755088961275e+00
2.449574755088961275e+00
2.415448713644825496e+00
2.415448713644825496e+00
2.415448713644825496e+00
2.344759056367687222e+00
2.344759056367687222e+00
2.326946012756737403e+00
2.326946012756737403e+00
2.156878322702719064e+00
2.156878322702719064e+00
2.075688344981231115e+00
2.075688344981231115e+00
2.086376171147801273e+00
2.086376171147801273e+00
2.079813470870083059e+00
2.079813470870083059e+00
2.138502761925107798e+00
2.138502761925107798e+00
2.189879329813531950e+00
2.189879329813531950e+00
2.189879329813531950e+00
2.285882259590441556e+00
2.285882259590441556e+00
2.423886471144749422e+00
2.423886471144749422e+00
2.470575395977660182e+00
2.470575395977660182e+00
2.424073976866969904e+00
2.424073976866969904e+00
2.281007110812707683e+00
2.281007110812707683e+00
2.128752464369640052e+00
2.128752464369640052e+00
2.103626697592089645e+00
2.103626697592089645e+00
2.146940519425031280e+00
2.146940519425031280e+00
2.172253791924802613e+00
2.172253791924802613e+00
2.323195898312326424e+00
2.323195898312326424e+00
2.323195898312326424e+00
2.435886837366862956e+00
2.435886837366862956e+00
2.553640430921353843e+00
2.553640430921353843e+00
2.617392376476332938e+00
2.617392376476332938e+00
2.610829676198614280e+00
2.610829676198614280e+00
2.622455030976286849e+00
2.622455030976286849e+00
2.524202032532731454e+00
2.524202032532731454e+00
2.393698049867244659e+00
2.393698049867244659e+00
2.330883632923367976e+00
2.330883632923367976e+00
2.330883632923367976e+00
2.301070223090304623e+00
2.301070223090304623e+00
2.248568620868556689e+00
2.248568620868556689e+00
2.245568529313028083e+00
2.245568529313028083e+00
2.226630451368755370e+00
2.226630451368755370e+00
2.249318643757439062e+00
2.249318643757439062e+00
2.239193334757530351e+00
2.239193334757530351e+00
2.117689626758628929e+00
2.117689626758628929e+00
2.167003631702627775e+00
2.167003631702627775e+00
2.167003631702627775e+00
2.287007293923764895e+00
2.287007293923764895e+00
2.385822809533982625e+00
2.385822809533982625e+00
2.585141392254402426e+00
2.585141392254402426e+00
2.597141758476516404e+00
2.597141758476516404e+00
2.489138462477492819e+00
2.489138462477492819e+00
2.441324503311258276e+00
2.441324503311258276e+00
2.361822077089755112e+00
2.361822077089755112e+00
2.281944639423810539e+00
2.281944639423810539e+00
2.281944639423810539e+00
2.294132511368144556e+00
2.294132511368144556e+00
2.290757408368175430e+00
2.290757408368175430e+00
2.302757774590289408e+00
2.302757774590289408e+00
2.297320108645893644e+00
2.297320108645893644e+00
2.221755302591021497e+00
2.221755302591021497e+00
2.224567888424329176e+00
2.224567888424329176e+00
2.257193884090700653e+00
2.257193884090700653e+00
2.283069673757133433e+00
2.283069673757133433e+00
2.283069673757133433e+00
2.338008850367748082e+00
2.338008850367748082e+00
2.377760063478499664e+00
2.377760063478499664e+00
2.438511917477950597e+00
2.438511917477950597e+00
2.473200476088747823e+00
2.473200476088747823e+00
2.351321756645405436e+00
2.351321756645405436e+00
2.308757957701345731e+00
2.308757957701345731e+00
2.371009857478560967e+00
2.371009857478560967e+00
2.282694662312692468e+00
2.282694662312692468e+00
2.282694662312692468e+00
2.203567247535630269e+00
2.203567247535630269e+00
2.071750724814600098e+00
2.071750724814600098e+00
2.042874843592639156e+00
2.042874843592639156e+00
2.098751548814355772e+00
2.098751548814355772e+00
2.156690816980498582e+00
2.156690816980498582e+00
2.257006378368480615e+00
2.257006378368480615e+00
2.314945646534623425e+00
2.314945646534623425e+00
2.259631458479567812e+00
2.259631458479567812e+00
2.259631458479567812e+00
2.349071687978759204e+00
2.349071687978759204e+00
2.471887936033204003e+00
2.471887936033204003e+00
2.525139561143833866e+00
2.525139561143833866e+00
2.612704733420819547e+00
2.612704733420819547e+00
2.564140751365703075e+00
2.564140751365703075e+00
2.367259743034150432e+00
2.367259743034150432e+00
2.336883816034425188e+00
2.336883816034425188e+00
2.336883816034425188e+00
2.363134617145298488e+00
2.363134617145298488e+00
2.406073427533799602e+00
2.406073427533799602e+00
2.450137272255623166e+00
2.450137272255623166e+00
2.379072603534043484e+00
2.379072603534043484e+00
2.323195898312326424e+00
2.323195898312326424e+00
2.323570909756767389e+00
2.323570909756767389e+00
2.348134159367656792e+00
2.348134159367656792e+00
2.419761345255897922e+00
2.419761345255897922e+00
2.386947843867305519e+00
2.386947843867305519e+00
2.386947843867305519e+00
2.321883358256782603e+00
2.321883358256782603e+00
2.385447798089541660e+00
2.385447798089541660e+00
2.333321207312235135e+00
2.333321207312235135e+00
2.209379924924466998e+00
2.209379924924466998e+00
2.117502121036408447e+00
2.117502121036408447e+00
2.007623767815180038e+00
2.007623767815180038e+00
1.965997497482223189e+00
1.965997497482223189e+00
2.013998962370677770e+00
2.013998962370677770e+00
2.013998962370677770e+00
2.093688894314401416e+00
2.093688894314401416e+00
2.234318185979796478e+00
2.234318185979796478e+00
2.350196722312082542e+00
2.350196722312082542e+00
2.496076174199651998e+00
2.496076174199651998e+00
2.671019013031403322e+00
2.671019013031403322e+00
2.703269997253333834e+00
2.703269997253333834e+00
2.638018005920590880e+00
2.638018005920590880e+00
2.578203680532242803e+00
2.578203680532242803e+00
2.407760979033784388e+00
2.407760979033784388e+00
2.328071047090059853e+00
2.328071047090059853e+00
2.285319742423780109e+00
2.285319742423780109e+00
2.285319742423780109e+00
2.204129764702292160e+00
2.204129764702292160e+00
2.144127933591723156e+00
2.144127933591723156e+00
2.128752464369640052e+00
2.128752464369640052e+00
2.213880062257759462e+00
2.213880062257759462e+00
2.331633655812249906e+00
2.331633655812249906e+00
2.400448255867183356e+00
2.400448255867183356e+00
2.401948301644947659e+00
2.401948301644947659e+00
2.352259285256507848e+00
2.352259285256507848e+00
2.352259285256507848e+00
2.338383861812189490e+00
2.338383861812189490e+00
2.433074251533554833e+00
2.433074251533554833e+00
2.494951139866329104e+00
2.494951139866329104e+00
2.494013611255226248e+00
2.494013611255226248e+00
2.435886837366862956e+00
2.435886837366862956e+00
2.309132969145787140e+00
2.309132969145787140e+00
2.164003540147099169e+00
2.164003540147099169e+00
2.128002441480758122e+00
2.128002441480758122e+00
2.128002441480758122e+00
2.163816034424878687e+00
2.163816034424878687e+00
2.230380565813165905e+00
2.230380565813165905e+00
2.332946195867793726e+00
2.332946195867793726e+00
2.414511185033723084e+00
2.414511185033723084e+00
2.479575670644245999e+00
2.479575670644245999e+00
2.468137821588793912e+00
2.468137821588793912e+00
2.402323313089388623e+00
2.402323313089388623e+00
2.413761162144840711e+00
2.413761162144840711e+00
2.413761162144840711e+00
2.376447523422955843e+00
2.376447523422955843e+00
2.298632648701437464e+00
2.298632648701437464e+00
2.287194799645985377e+00
2.287194799645985377e+00
2.230193060090945423e+00
2.230193060090945423e+00
2.202442213202307375e+00
2.202442213202307375e+00
2.218567705313272853e+00
2.218567705313272853e+00
2.207879879146702695e+00
2.207879879146702695e+00
2.250818689535202921e+00
2.250818689535202921e+00
2.250818689535202921e+00
2.296195074312570750e+00
2.296195074312570750e+00
2.321320841090121156e+00
2.321320841090121156e+00
2.386010315256203107e+00
2.386010315256203107e+00
2.394823084200567997e+00
2.394823084200567997e+00
2.395198095645008962e+00
2.395198095645008962e+00
2.467575304422132465e+00
2.467575304422132465e+00
2.376072511978514878e+00
2.376072511978514878e+00
2.327133518478957885e+00
2.327133518478957885e+00
2.327133518478957885e+00
2.297132602923673161e+00
2.297132602923673161e+00
2.224755394146549659e+00
2.224755394146549659e+00
2.196817041535691573e+00
2.196817041535691573e+00
2.258131412701803509e+00
2.258131412701803509e+00
2.240505874813074172e+00
2.240505874813074172e+00
2.265444135868404540e+00
2.265444135868404540e+00
2.305757866145817125e+00
2.305757866145817125e+00
2.348134159367656792e+00
2.348134159367656792e+00
2.348134159367656792e+00
2.424448988311410869e+00
2.424448988311410869e+00
2.407948484756004870e+00
2.407948484756004870e+00
2.386197820978423145e+00
2.386197820978423145e+00
2.421636402478102745e+00
2.421636402478102745e+00
2.349634205145421095e+00
2.349634205145421095e+00
2.338758873256630455e+00
2.338758873256630455e+00
2.264881618701742649e+00
2.264881618701742649e+00
2.209567430646687480e+00
2.209567430646687480e+00
2.209567430646687480e+00
2.283257179479354360e+00
2.283257179479354360e+00
2.361634571367534630e+00
2.361634571367534630e+00
2.405510910367137711e+00
2.405510910367137711e+00
2.385447798089541660e+00
2.385447798089541660e+00
2.340258919034394314e+00
2.340258919034394314e+00
2.380760155034028269e+00
2.380760155034028269e+00
2.398760704367198571e+00
2.398760704367198571e+00
2.350946745200964472e+00
2.350946745200964472e+00
2.350946745200964472e+00
2.384510269478438804e+00
2.384510269478438804e+00
2.389197912533951751e+00
2.389197912533951751e+00
2.296945097201452679e+00
2.296945097201452679e+00
2.259631458479567812e+00
2.259631458479567812e+00
2.218380199591051927e+00
2.218380199591051927e+00
2.180879055146946577e+00
2.180879055146946577e+00
2.197192052980132537e+00
2.197192052980132537e+00
2.197192052980132537e+00
2.244255989257484707e+00
2.244255989257484707e+00
2.282507156590471986e+00
2.282507156590471986e+00
2.340633930478835278e+00
2.340633930478835278e+00
2.374384960478530537e+00
2.374384960478530537e+00
2.443762077700125435e+00
2.443762077700125435e+00
2.438699423200171079e+00
2.438699423200171079e+00
2.389197912533951751e+00
2.389197912533951751e+00
2.419761345255897922e+00
2.419761345255897922e+00
2.355634388256477418e+00
2.355634388256477418e+00
2.276319467757194737e+00
2.276319467757194737e+00
2.276319467757194737e+00
2.259068941312906365e+00
2.259068941312906365e+00
2.223067842646564873e+00
2.223067842646564873e+00
2.210879970702230857e+00
2.210879970702230857e+00
2.239193334757530351e+00
2.239193334757530351e+00
2.246693563646351421e+00
2.246693563646351421e+00
2.295632557145908859e+00
2.295632557145908859e+00
2.339883907589953349e+00
2.339883907589953349e+00
2.362572099978637485e+00
2.362572099978637485e+00
2.362572099978637485e+00
2.431949217200232383e+00
2.431949217200232383e+00
2.425761528366954689e+00
2.425761528366954689e+00
2.395010589922788480e+00
2.395010589922788480e+00
2.435699331644642474e+00
2.435699331644642474e+00
2.358259468367565059e+00
2.358259468367565059e+00
2.291507431257057803e+00
2.291507431257057803e+00
2.239005829035309869e+00
2.239005829035309869e+00
2.185566698202459968e+00
2.185566698202459968e+00
2.185566698202459968e+00
2.217630176702169997e+00
2.217630176702169997e+00
2.254193792535172935e+00
2.254193792535172935e+00
2.278194524979400004e+00
2.278194524979400004e+00
2.333321207312235135e+00
2.333321207312235135e+00
2.348321665089877275e+00
2.348321665089877275e+00
2.363697134311959935e+00
2.363697134311959935e+00
2.395573107089449927e+00
2.395573107089449927e+00
2.368572283089693808e+00
2.368572283089693808e+00
2.368572283089693808e+00
2.378135074922940628e+00
2.378135074922940628e+00
2.390510452589495571e+00
2.390510452589495571e+00
2.305757866145817125e+00
2.305757866145817125e+00
2.297132602923673161e+00
2.297132602923673161e+00
2.281569627979369130e+00
2.281569627979369130e+00
2.222130314035462462e+00
2.222130314035462462e+00
2.235818231757560781e+00
2.235818231757560781e+00
2.246131046479689974e+00
2.246131046479689974e+00
2.274444410534989469e+00
2.274444410534989469e+00
2.355071871089815971e+00
2.355071871089815971e+00
2.355071871089815971e+00
2.373072420422986717e+00
2.373072420422986717e+00
2.412636127811517817e+00
2.412636127811517817e+00
2.424823999755851833e+00
2.424823999755851833e+00
2.382072695089572090e+00
2.382072695089572090e+00
2.406635944700461049e+00
2.406635944700461049e+00
2.397635670033875677e+00
2.397635670033875677e+00
2.305757866145817125e+00
2.305757866145817125e+00
2.272381847590563719e+00
2.272381847590563719e+00
2.227942991424298746e+00
2.227942991424298746e+00
2.227942991424298746e+00
2.194941984313486305e+00
2.194941984313486305e+00
2.225880428479872997e+00
2.225880428479872997e+00
2.223067842646564873e+00
2.223067842646564873e+00
2.266381664479506952e+00
2.266381664479506952e+00
2.321695852534562121e+00
2.321695852534562121e+00
2.344759056367687222e+00
2.344759056367687222e+00
2.403448347422711961e+00
2.403448347422711961e+00
2.403448347422711961e+00
2.396698141422773265e+00
2.396698141422773265e+00
2.364259651478621826e+00
2.364259651478621826e+00
2.395198095645008962e+00
2.395198095645008962e+00
2.331821161534470832e+00
2.331821161534470832e+00
2.278194524979400004e+00
2.278194524979400004e+00
2.271069307535019899e+00
2.271069307535019899e+00
2.229818048646504014e+00
2.229818048646504014e+00
2.227380474257637299e+00
2.227380474257637299e+00
2.227380474257637299e+00
2.258131412701803509e+00
2.258131412701803509e+00
2.270881801812799416e+00
2.270881801812799416e+00
2.334633747367778511e+00
2.334633747367778511e+00
2.363322122867518971e+00
2.363322122867518971e+00
2.373072420422986717e+00
2.373072420422986717e+00
2.423136448255867048e+00
2.423136448255867048e+00
2.407948484756004870e+00
2.407948484756004870e+00
2.407948484756004870e+00
2.375509994811853431e+00
2.375509994811853431e+00
2.386572832422864110e+00
2.386572832422864110e+00
2.297132602923673161e+00
2.297132602923673161e+00
2.258131412701803509e+00
2.258131412701803509e+00
2.229630542924283532e+00
2.229630542924283532e+00
2.197004547257912055e+00
2.197004547257912055e+00
2.199067110202337361e+00
2.199067110202337361e+00
2.206192327646717910e+00
2.206192327646717910e+00
2.245756035035248566e+00
2.245756035035248566e+00
2.245756035035248566e+00
2.315508163701284872e+00
2.315508163701284872e+00
2.352446790978728330e+00
2.352446790978728330e+00
2.406635944700461049e+00
2.406635944700461049e+00
2.431199194311350009e+00
2.431199194311350009e+00
2.411511093478194478e+00
2.411511093478194478e+00
2.433824274422437206e+00
2.433824274422437206e+00
2.416198736533707869e+00
2.416198736533707869e+00
2.298820154423657947e+00
2.298820154423657947e+00
2.270131778923917043e+00
2.270131778923917043e+00
2.270131778923917043e+00
2.226067934202093479e+00
2.226067934202093479e+00
2.188379284035767647e+00
2.188379284035767647e+00
2.224942899868770141e+00
2.224942899868770141e+00
2.244255989257484707e+00
2.244255989257484707e+00
2.294132511368144556e+00
2.294132511368144556e+00
2.353571825312051669e+00
2.353571825312051669e+00
2.363509628589739453e+00
2.363509628589739453e+00
2.407760979033784388e+00
2.407760979033784388e+00
2.407760979033784388e+00
2.421823908200323228e+00
2.421823908200323228e+00
2.371572374645222414e+00
2.371572374645222414e+00
2.404385876033814373e+00
2.404385876033814373e+00
2.352259285256507848e+00
2.352259285256507848e+00
2.266756675923947917e+00
2.266756675923947917e+00
2.252506241035188150e+00
2.252506241035188150e+00
2.208254890591143660e+00
2.208254890591143660e+00
2.208254890591143660e+00
2.204504776146733125e+00
2.204504776146733125e+00
2.237318277535325084e+00
2.237318277535325084e+00
2.244443494979705633e+00
2.244443494979705633e+00
2.294507522812585520e+00
2.294507522812585520e+00
2.335196264534440402e+00
2.335196264534440402e+00
2.350009216589862060e+00
2.350009216589862060e+00
2.397635670033875677e+00
2.397635670033875677e+00
2.377010040589617734e+00
2.377010040589617734e+00
2.377010040589617734e+00
2.359572008423108880e+00
2.359572008423108880e+00
2.399510727256080500e+00
2.399510727256080500e+00
2.323195898312326424e+00
2.323195898312326424e+00
2.270506790368358452e+00
2.270506790368358452e+00
2.261131504257332114e+00
2.261131504257332114e+00
2.218005188146610962e+00
2.218005188146610962e+00
2.224755394146549659e+00
2.224755394146549659e+00
2.224755394146549659e+00
2.238068300424207457e+00
2.238068300424207457e+00
2.259443952757347329e+00
2.259443952757347329e+00
2.317195715201269657e+00
2.317195715201269657e+00
2.350759239478743989e+00
2.350759239478743989e+00
2.375134983367412023e+00
2.375134983367412023e+00
2.418073793755913137e+00
2.418073793755913137e+00
2.392198004089480357e+00
2.392198004089480357e+00
2.391822992645039392e+00
2.391822992645039392e+00
2.391822992645039392e+00
2.399135715811639535e+00
2.399135715811639535e+00
2.295820062868129341e+00
2.295820062868129341e+00
2.255131321146275347e+00
2.255131321146275347e+00
2.236005737479781263e+00
2.236005737479781263e+00
2.202442213202307375e+00
2.202442213202307375e+00
2.215942625202185212e+00
2.215942625202185212e+00
2.235818231757560781e+00
2.235818231757560781e+00
2.280444593646046680e+00
2.280444593646046680e+00
2.329196081423383191e+00
2.329196081423383191e+00
2.329196081423383191e+00
2.343634022034363884e+00
2.343634022034363884e+00
2.381322672200689716e+00
2.381322672200689716e+00
2.404760887478255782e+00
2.404760887478255782e+00
2.371009857478560967e+00
2.371009857478560967e+00
2.388447889645069822e+00
2.388447889645069822e+00
2.368009765923032361e+00
2.368009765923032361e+00
2.288507339701529197e+00
2.288507339701529197e+00
2.288507339701529197e+00
2.270506790368358452e+00
2.270506790368358452e+00
2.230943082979827352e+00
2.230943082979827352e+00
2.209004913480026033e+00
2.209004913480026033e+00
2.238630817590868904e+00
2.238630817590868904e+00
2.240505874813074172e+00
2.240505874813074172e+00
2.286819788201544412e+00
2.286819788201544412e+00
2.341196447645496725e+00
2.341196447645496725e+00
2.354321848200934042e+00
2.354321848200934042e+00
2.354321848200934042e+00
2.400823267311624321e+00
2.400823267311624321e+00
2.404198370311593891e+00
2.404198370311593891e+00
2.370634846034120002e+00
2.370634846034120002e+00
2.415261207922605013e+00
2.415261207922605013e+00
2.348884182256538722e+00
2.348884182256538722e+00
2.269756767479476078e+00
2.269756767479476078e+00
2.248568620868556689e+00
2.248568620868556689e+00
2.200379650257881181e+00
2.200379650257881181e+00
2.200379650257881181e+00
2.209192419202246516e+00
2.209192419202246516e+00
2.238630817590868904e+00
2.238630817590868904e+00
2.253068758201849597e+00
2.253068758201849597e+00
2.307257911923581428e+00
2.307257911923581428e+00
2.345509079256569152e+00
2.345509079256569152e+00
2.362197088534196077e+00
2.362197088534196077e+00
2.408698507644886799e+00
2.408698507644886799e+00
2.389760429700613198e+00
2.389760429700613198e+00
2.371009857478560967e+00
2.371009857478560967e+00
2.371009857478560967e+00
2.414323679311502602e+00
2.414323679311502602e+00
2.326758507034516477e+00
2.326758507034516477e+00
2.269569261757255596e+00
2.269569261757255596e+00
2.241068391979735619e+00
2.241068391979735619e+00
2.196067018646809643e+00
2.196067018646809643e+00
2.219317728202154782e+00
2.219317728202154782e+00
2.241818414868617992e+00
2.241818414868617992e+00
2.274631916257209951e+00
2.274631916257209951e+00
2.326383495590075512e+00
2.326383495590075512e+00
2.326383495590075512e+00
2.350196722312082542e+00
2.350196722312082542e+00
2.377385052034058699e+00
2.377385052034058699e+00
2.410761070589312105e+00
2.410761070589312105e+00
2.372134891811884305e+00
2.372134891811884305e+00
2.386947843867305519e+00
2.386947843867305519e+00
2.379260109256263966e+00
2.379260109256263966e+00
2.287569811090426342e+00
2.287569811090426342e+00
2.287569811090426342e+00
2.264506607257301685e+00
2.264506607257301685e+00
2.224567888424329176e+00
2.224567888424329176e+00
2.197942075869014911e+00
2.197942075869014911e+00
2.220067751091036712e+00
2.220067751091036712e+00
2.244443494979705633e+00
2.244443494979705633e+00
2.285694753868221074e+00
2.285694753868221074e+00
2.338383861812189490e+00
2.338383861812189490e+00
2.346634113589892490e+00
2.346634113589892490e+00
2.346634113589892490e+00
2.401198278756065729e+00
2.401198278756065729e+00
2.417511276589251690e+00
2.417511276589251690e+00
2.382822717978454019e+00
2.382822717978454019e+00
2.411136082033753514e+00
2.411136082033753514e+00
2.363509628589739453e+00
2.363509628589739453e+00
2.279319559312723342e+00
2.279319559312723342e+00
2.260381481368449741e+00
2.260381481368449741e+00
2.209379924924466998e+00
2.209379924924466998e+00
2.209379924924466998e+00
2.202442213202307375e+00
2.202442213202307375e+00
2.236193243202001746e+00
2.236193243202001746e+00
2.249881160924100509e+00
2.249881160924100509e+00
2.300132694479201767e+00
2.300132694479201767e+00
2.338758873256630455e+00
2.338758873256630455e+00
2.360322031311990809e+00
2.360322031311990809e+00
2.410761070589312105e+00
2.410761070589312105e+00
2.406448438978240567e+00
2.406448438978240567e+00
2.379635120700704931e+00
2.379635120700704931e+00
2.379635120700704931e+00
2.418448805200354101e+00
2.418448805200354101e+00
2.332571184423352761e+00
2.332571184423352761e+00
2.269006744590594149e+00
2.269006744590594149e+00
2.253068758201849597e+00
2.253068758201849597e+00
2.195692007202368234e+00
2.195692007202368234e+00
2.201129673146763555e+00
2.201129673146763555e+00
2.234318185979796478e+00
2.234318185979796478e+00
2.258131412701803509e+00
2.258131412701803509e+00
2.258131412701803509e+00
2.325070955534531691e+00
2.325070955534531691e+00
2.350759239478743989e+00
2.350759239478743989e+00
2.372322397534104788e+00
2.372322397534104788e+00
2.415261207922605013e+00
2.415261207922605013e+00
2.380010132145145896e+00
2.380010132145145896e+00
2.368759788811914291e+00
2.368759788811914291e+00
2.379260109256263966e+00
2.379260109256263966e+00
2.379260109256263966e+00
2.286444776757103448e+00
2.286444776757103448e+00
2.250818689535202921e+00
2.250818689535202921e+00
2.224567888424329176e+00
2.224567888424329176e+00
2.199817133091219734e+00
2.199817133091219734e+00
2.224192876979888212e+00
2.224192876979888212e+00
2.229818048646504014e+00
2.229818048646504014e+00
2.266944181646168399e+00
2.266944181646168399e+00
2.341946470534379099e+00
2.341946470534379099e+00
2.341946470534379099e+00
2.371197363200781449e+00
2.371197363200781449e+00
2.407948484756004870e+00
2.407948484756004870e+00
2.424073976866969904e+00
2.424073976866969904e+00
2.383572740867336393e+00
2.383572740867336393e+00
2.406260933256020085e+00
2.406260933256020085e+00
2.393510544145024177e+00
2.393510544145024177e+00
2.303507797479171337e+00
2.303507797479171337e+00
2.274069399090548504e+00
2.274069399090548504e+00
2.274069399090548504e+00
2.220630268257698603e+00
2.220630268257698603e+00
2.186316721091342341e+00
2.186316721091342341e+00
2.214255073702200427e+00
2.214255073702200427e+00
2.225505417035432032e+00
2.225505417035432032e+00
2.274631916257209951e+00
2.274631916257209951e+00
2.331633655812249906e+00
2.331633655812249906e+00
2.344946562089907705e+00
2.344946562089907705e+00
2.400073244422742391e+00
2.400073244422742391e+00
2.405510910367137711e+00
2.405510910367137711e+00
2.369697317423017147e+00
2.369697317423017147e+00
2.369697317423017147e+00
2.413948667867061193e+00
2.413948667867061193e+00
2.350946745200964472e+00
2.350946745200964472e+00
2.284944730979339145e+00
2.284944730979339145e+00
2.261131504257332114e+00
2.261131504257332114e+00
2.209192419202246516e+00
2.209192419202246516e+00
2.199067110202337361e+00
2.199067110202337361e+00
2.231505600146489243e+00
2.231505600146489243e+00
2.249506149479659545e+00
2.249506149479659545e+00
2.249506149479659545e+00
2.308007934812463802e+00
2.308007934812463802e+00
2.345134067812128187e+00
2.345134067812128187e+00
2.357884456923124095e+00
2.357884456923124095e+00
2.410386059144871140e+00
2.410386059144871140e+00
2.398010681478316641e+00
2.398010681478316641e+00
2.382072695089572090e+00
2.382072695089572090e+00
2.417511276589251690e+00
2.417511276589251690e+00
2.325633472701193583e+00
2.325633472701193583e+00
2.325633472701193583e+00
2.270319284646137969e+00
2.270319284646137969e+00
2.241630909146397510e+00
2.241630909146397510e+00
2.185754203924680450e+00
2.185754203924680450e+00
2.205817316202276945e+00
2.205817316202276945e+00
2.228130497146519229e+00
2.228130497146519229e+00
2.261506515701773079e+00
2.261506515701773079e+00
2.320758323923459709e+00
2.320758323923459709e+00
2.320758323923459709e+00
2.344946562089907705e+00
2.344946562089907705e+00
2.383947752311777357e+00
2.383947752311777357e+00
2.427261574144718992e+00
2.427261574144718992e+00
2.394260567033906106e+00
2.394260567033906106e+00
2.396510635700552783e+00
2.396510635700552783e+00
2.394635578478347071e+00
2.394635578478347071e+00
2.302570268868068482e+00
2.302570268868068482e+00
2.269194250312814631e+00
2.269194250312814631e+00
2.225880428479872997e+00
2.225880428479872997e+00
2.187254249702444309e+00
2.187254249702444309e+00
2.227942991424298746e+00
2.227942991424298746e+00
2.241818414868617992e+00
2.241818414868617992e+00
2.278382030701620931e+00
2.278382030701620931e+00
2.278382030701620931e+00
2.339883907589953349e+00
2.339883907589953349e+00
2.362947111423078006e+00
2.362947111423078006e+00
2.409261024811548246e+00
2.409261024811548246e+00
2.413011139255958781e+00
2.413011139255958781e+00
2.368759788811914291e+00
2.368759788811914291e+00
