2.308570451979125249e+00
2.342696493423261028e+00
2.342696493423261028e+00
2.342696493423261028e+00
2.375322489089632505e+00
2.375322489089632505e+00
2.375322489089632505e+00
2.375322489089632505e+00
2.424823999755851833e+00
2.424823999755851833e+00
2.424823999755851833e+00
2.383947752311777357e+00
2.383947752311777357e+00
2.383947752311777357e+00
2.383947752311777357e+00
2.383760246589556875e+00
2.383760246589556875e+00
2.383760246589556875e+00
2.404198370311593891e+00
2.404198370311593891e+00
2.404198370311593891e+00
2.290757408368175430e+00
2.290757408368175430e+00
2.290757408368175430e+00
2.290757408368175430e+00
2.245756035035248566e+00
2.245756035035248566e+00
2.245756035035248566e+00
2.212380016479995160e+00
2.212380016479995160e+00
2.212380016479995160e+00
2.169253700369274007e+00
2.169253700369274007e+00
2.169253700369274007e+00
2.169253700369274007e+00
2.190441846980193397e+00
2.190441846980193397e+00
2.190441846980193397e+00
2.214067567979979945e+00
2.214067567979979945e+00
2.214067567979979945e+00
2.263756584368419311e+00
2.263756584368419311e+00
2.263756584368419311e+00
2.263756584368419311e+00
2.325820978423414065e+00
2.325820978423414065e+00
2.325820978423414065e+00
2.343446516312143402e+00
2.343446516312143402e+00
2.343446516312143402e+00
2.343446516312143402e+00
2.395010589922788480e+00
2.395010589922788480e+00
2.395010589922788480e+00
2.417136265144810281e+00
2.417136265144810281e+00
2.417136265144810281e+00
2.369697317423017147e+00
2.369697317423017147e+00
2.369697317423017147e+00
2.369697317423017147e+00
2.408511001922666317e+00
2.408511001922666317e+00
2.408511001922666317e+00
2.376822534867396808e+00
2.376822534867396808e+00
2.376822534867396808e+00
2.268069215979491737e+00
2.268069215979491737e+00
2.268069215979491737e+00
2.268069215979491737e+00
2.238630817590868904e+00
2.238630817590868904e+00
2.238630817590868904e+00
2.180879055146946577e+00
2.180879055146946577e+00
2.180879055146946577e+00
2.155190771202734279e+00
2.155190771202734279e+00
2.155190771202734279e+00
2.155190771202734279e+00
2.193066927091281038e+00
2.193066927091281038e+00
2.193066927091281038e+00
2.224380382702108694e+00
2.224380382702108694e+00
2.224380382702108694e+00
2.295070039979247412e+00
2.295070039979247412e+00
2.295070039979247412e+00
2.340821436201055761e+00
2.340821436201055761e+00
2.358071962645344577e+00
2.358071962645344577e+00
2.358071962645344577e+00
2.358071962645344577e+00
2.425199011200292798e+00
2.425199011200292798e+00
2.425199011200292798e+00
2.417323770867030763e+00
2.417323770867030763e+00
2.417323770867030763e+00
2.376447523422955843e+00
2.376447523422955843e+00
2.376447523422955843e+00
2.376447523422955843e+00
2.430449171422468080e+00
2.430449171422468080e+00
2.430449171422468080e+00
2.341008941923276243e+00
2.341008941923276243e+00
2.341008941923276243e+00
2.255881344035157721e+00
2.255881344035157721e+00
2.255881344035157721e+00
2.255881344035157721e+00
2.226630451368755370e+00
2.226630451368755370e+00
2.226630451368755370e+00
2.163066011535996758e+00
2.163066011535996758e+00
2.163066011535996758e+00
2.164753563035981099e+00
2.164753563035981099e+00
2.164753563035981099e+00
2.164753563035981099e+00
2.203004730368968822e+00
2.203004730368968822e+00
2.203004730368968822e+00
2.224380382702108694e+00
2.224380382702108694e+00
2.224380382702108694e+00
2.286444776757103448e+00
2.286444776757103448e+00
2.286444776757103448e+00
2.326758507034516477e+00
2.326758507034516477e+00
2.326758507034516477e+00
2.351696768089846401e+00
2.351696768089846401e+00
2.351696768089846401e+00
2.351696768089846401e+00
2.416761253700369316e+00
2.416761253700369316e+00
2.416761253700369316e+00
2.395198095645008962e+00
2.395198095645008962e+00
2.395198095645008962e+00
2.390885464033936536e+00
2.390885464033936536e+00
2.390885464033936536e+00
2.423886471144749422e+00
2.423886471144749422e+00
2.423886471144749422e+00
2.423886471144749422e+00
2.309320474868007622e+00
2.309320474868007622e+00
2.309320474868007622e+00
2.251006195257423848e+00
2.251006195257423848e+00
2.251006195257423848e+00
2.215192602313302839e+00
2.215192602313302839e+00
2.215192602313302839e+00
2.215192602313302839e+00
2.180691549424726094e+00
2.180691549424726094e+00
2.180691549424726094e+00
2.204317270424512643e+00
2.204317270424512643e+00
2.204317270424512643e+00
2.219692739646595747e+00
2.219692739646595747e+00
2.219692739646595747e+00
2.219692739646595747e+00
2.241255897701956545e+00
2.241255897701956545e+00
2.241255897701956545e+00
2.316445692312387283e+00
2.316445692312387283e+00
2.316445692312387283e+00
2.352821802423169739e+00
2.352821802423169739e+00
2.352821802423169739e+00
2.352821802423169739e+00
2.404385876033814373e+00
2.404385876033814373e+00
2.404385876033814373e+00
2.436074343089083438e+00
2.436074343089083438e+00
2.436074343089083438e+00
2.387135349589526001e+00
2.387135349589526001e+00
2.387135349589526001e+00
2.387135349589526001e+00
2.404760887478255782e+00
2.404760887478255782e+00
2.404760887478255782e+00
2.391822992645039392e+00
2.391822992645039392e+00
2.391822992645039392e+00
2.275756950590533290e+00
2.275756950590533290e+00
2.275756950590533290e+00
2.275756950590533290e+00
2.241443403424177028e+00
2.241443403424177028e+00
2.241443403424177028e+00
2.187816766869105756e+00
2.187816766869105756e+00
2.187816766869105756e+00
2.187816766869105756e+00
2.153315713980529011e+00
2.153315713980529011e+00
2.153315713980529011e+00
2.184066652424695665e+00
2.184066652424695665e+00
2.184066652424695665e+00
2.205817316202276945e+00
2.205817316202276945e+00
2.205817316202276945e+00
2.205817316202276945e+00
2.270506790368358452e+00
2.270506790368358452e+00
2.270506790368358452e+00
2.338946378978850937e+00
2.338946378978850937e+00
2.338946378978850937e+00
2.355259376812036454e+00
2.355259376812036454e+00
2.355259376812036454e+00
2.355259376812036454e+00
2.411698599200414961e+00
2.411698599200414961e+00
2.411698599200414961e+00
2.413386150700399746e+00
2.413386150700399746e+00
2.413386150700399746e+00
2.371197363200781449e+00
2.371197363200781449e+00
2.371197363200781449e+00
2.371197363200781449e+00
2.430074159978026671e+00
2.430074159978026671e+00
2.430074159978026671e+00
2.369884823145237629e+00
2.369884823145237629e+00
2.369884823145237629e+00
2.269006744590594149e+00
2.269006744590594149e+00
2.269006744590594149e+00
2.269006744590594149e+00
2.241443403424177028e+00
2.241443403424177028e+00
2.241443403424177028e+00
2.179941526535844165e+00
2.179941526535844165e+00
2.179941526535844165e+00
2.167941160313730187e+00
2.167941160313730187e+00
2.167941160313730187e+00
2.167941160313730187e+00
2.209567430646687480e+00
2.209567430646687480e+00
2.209567430646687480e+00
2.234130680257575996e+00
2.234130680257575996e+00
2.234130680257575996e+00
2.295632557145908859e+00
2.295632557145908859e+00
2.295632557145908859e+00
2.340071413312173831e+00
2.340071413312173831e+00
2.340071413312173831e+00
2.340071413312173831e+00
2.356384411145359792e+00
2.356384411145359792e+00
2.356384411145359792e+00
2.419198828089236475e+00
2.419198828089236475e+00
2.419198828089236475e+00
2.419198828089236475e+00
2.397448164311655194e+00
2.397448164311655194e+00
2.397448164311655194e+00
2.374009949034089573e+00
2.374009949034089573e+00
2.374009949034089573e+00
2.419761345255897922e+00
2.419761345255897922e+00
2.419761345255897922e+00
2.419761345255897922e+00
2.311195532090212890e+00
2.311195532090212890e+00
2.311195532090212890e+00
2.245193517868587563e+00
2.245193517868587563e+00
2.245193517868587563e+00
2.211254982146671821e+00
2.211254982146671821e+00
2.211254982146671821e+00
2.211254982146671821e+00
2.159878414258247670e+00
2.159878414258247670e+00
2.159878414258247670e+00
2.173753837702566916e+00
2.173753837702566916e+00
2.173753837702566916e+00
2.215380108035523765e+00
2.215380108035523765e+00
2.215380108035523765e+00
2.215380108035523765e+00
2.260943998535111632e+00
2.260943998535111632e+00
2.260943998535111632e+00
2.324508438367870244e+00
2.324508438367870244e+00
2.324508438367870244e+00
2.345134067812128187e+00
2.345134067812128187e+00
2.345134067812128187e+00
2.345134067812128187e+00
2.386010315256203107e+00
2.386010315256203107e+00
2.386010315256203107e+00
2.431011688589129527e+00
2.431011688589129527e+00
2.431011688589129527e+00
2.384510269478438804e+00
2.384510269478438804e+00
2.384510269478438804e+00
2.384510269478438804e+00
2.386385326700643628e+00
2.386385326700643628e+00
2.386385326700643628e+00
2.405323404644917229e+00
2.405323404644917229e+00
2.405323404644917229e+00
2.289632374034852091e+00
2.289632374034852091e+00
2.289632374034852091e+00
2.289632374034852091e+00
2.248756126590777171e+00
2.248756126590777171e+00
2.248756126590777171e+00
2.198879604480116878e+00
2.198879604480116878e+00
2.198879604480116878e+00
2.159128391369365740e+00
2.159128391369365740e+00
2.159128391369365740e+00
2.159128391369365740e+00
2.192129398480178182e+00
2.192129398480178182e+00
2.192129398480178182e+00
2.213317545091097571e+00
2.213317545091097571e+00
2.213317545091097571e+00
2.258693929868464956e+00
2.258693929868464956e+00
2.258693929868464956e+00
2.258693929868464956e+00
2.326383495590075512e+00
2.326383495590075512e+00
2.326383495590075512e+00
2.343259010589922919e+00
2.343259010589922919e+00
2.343259010589922919e+00
2.401385784478286212e+00
2.401385784478286212e+00
2.401385784478286212e+00
2.401385784478286212e+00
2.420511368144779851e+00
2.420511368144779851e+00
2.420511368144779851e+00
2.372134891811884305e+00
2.372134891811884305e+00
2.372134891811884305e+00
2.406260933256020085e+00
2.406260933256020085e+00
2.406260933256020085e+00
2.406260933256020085e+00
2.371572374645222414e+00
2.371572374645222414e+00
2.371572374645222414e+00
2.269381756035035114e+00
2.269381756035035114e+00
2.269381756035035114e+00
2.269381756035035114e+00
2.244068483535264225e+00
2.244068483535264225e+00
2.244068483535264225e+00
2.184066652424695665e+00
2.184066652424695665e+00
2.184066652424695665e+00
2.161753471480452937e+00
2.161753471480452937e+00
2.161753471480452937e+00
2.161753471480452937e+00
2.203004730368968822e+00
2.203004730368968822e+00
2.203004730368968822e+00
2.222505325479903426e+00
2.222505325479903426e+00
2.222505325479903426e+00
2.279507065034943825e+00
2.279507065034943825e+00
2.279507065034943825e+00
2.332008667256691314e+00
2.332008667256691314e+00
2.332008667256691314e+00
2.332008667256691314e+00
2.354884365367595489e+00
2.354884365367595489e+00
2.354884365367595489e+00
2.418448805200354101e+00
2.418448805200354101e+00
2.418448805200354101e+00
2.408323496200445835e+00
2.408323496200445835e+00
2.408323496200445835e+00
2.408323496200445835e+00
2.366697225867488541e+00
2.366697225867488541e+00
2.366697225867488541e+00
2.424261482589190386e+00
2.424261482589190386e+00
2.424261482589190386e+00
2.342883999145481511e+00
2.342883999145481511e+00
2.342883999145481511e+00
2.342883999145481511e+00
2.258131412701803509e+00
2.258131412701803509e+00
2.258131412701803509e+00
2.223630359813226764e+00
2.223630359813226764e+00
2.223630359813226764e+00
2.158378368480483367e+00
2.158378368480483367e+00
2.158378368480483367e+00
2.158378368480483367e+00
2.164753563035981099e+00
2.164753563035981099e+00
2.164753563035981099e+00
2.223630359813226764e+00
2.223630359813226764e+00
2.223630359813226764e+00
2.261506515701773079e+00
2.261506515701773079e+00
2.261506515701773079e+00
2.261506515701773079e+00
2.314570635090182460e+00
2.314570635090182460e+00
2.314570635090182460e+00
2.382072695089572090e+00
2.382072695089572090e+00
2.382072695089572090e+00
2.383572740867336393e+00
2.383572740867336393e+00
2.383572740867336393e+00
2.383572740867336393e+00
2.425011505478072316e+00
2.425011505478072316e+00
2.425011505478072316e+00
2.387135349589526001e+00
2.387135349589526001e+00
2.387135349589526001e+00
2.387135349589526001e+00
2.377010040589617734e+00
2.377010040589617734e+00
2.377010040589617734e+00
2.407760979033784388e+00
2.407760979033784388e+00
2.407760979033784388e+00
2.291132419812616394e+00
2.291132419812616394e+00
2.291132419812616394e+00
2.291132419812616394e+00
2.242943449201941331e+00
2.242943449201941331e+00
2.242943449201941331e+00
2.210879970702230857e+00
2.210879970702230857e+00
2.210879970702230857e+00
2.159878414258247670e+00
2.159878414258247670e+00
2.159878414258247670e+00
2.159878414258247670e+00
2.173566331980346433e+00
2.173566331980346433e+00
2.173566331980346433e+00
2.197567064424573946e+00
2.197567064424573946e+00
2.197567064424573946e+00
2.256443861201819168e+00
2.256443861201819168e+00
2.256443861201819168e+00
2.256443861201819168e+00
2.334446241645558029e+00
2.334446241645558029e+00
2.334446241645558029e+00
2.359759514145329362e+00
2.359759514145329362e+00
2.359759514145329362e+00
2.404010864589373409e+00
2.404010864589373409e+00
2.404010864589373409e+00
2.404010864589373409e+00
2.431386700033570492e+00
2.431386700033570492e+00
2.431386700033570492e+00
2.383385235145115466e+00
2.383385235145115466e+00
2.383385235145115466e+00
2.407760979033784388e+00
2.407760979033784388e+00
2.407760979033784388e+00
2.407760979033784388e+00
2.391822992645039392e+00
2.391822992645039392e+00
2.391822992645039392e+00
2.275006927701650916e+00
2.275006927701650916e+00
2.275006927701650916e+00
2.246693563646351421e+00
2.246693563646351421e+00
2.246693563646351421e+00
2.246693563646351421e+00
2.185941709646900932e+00
2.185941709646900932e+00
2.185941709646900932e+00
2.152190679647205673e+00
2.152190679647205673e+00
2.152190679647205673e+00
2.191941892757957699e+00
2.191941892757957699e+00
2.191941892757957699e+00
2.191941892757957699e+00
2.206004821924497428e+00
2.206004821924497428e+00
2.206004821924497428e+00
2.264881618701742649e+00
2.264881618701742649e+00
2.264881618701742649e+00
2.264881618701742649e+00
2.326758507034516477e+00
2.326758507034516477e+00
2.326758507034516477e+00
2.349821710867641578e+00
2.349821710867641578e+00
2.349821710867641578e+00
2.410948576311533031e+00
2.410948576311533031e+00
2.410948576311533031e+00
2.410948576311533031e+00
2.412261116367076408e+00
2.412261116367076408e+00
2.412261116367076408e+00
2.371009857478560967e+00
2.371009857478560967e+00
2.371009857478560967e+00
2.422761436811426083e+00
2.422761436811426083e+00
2.422761436811426083e+00
2.422761436811426083e+00
2.357509445478682686e+00
2.357509445478682686e+00
2.357509445478682686e+00
2.269006744590594149e+00
2.269006744590594149e+00
2.269006744590594149e+00
2.245381023590808045e+00
2.245381023590808045e+00
2.245381023590808045e+00
2.245381023590808045e+00
2.180316537980285130e+00
2.180316537980285130e+00
2.180316537980285130e+00
2.172441297647023095e+00
2.172441297647023095e+00
2.172441297647023095e+00
2.212192510757774677e+00
2.212192510757774677e+00
2.212192510757774677e+00
2.212192510757774677e+00
2.233380657368694511e+00
2.233380657368694511e+00
2.233380657368694511e+00
2.301070223090304623e+00
2.301070223090304623e+00
2.301070223090304623e+00
2.301070223090304623e+00
2.347571642200994901e+00
2.347571642200994901e+00
2.347571642200994901e+00
2.360134525589770327e+00
2.360134525589770327e+00
2.360134525589770327e+00
2.417511276589251690e+00
2.417511276589251690e+00
2.417511276589251690e+00
2.417511276589251690e+00
2.393698049867244659e+00
2.393698049867244659e+00
2.393698049867244659e+00
2.379260109256263966e+00
2.379260109256263966e+00
2.379260109256263966e+00
2.419386333811456957e+00
2.419386333811456957e+00
2.419386333811456957e+00
2.419386333811456957e+00
2.306695394756919981e+00
2.306695394756919981e+00
2.306695394756919981e+00
2.247631092257453833e+00
2.247631092257453833e+00
2.247631092257453833e+00
2.212380016479995160e+00
2.212380016479995160e+00
2.212380016479995160e+00
2.212380016479995160e+00
2.155940794091616652e+00
2.155940794091616652e+00
2.155940794091616652e+00
2.169628711813714972e+00
2.169628711813714972e+00
2.169628711813714972e+00
2.203754753257850751e+00
2.203754753257850751e+00
2.203754753257850751e+00
2.203754753257850751e+00
2.249693655201880027e+00
2.249693655201880027e+00
2.249693655201880027e+00
2.320945829645680192e+00
2.320945829645680192e+00
2.320945829645680192e+00
2.344571550645466296e+00
2.344571550645466296e+00
2.344571550645466296e+00
2.344571550645466296e+00
2.375322489089632505e+00
2.375322489089632505e+00
2.375322489089632505e+00
2.415073702200384531e+00
2.415073702200384531e+00
2.415073702200384531e+00
2.379260109256263966e+00
2.379260109256263966e+00
2.379260109256263966e+00
2.379260109256263966e+00
2.396885647144993747e+00
2.396885647144993747e+00
2.396885647144993747e+00
2.402885830256050514e+00
2.402885830256050514e+00
2.402885830256050514e+00
2.402885830256050514e+00
2.291132419812616394e+00
2.291132419812616394e+00
2.291132419812616394e+00
2.254943815424054865e+00
2.254943815424054865e+00
2.254943815424054865e+00
2.202817224646748340e+00
2.202817224646748340e+00
2.202817224646748340e+00
2.202817224646748340e+00
2.163628528702658205e+00
2.163628528702658205e+00
2.163628528702658205e+00
2.200192144535660699e+00
2.200192144535660699e+00
2.200192144535660699e+00
2.222317819757682944e+00
2.222317819757682944e+00
2.222317819757682944e+00
2.222317819757682944e+00
2.274631916257209951e+00
2.274631916257209951e+00
2.274631916257209951e+00
2.332571184423352761e+00
2.332571184423352761e+00
2.332571184423352761e+00
2.348696676534318240e+00
2.348696676534318240e+00
2.348696676534318240e+00
2.397073152867214230e+00
2.397073152867214230e+00
2.397073152867214230e+00
2.397073152867214230e+00
2.411136082033753514e+00
2.411136082033753514e+00
2.411136082033753514e+00
2.366884731589709023e+00
2.366884731589709023e+00
2.366884731589709023e+00
2.411136082033753514e+00
2.411136082033753514e+00
2.411136082033753514e+00
2.411136082033753514e+00
2.363509628589739453e+00
2.363509628589739453e+00
2.363509628589739453e+00
2.256068849757378203e+00
2.256068849757378203e+00
2.256068849757378203e+00
2.237130771813104602e+00
2.237130771813104602e+00
2.237130771813104602e+00
2.237130771813104602e+00
2.185004181035798521e+00
2.185004181035798521e+00
2.185004181035798521e+00
2.176191412091433186e+00
2.176191412091433186e+00
2.176191412091433186e+00
2.209192419202246516e+00
2.209192419202246516e+00
2.209192419202246516e+00
2.209192419202246516e+00
2.237505783257545566e+00
2.237505783257545566e+00
2.237505783257545566e+00
2.316070680867946319e+00
2.316070680867946319e+00
2.316070680867946319e+00
2.363134617145298488e+00
2.363134617145298488e+00
2.363134617145298488e+00
2.363134617145298488e+00
2.372509903256325270e+00
2.372509903256325270e+00
2.372509903256325270e+00
2.431761711478011456e+00
2.431761711478011456e+00
2.431761711478011456e+00
2.425761528366954689e+00
2.425761528366954689e+00
2.425761528366954689e+00
2.425761528366954689e+00
2.394260567033906106e+00
2.394260567033906106e+00
2.394260567033906106e+00
2.441324503311258276e+00
2.441324503311258276e+00
2.441324503311258276e+00
2.341946470534379099e+00
2.341946470534379099e+00
2.341946470534379099e+00
2.341946470534379099e+00
2.260381481368449741e+00
2.260381481368449741e+00
2.260381481368449741e+00
2.229255531479842567e+00
2.229255531479842567e+00
2.229255531479842567e+00
2.229255531479842567e+00
2.170753746147038310e+00
2.170753746147038310e+00
2.170753746147038310e+00
2.175816400646992221e+00
2.175816400646992221e+00
2.175816400646992221e+00
2.200754661702322146e+00
2.200754661702322146e+00
2.200754661702322146e+00
2.200754661702322146e+00
2.230380565813165905e+00
2.230380565813165905e+00
2.230380565813165905e+00
2.298632648701437464e+00
2.298632648701437464e+00
2.298632648701437464e+00
2.333321207312235135e+00
2.333321207312235135e+00
2.333321207312235135e+00
2.333321207312235135e+00
2.359196996978667915e+00
2.359196996978667915e+00
2.359196996978667915e+00
2.412261116367076408e+00
2.412261116367076408e+00
2.412261116367076408e+00
2.371947386089663379e+00
2.371947386089663379e+00
2.371947386089663379e+00
2.371947386089663379e+00
2.373447431867427682e+00
2.373447431867427682e+00
2.373447431867427682e+00
2.399885738700521909e+00
2.399885738700521909e+00
2.399885738700521909e+00
2.288319833979308715e+00
2.288319833979308715e+00
2.288319833979308715e+00
2.245193517868587563e+00
2.245193517868587563e+00
2.245193517868587563e+00
2.245193517868587563e+00
2.208254890591143660e+00
2.208254890591143660e+00
2.208254890591143660e+00
2.173378826258125951e+00
2.173378826258125951e+00
2.173378826258125951e+00
2.201317178868984037e+00
2.201317178868984037e+00
2.201317178868984037e+00
2.201317178868984037e+00
2.211254982146671821e+00
2.211254982146671821e+00
2.211254982146671821e+00
2.261319009979552597e+00
2.261319009979552597e+00
2.261319009979552597e+00
2.261319009979552597e+00
2.325445966978973100e+00
2.325445966978973100e+00
2.325445966978973100e+00
2.345696584978789634e+00
2.345696584978789634e+00
2.345696584978789634e+00
2.390697958311716054e+00
2.390697958311716054e+00
2.390697958311716054e+00
2.411886104922635443e+00
2.411886104922635443e+00
2.411886104922635443e+00
2.411886104922635443e+00
2.370259834589678594e+00
2.370259834589678594e+00
2.370259834589678594e+00
2.402698324533829588e+00
2.402698324533829588e+00
2.402698324533829588e+00
2.402698324533829588e+00
2.380572649311807787e+00
2.380572649311807787e+00
2.380572649311807787e+00
2.270694296090578934e+00
2.270694296090578934e+00
2.270694296090578934e+00
2.240130863368633207e+00
2.240130863368633207e+00
2.240130863368633207e+00
2.240130863368633207e+00
2.176566423535874595e+00
2.176566423535874595e+00
2.176566423535874595e+00
2.156878322702719064e+00
2.156878322702719064e+00
2.156878322702719064e+00
2.195879512924588717e+00
2.195879512924588717e+00
2.195879512924588717e+00
2.195879512924588717e+00
2.215192602313302839e+00
2.215192602313302839e+00
2.215192602313302839e+00
2.272944364757225166e+00
2.272944364757225166e+00
2.272944364757225166e+00
2.330883632923367976e+00
2.330883632923367976e+00
2.330883632923367976e+00
2.330883632923367976e+00
2.347384136478774419e+00
2.347384136478774419e+00
2.347384136478774419e+00
2.410198553422650658e+00
2.410198553422650658e+00
2.410198553422650658e+00
2.418073793755913137e+00
2.418073793755913137e+00
2.418073793755913137e+00
2.418073793755913137e+00
2.383760246589556875e+00
2.383760246589556875e+00
2.383760246589556875e+00
2.433261757255775315e+00
2.433261757255775315e+00
2.433261757255775315e+00
2.356759422589800756e+00
2.356759422589800756e+00
2.356759422589800756e+00
2.356759422589800756e+00
2.267694204535050773e+00
2.267694204535050773e+00
2.267694204535050773e+00
2.236943266090884119e+00
2.236943266090884119e+00
2.236943266090884119e+00
2.190629352702413879e+00
2.190629352702413879e+00
2.190629352702413879e+00
2.190629352702413879e+00
2.164003540147099169e+00
2.164003540147099169e+00
2.164003540147099169e+00
2.201692190313425002e+00
2.201692190313425002e+00
2.201692190313425002e+00
2.230193060090945423e+00
2.230193060090945423e+00
2.230193060090945423e+00
2.230193060090945423e+00
2.302195257423627517e+00
2.302195257423627517e+00
2.302195257423627517e+00
2.342696493423261028e+00
2.342696493423261028e+00
2.342696493423261028e+00
2.342696493423261028e+00
2.366509720145268059e+00
2.366509720145268059e+00
2.366509720145268059e+00
2.418073793755913137e+00
2.418073793755913137e+00
2.418073793755913137e+00
2.384885280922879769e+00
2.384885280922879769e+00
2.384885280922879769e+00
2.384885280922879769e+00
2.373634937589648164e+00
2.373634937589648164e+00
2.373634937589648164e+00
2.423136448255867048e+00
2.423136448255867048e+00
2.423136448255867048e+00
2.309507980590228104e+00
2.309507980590228104e+00
2.309507980590228104e+00
2.309507980590228104e+00
2.255506332590716312e+00
2.255506332590716312e+00
2.255506332590716312e+00
2.216692648091067142e+00
2.216692648091067142e+00
2.216692648091067142e+00
2.157253334147160473e+00
2.157253334147160473e+00
2.157253334147160473e+00
2.157253334147160473e+00
2.180691549424726094e+00
2.180691549424726094e+00
2.180691549424726094e+00
2.209567430646687480e+00
2.209567430646687480e+00
2.209567430646687480e+00
2.255506332590716312e+00
2.255506332590716312e+00
2.255506332590716312e+00
2.255506332590716312e+00
2.318133243812372069e+00
2.318133243812372069e+00
2.318133243812372069e+00
2.338383861812189490e+00
2.338383861812189490e+00
2.338383861812189490e+00
2.375885006256294396e+00
2.375885006256294396e+00
2.375885006256294396e+00
2.417136265144810281e+00
2.417136265144810281e+00
2.417136265144810281e+00
2.417136265144810281e+00
2.374947477645191540e+00
2.374947477645191540e+00
2.374947477645191540e+00
2.400823267311624321e+00
2.400823267311624321e+00
2.400823267311624321e+00
2.394448072756126589e+00
2.394448072756126589e+00
2.394448072756126589e+00
2.394448072756126589e+00
2.278382030701620931e+00
2.278382030701620931e+00
2.278382030701620931e+00
2.255881344035157721e+00
2.255881344035157721e+00
2.255881344035157721e+00
2.199817133091219734e+00
2.199817133091219734e+00
2.199817133091219734e+00
2.199817133091219734e+00
2.159878414258247670e+00
2.159878414258247670e+00
2.159878414258247670e+00
2.189691824091311467e+00
2.189691824091311467e+00
2.189691824091311467e+00
2.189691824091311467e+00
2.203754753257850751e+00
2.203754753257850751e+00
2.203754753257850751e+00
2.267131687368389326e+00
2.267131687368389326e+00
2.267131687368389326e+00
2.345134067812128187e+00
2.345134067812128187e+00
2.345134067812128187e+00
2.375509994811853431e+00
2.375509994811853431e+00
2.375509994811853431e+00
2.375509994811853431e+00
2.429324137089144742e+00
2.429324137089144742e+00
2.429324137089144742e+00
2.426511551255836618e+00
2.426511551255836618e+00
2.426511551255836618e+00
2.426511551255836618e+00
2.371572374645222414e+00
2.371572374645222414e+00
2.371572374645222414e+00
2.413198644978179264e+00
2.413198644978179264e+00
2.413198644978179264e+00
2.352446790978728330e+00
2.352446790978728330e+00
2.352446790978728330e+00
2.352446790978728330e+00
2.254756309701834383e+00
2.254756309701834383e+00
2.254756309701834383e+00
2.232818140202032620e+00
2.232818140202032620e+00
2.232818140202032620e+00
2.184629169591357556e+00
2.184629169591357556e+00
2.184629169591357556e+00
2.184629169591357556e+00
2.173941343424787398e+00
2.173941343424787398e+00
2.173941343424787398e+00
2.213880062257759462e+00
2.213880062257759462e+00
2.213880062257759462e+00
2.236380748924222672e+00
2.236380748924222672e+00
2.236380748924222672e+00
2.236380748924222672e+00
2.293007477034821662e+00
2.293007477034821662e+00
2.293007477034821662e+00
2.345321573534348669e+00
2.345321573534348669e+00
2.345321573534348669e+00
2.372884914700766235e+00
2.372884914700766235e+00
2.372884914700766235e+00
2.372884914700766235e+00
2.431949217200232383e+00
2.431949217200232383e+00
2.431949217200232383e+00
2.403823358867152926e+00
2.403823358867152926e+00
2.403823358867152926e+00
2.376260017700735361e+00
2.376260017700735361e+00
2.376260017700735361e+00
2.376260017700735361e+00
2.420136356700338887e+00
2.420136356700338887e+00
2.420136356700338887e+00
2.324883449812311209e+00
2.324883449812311209e+00
2.324883449812311209e+00
2.251943723868526259e+00
2.251943723868526259e+00
2.251943723868526259e+00
2.251943723868526259e+00
2.216880153813287624e+00
2.216880153813287624e+00
2.216880153813287624e+00
2.162315988647114828e+00
2.162315988647114828e+00
2.162315988647114828e+00
2.169628711813714972e+00
2.169628711813714972e+00
2.169628711813714972e+00
2.169628711813714972e+00
2.201317178868984037e+00
2.201317178868984037e+00
2.201317178868984037e+00
2.235443220313119816e+00
2.235443220313119816e+00
2.235443220313119816e+00
2.302382763145847999e+00
2.302382763145847999e+00
2.302382763145847999e+00
2.302382763145847999e+00
2.335196264534440402e+00
2.335196264534440402e+00
2.335196264534440402e+00
2.364634662923062791e+00
2.364634662923062791e+00
2.364634662923062791e+00
2.421073885311441742e+00
2.421073885311441742e+00
2.421073885311441742e+00
2.421073885311441742e+00
2.385072786645100695e+00
2.385072786645100695e+00
2.385072786645100695e+00
2.396698141422773265e+00
2.396698141422773265e+00
2.396698141422773265e+00
2.415448713644825496e+00
2.415448713644825496e+00
2.415448713644825496e+00
2.415448713644825496e+00
2.308007934812463802e+00
2.308007934812463802e+00
2.308007934812463802e+00
2.267694204535050773e+00
2.267694204535050773e+00
2.267694204535050773e+00
2.211067476424451339e+00
2.211067476424451339e+00
2.211067476424451339e+00
2.211067476424451339e+00
2.170003723258155937e+00
2.170003723258155937e+00
2.170003723258155937e+00
2.193629444257942485e+00
2.193629444257942485e+00
2.193629444257942485e+00
2.211067476424451339e+00
2.211067476424451339e+00
2.211067476424451339e+00
2.211067476424451339e+00
2.262069032868434526e+00
2.262069032868434526e+00
2.262069032868434526e+00
2.325633472701193583e+00
2.325633472701193583e+00
2.325633472701193583e+00
2.348696676534318240e+00
2.348696676534318240e+00
2.348696676534318240e+00
2.348696676534318240e+00
2.397635670033875677e+00
2.397635670033875677e+00
2.397635670033875677e+00
2.412636127811517817e+00
2.412636127811517817e+00
2.412636127811517817e+00
2.412636127811517817e+00
2.361447065645314147e+00
2.361447065645314147e+00
2.361447065645314147e+00
2.403823358867152926e+00
2.403823358867152926e+00
2.403823358867152926e+00
2.373259926145207199e+00
2.373259926145207199e+00
2.373259926145207199e+00
2.373259926145207199e+00
2.260381481368449741e+00
2.260381481368449741e+00
2.260381481368449741e+00
2.228693014313181120e+00
2.228693014313181120e+00
2.228693014313181120e+00
2.175816400646992221e+00
2.175816400646992221e+00
2.175816400646992221e+00
2.175816400646992221e+00
2.163816034424878687e+00
2.163816034424878687e+00
2.163816034424878687e+00
2.206942350535599839e+00
2.206942350535599839e+00
2.206942350535599839e+00
2.237880794701986531e+00
2.237880794701986531e+00
2.237880794701986531e+00
2.237880794701986531e+00
2.298820154423657947e+00
2.298820154423657947e+00
2.298820154423657947e+00
2.343259010589922919e+00
2.343259010589922919e+00
2.343259010589922919e+00
2.357884456923124095e+00
2.357884456923124095e+00
2.357884456923124095e+00
2.357884456923124095e+00
2.422948942533646566e+00
2.422948942533646566e+00
2.422948942533646566e+00
2.410761070589312105e+00
2.410761070589312105e+00
2.410761070589312105e+00
2.367822260200811879e+00
2.367822260200811879e+00
2.367822260200811879e+00
2.367822260200811879e+00
2.417698782311472172e+00
2.417698782311472172e+00
2.417698782311472172e+00
2.341196447645496725e+00
2.341196447645496725e+00
2.341196447645496725e+00
2.261881527146214044e+00
2.261881527146214044e+00
2.261881527146214044e+00
2.261881527146214044e+00
2.228318002868740155e+00
2.228318002868740155e+00
2.228318002868740155e+00
2.176378917813653668e+00
2.176378917813653668e+00
2.176378917813653668e+00
2.175816400646992221e+00
2.175816400646992221e+00
2.175816400646992221e+00
2.175816400646992221e+00
2.206004821924497428e+00
2.206004821924497428e+00
2.206004821924497428e+00
2.233568163090914993e+00
2.233568163090914993e+00
2.233568163090914993e+00
2.296570085757011714e+00
2.296570085757011714e+00
2.296570085757011714e+00
2.296570085757011714e+00
2.335571275978881367e+00
2.335571275978881367e+00
2.335571275978881367e+00
2.372884914700766235e+00
2.372884914700766235e+00
2.372884914700766235e+00
2.430824182866909045e+00
2.430824182866909045e+00
2.430824182866909045e+00
2.430824182866909045e+00
2.398760704367198571e+00
2.398760704367198571e+00
2.398760704367198571e+00
2.379635120700704931e+00
2.379635120700704931e+00
2.379635120700704931e+00
2.409073519089327764e+00
2.409073519089327764e+00
2.409073519089327764e+00
2.409073519089327764e+00
2.295070039979247412e+00
2.295070039979247412e+00
2.295070039979247412e+00
2.246506057924130939e+00
2.246506057924130939e+00
2.246506057924130939e+00
2.202817224646748340e+00
2.202817224646748340e+00
2.202817224646748340e+00
2.202817224646748340e+00
2.160440931424909561e+00
2.160440931424909561e+00
2.160440931424909561e+00
2.196817041535691573e+00
2.196817041535691573e+00
2.196817041535691573e+00
2.233193151646474028e+00
2.233193151646474028e+00
2.233193151646474028e+00
2.233193151646474028e+00
2.271256813257240381e+00
2.271256813257240381e+00
2.271256813257240381e+00
2.333508713034455617e+00
2.333508713034455617e+00
2.333508713034455617e+00
2.351884273812066883e+00
2.351884273812066883e+00
2.351884273812066883e+00
2.351884273812066883e+00
2.392385509811700839e+00
2.392385509811700839e+00
2.392385509811700839e+00
2.427261574144718992e+00
2.427261574144718992e+00
2.427261574144718992e+00
2.383197729422894984e+00
2.383197729422894984e+00
2.383197729422894984e+00
2.383197729422894984e+00
2.408323496200445835e+00
2.408323496200445835e+00
2.408323496200445835e+00
2.389947935422834124e+00
2.389947935422834124e+00
2.389947935422834124e+00
2.281382122257148648e+00
2.281382122257148648e+00
2.281382122257148648e+00
2.281382122257148648e+00
2.247443586535233351e+00
2.247443586535233351e+00
2.247443586535233351e+00
2.184254158146916147e+00
2.184254158146916147e+00
2.184254158146916147e+00
2.184254158146916147e+00
2.148253059480575100e+00
2.148253059480575100e+00
2.148253059480575100e+00
2.184066652424695665e+00
2.184066652424695665e+00
2.184066652424695665e+00
2.201317178868984037e+00
2.201317178868984037e+00
2.201317178868984037e+00
2.201317178868984037e+00
2.268631733146153184e+00
2.268631733146153184e+00
2.268631733146153184e+00
2.333696218756676100e+00
2.333696218756676100e+00
2.333696218756676100e+00
2.349071687978759204e+00
2.349071687978759204e+00
2.349071687978759204e+00
2.349071687978759204e+00
2.409823541978209693e+00
2.409823541978209693e+00
2.409823541978209693e+00
2.419386333811456957e+00
2.419386333811456957e+00
2.419386333811456957e+00
2.380572649311807787e+00
2.380572649311807787e+00
2.380572649311807787e+00
2.380572649311807787e+00
2.428386608478041886e+00
2.428386608478041886e+00
2.428386608478041886e+00
2.361072054200873183e+00
2.361072054200873183e+00
2.361072054200873183e+00
2.263756584368419311e+00
2.263756584368419311e+00
2.263756584368419311e+00
2.263756584368419311e+00
2.239380840479750834e+00
2.239380840479750834e+00
2.239380840479750834e+00
2.169066194647053525e+00
2.169066194647053525e+00
2.169066194647053525e+00
2.162315988647114828e+00
2.162315988647114828e+00
2.162315988647114828e+00
2.162315988647114828e+00
2.208442396313364142e+00
2.208442396313364142e+00
2.208442396313364142e+00
2.233380657368694511e+00
2.233380657368694511e+00
2.233380657368694511e+00
2.303320291756950855e+00
2.303320291756950855e+00
2.303320291756950855e+00
2.303320291756950855e+00
2.339883907589953349e+00
2.339883907589953349e+00
2.339883907589953349e+00
2.360134525589770327e+00
2.360134525589770327e+00
2.360134525589770327e+00
2.422948942533646566e+00
2.422948942533646566e+00
2.422948942533646566e+00
2.422948942533646566e+00
2.401010773033844803e+00
2.401010773033844803e+00
2.401010773033844803e+00
2.374197454756310055e+00
2.374197454756310055e+00
2.374197454756310055e+00
2.418448805200354101e+00
2.418448805200354101e+00
2.418448805200354101e+00
2.418448805200354101e+00
2.308382946256904766e+00
2.308382946256904766e+00
2.308382946256904766e+00
2.244068483535264225e+00
2.244068483535264225e+00
2.244068483535264225e+00
2.215942625202185212e+00
2.215942625202185212e+00
2.215942625202185212e+00
2.215942625202185212e+00
2.159878414258247670e+00
2.159878414258247670e+00
2.159878414258247670e+00
2.174128849147007880e+00
2.174128849147007880e+00
2.174128849147007880e+00
2.200192144535660699e+00
2.200192144535660699e+00
2.200192144535660699e+00
2.200192144535660699e+00
2.236943266090884119e+00
2.236943266090884119e+00
2.236943266090884119e+00
2.318133243812372069e+00
2.318133243812372069e+00
2.318133243812372069e+00
2.361072054200873183e+00
2.361072054200873183e+00
2.361072054200873183e+00
2.361072054200873183e+00
2.395385601367229444e+00
2.395385601367229444e+00
2.395385601367229444e+00
2.428949125644703777e+00
2.428949125644703777e+00
2.428949125644703777e+00
2.390510452589495571e+00
2.390510452589495571e+00
2.390510452589495571e+00
2.390510452589495571e+00
2.406260933256020085e+00
2.406260933256020085e+00
2.406260933256020085e+00
2.412261116367076408e+00
2.412261116367076408e+00
2.412261116367076408e+00
2.412261116367076408e+00
2.293194982757042144e+00
2.293194982757042144e+00
2.293194982757042144e+00
2.252318735312967224e+00
2.252318735312967224e+00
2.252318735312967224e+00
2.201317178868984037e+00
2.201317178868984037e+00
2.201317178868984037e+00
2.158753379924924776e+00
2.158753379924924776e+00
2.158753379924924776e+00
2.158753379924924776e+00
2.191941892757957699e+00
2.191941892757957699e+00
2.191941892757957699e+00
2.215192602313302839e+00
2.215192602313302839e+00
2.215192602313302839e+00
2.267506698812830290e+00
2.267506698812830290e+00
2.267506698812830290e+00
2.267506698812830290e+00
2.328446058534500818e+00
2.328446058534500818e+00
2.328446058534500818e+00
2.341571459089938134e+00
2.341571459089938134e+00
2.341571459089938134e+00
2.341571459089938134e+00
2.393323038422803695e+00
2.393323038422803695e+00
2.393323038422803695e+00
2.409448530533769173e+00
2.409448530533769173e+00
2.409448530533769173e+00
2.368009765923032361e+00
2.368009765923032361e+00
2.368009765923032361e+00
2.368009765923032361e+00
2.408886013367107282e+00
2.408886013367107282e+00
2.408886013367107282e+00
2.359009491256446989e+00
2.359009491256446989e+00
2.359009491256446989e+00
2.258881435590685438e+00
2.258881435590685438e+00
2.258881435590685438e+00
2.258881435590685438e+00
2.240505874813074172e+00
2.240505874813074172e+00
2.240505874813074172e+00
2.181629078035828950e+00
2.181629078035828950e+00
2.181629078035828950e+00
2.167566148869289222e+00
2.167566148869289222e+00
2.167566148869289222e+00
2.167566148869289222e+00
2.207129856257820322e+00
2.207129856257820322e+00
2.207129856257820322e+00
2.226630451368755370e+00
2.226630451368755370e+00
2.226630451368755370e+00
2.290194891201513983e+00
2.290194891201513983e+00
2.290194891201513983e+00
2.290194891201513983e+00
2.341383953367717208e+00
2.341383953367717208e+00
2.341383953367717208e+00
2.358071962645344577e+00
2.358071962645344577e+00
2.358071962645344577e+00
2.417323770867030763e+00
2.417323770867030763e+00
2.417323770867030763e+00
2.407573473311563461e+00
2.407573473311563461e+00
2.407573473311563461e+00
2.407573473311563461e+00
2.371759880367442896e+00
2.371759880367442896e+00
2.371759880367442896e+00
2.421261391033662225e+00
2.421261391033662225e+00
2.421261391033662225e+00
2.421261391033662225e+00
2.327321024201178368e+00
2.327321024201178368e+00
2.327321024201178368e+00
2.255131321146275347e+00
2.255131321146275347e+00
2.255131321146275347e+00
2.241068391979735619e+00
2.241068391979735619e+00
2.241068391979735619e+00
2.241068391979735619e+00
2.184066652424695665e+00
2.184066652424695665e+00
2.184066652424695665e+00
2.178441480758079862e+00
2.178441480758079862e+00
2.178441480758079862e+00
2.214067567979979945e+00
2.214067567979979945e+00
2.214067567979979945e+00
2.214067567979979945e+00
2.243693472090823260e+00
2.243693472090823260e+00
2.243693472090823260e+00
2.312133060701315301e+00
2.312133060701315301e+00
2.312133060701315301e+00
2.347384136478774419e+00
2.347384136478774419e+00
2.347384136478774419e+00
2.347384136478774419e+00
2.373634937589648164e+00
2.373634937589648164e+00
2.373634937589648164e+00
2.427636585589159957e+00
2.427636585589159957e+00
2.427636585589159957e+00
2.392010498367259874e+00
2.392010498367259874e+00
2.392010498367259874e+00
2.392010498367259874e+00
2.380385143589587305e+00
2.380385143589587305e+00
2.380385143589587305e+00
2.404948393200476264e+00
2.404948393200476264e+00
2.404948393200476264e+00
2.292257454145939732e+00
2.292257454145939732e+00
2.292257454145939732e+00
2.292257454145939732e+00
2.241818414868617992e+00
2.241818414868617992e+00
2.241818414868617992e+00
2.203004730368968822e+00
2.203004730368968822e+00
2.203004730368968822e+00
2.151065645313883223e+00
2.151065645313883223e+00
2.151065645313883223e+00
2.151065645313883223e+00
2.176378917813653668e+00
2.176378917813653668e+00
2.176378917813653668e+00
2.204317270424512643e+00
2.204317270424512643e+00
2.204317270424512643e+00
2.261694021423993561e+00
2.261694021423993561e+00
2.261694021423993561e+00
2.261694021423993561e+00
2.332571184423352761e+00
2.332571184423352761e+00
2.332571184423352761e+00
2.356009399700918827e+00
2.356009399700918827e+00
2.356009399700918827e+00
2.356009399700918827e+00
2.399510727256080500e+00
2.399510727256080500e+00
2.399510727256080500e+00
2.421636402478102745e+00
2.421636402478102745e+00
2.421636402478102745e+00
2.368947294534135217e+00
2.368947294534135217e+00
2.368947294534135217e+00
2.405135898922696747e+00
2.405135898922696747e+00
2.405135898922696747e+00
2.405135898922696747e+00
2.394260567033906106e+00
2.394260567033906106e+00
2.394260567033906106e+00
2.286444776757103448e+00
2.286444776757103448e+00
2.286444776757103448e+00
2.251568712424085295e+00
2.251568712424085295e+00
2.251568712424085295e+00
2.251568712424085295e+00
2.190629352702413879e+00
2.190629352702413879e+00
2.190629352702413879e+00
2.162878505813776275e+00
2.162878505813776275e+00
2.162878505813776275e+00
2.198879604480116878e+00
2.198879604480116878e+00
2.198879604480116878e+00
2.198879604480116878e+00
2.219880245368816230e+00
2.219880245368816230e+00
2.219880245368816230e+00
2.280257087923826198e+00
2.280257087923826198e+00
2.280257087923826198e+00
2.331821161534470832e+00
2.331821161534470832e+00
2.331821161534470832e+00
2.331821161534470832e+00
2.351696768089846401e+00
2.351696768089846401e+00
2.351696768089846401e+00
2.407760979033784388e+00
2.407760979033784388e+00
2.407760979033784388e+00
2.402885830256050514e+00
2.402885830256050514e+00
2.402885830256050514e+00
2.402885830256050514e+00
2.357134434034241721e+00
2.357134434034241721e+00
2.357134434034241721e+00
2.408511001922666317e+00
2.408511001922666317e+00
2.408511001922666317e+00
2.344384044923245813e+00
2.344384044923245813e+00
2.344384044923245813e+00
2.344384044923245813e+00
2.256256355479598685e+00
2.256256355479598685e+00
2.256256355479598685e+00
2.220255256813257638e+00
2.220255256813257638e+00
2.220255256813257638e+00
2.174316354869228363e+00
2.174316354869228363e+00
2.174316354869228363e+00
2.174316354869228363e+00
2.176566423535874595e+00
2.176566423535874595e+00
2.176566423535874595e+00
2.219880245368816230e+00
2.219880245368816230e+00
2.219880245368816230e+00
2.254381298257393418e+00
2.254381298257393418e+00
2.254381298257393418e+00
2.254381298257393418e+00
2.317570726645710621e+00
2.317570726645710621e+00
2.317570726645710621e+00
2.351509262367625919e+00
2.351509262367625919e+00
2.351509262367625919e+00
2.368197271645252844e+00
2.368197271645252844e+00
2.368197271645252844e+00
2.368197271645252844e+00
2.425574022644734207e+00
2.425574022644734207e+00
2.425574022644734207e+00
2.390885464033936536e+00
2.390885464033936536e+00
2.390885464033936536e+00
2.373259926145207199e+00
2.373259926145207199e+00
2.373259926145207199e+00
2.373259926145207199e+00
2.421823908200323228e+00
2.421823908200323228e+00
2.421823908200323228e+00
2.316633198034607766e+00
2.316633198034607766e+00
2.316633198034607766e+00
2.256068849757378203e+00
2.256068849757378203e+00
2.256068849757378203e+00
2.256068849757378203e+00
2.216317636646626177e+00
2.216317636646626177e+00
2.216317636646626177e+00
2.161003448591571008e+00
2.161003448591571008e+00
2.161003448591571008e+00
2.171691274758141166e+00
2.171691274758141166e+00
2.171691274758141166e+00
2.171691274758141166e+00
2.200567155980101663e+00
2.200567155980101663e+00
2.200567155980101663e+00
2.243130954924161813e+00
2.243130954924161813e+00
2.243130954924161813e+00
2.243130954924161813e+00
2.305382854701376161e+00
2.305382854701376161e+00
2.305382854701376161e+00
2.339508896145511940e+00
2.339508896145511940e+00
2.339508896145511940e+00
2.384885280922879769e+00
2.384885280922879769e+00
2.384885280922879769e+00
2.384885280922879769e+00
2.418823816644795066e+00
2.418823816644795066e+00
2.418823816644795066e+00
2.390697958311716054e+00
2.390697958311716054e+00
2.390697958311716054e+00
2.414511185033723084e+00
2.414511185033723084e+00
2.414511185033723084e+00
2.414511185033723084e+00
2.416198736533707869e+00
2.416198736533707869e+00
2.416198736533707869e+00
2.296757591479232197e+00
2.296757591479232197e+00
2.296757591479232197e+00
2.248006103701895242e+00
2.248006103701895242e+00
2.248006103701895242e+00
2.248006103701895242e+00
2.198504593035676358e+00
2.198504593035676358e+00
2.170378734702597345e+00
2.170378734702597345e+00
2.202067201757865966e+00
2.202067201757865966e+00
2.219317728202154782e+00
2.219317728202154782e+00
2.275756950590533290e+00
2.275756950590533290e+00
2.334633747367778511e+00
2.334633747367778511e+00
2.347759147923215384e+00
2.347759147923215384e+00
2.403823358867152926e+00
2.403823358867152926e+00
2.410198553422650658e+00
2.410198553422650658e+00
2.367447248756370914e+00
2.367447248756370914e+00
2.367447248756370914e+00
2.411323587755973996e+00
2.411323587755973996e+00
2.355446882534256936e+00
2.355446882534256936e+00
2.255693838312936794e+00
2.255693838312936794e+00
2.235818231757560781e+00
2.235818231757560781e+00
2.174878872035889810e+00
2.174878872035889810e+00
2.172816309091464060e+00
2.172816309091464060e+00
2.207504867702261730e+00
2.207504867702261730e+00
2.232068117313150690e+00
2.232068117313150690e+00
2.232068117313150690e+00
2.300320200201422249e+00
2.300320200201422249e+00
2.343259010589922919e+00
2.343259010589922919e+00
2.361447065645314147e+00
2.361447065645314147e+00
2.425199011200292798e+00
2.425199011200292798e+00
2.405135898922696747e+00
2.405135898922696747e+00
2.378135074922940628e+00
2.378135074922940628e+00
2.424448988311410869e+00
2.424448988311410869e+00
2.320758323923459709e+00
2.320758323923459709e+00
2.320758323923459709e+00
2.246506057924130939e+00
2.246506057924130939e+00
2.213130039368877089e+00
2.213130039368877089e+00
2.159128391369365740e+00
2.159128391369365740e+00
2.169253700369274007e+00
2.169253700369274007e+00
2.201317178868984037e+00
2.201317178868984037e+00
2.232443128757591655e+00
2.232443128757591655e+00
2.309132969145787140e+00
2.309132969145787140e+00
2.338571367534409973e+00
2.338571367534409973e+00
2.338571367534409973e+00
2.374009949034089573e+00
2.374009949034089573e+00
2.432699240089114312e+00
2.432699240089114312e+00
2.396510635700552783e+00
2.396510635700552783e+00
2.399135715811639535e+00
2.399135715811639535e+00
2.412073610644855925e+00
2.412073610644855925e+00
2.285882259590441556e+00
2.285882259590441556e+00
2.241068391979735619e+00
2.241068391979735619e+00
2.201879696035645484e+00
2.201879696035645484e+00
2.201879696035645484e+00
2.172441297647023095e+00
2.172441297647023095e+00
2.207879879146702695e+00
2.207879879146702695e+00
2.228130497146519229e+00
2.228130497146519229e+00
2.266194158757286470e+00
2.266194158757286470e+00
2.324883449812311209e+00
2.324883449812311209e+00
2.338571367534409973e+00
2.338571367534409973e+00
2.383010223700674501e+00
2.383010223700674501e+00
2.400073244422742391e+00
2.400073244422742391e+00
2.349446699423200169e+00
2.349446699423200169e+00
2.349446699423200169e+00
2.389572923978392716e+00
2.389572923978392716e+00
2.359947019867549844e+00
2.359947019867549844e+00
2.256818872646260132e+00
2.256818872646260132e+00
2.229818048646504014e+00
2.229818048646504014e+00
2.169066194647053525e+00
2.169066194647053525e+00
2.160815942869350526e+00
2.160815942869350526e+00
2.204879787591174090e+00
2.204879787591174090e+00
2.210317453535568966e+00
2.210317453535568966e+00
2.210317453535568966e+00
2.272569353312784202e+00
2.272569353312784202e+00
2.339133884701071420e+00
2.339133884701071420e+00
2.374384960478530537e+00
2.374384960478530537e+00
2.435136814477980582e+00
2.435136814477980582e+00
2.421636402478102745e+00
2.421636402478102745e+00
2.377947569200720146e+00
2.377947569200720146e+00
2.440761986144596829e+00
2.440761986144596829e+00
2.368384777367473326e+00
2.368384777367473326e+00
2.368384777367473326e+00
2.293757499923703591e+00
2.293757499923703591e+00
2.257381389812921579e+00
2.257381389812921579e+00
2.172816309091464060e+00
2.172816309091464060e+00
2.154065736869411385e+00
2.154065736869411385e+00
2.173941343424787398e+00
2.173941343424787398e+00
2.203004730368968822e+00
2.203004730368968822e+00
2.278194524979400004e+00
2.278194524979400004e+00
2.317945738090151586e+00
2.317945738090151586e+00
2.317945738090151586e+00
2.343259010589922919e+00
2.343259010589922919e+00
2.405323404644917229e+00
2.405323404644917229e+00
2.386947843867305519e+00
2.386947843867305519e+00
2.390135441145054607e+00
2.390135441145054607e+00
2.448637226477858864e+00
2.448637226477858864e+00
2.336133793145542814e+00
2.336133793145542814e+00
2.265631641590625023e+00
2.265631641590625023e+00
2.200754661702322146e+00
2.200754661702322146e+00
2.200754661702322146e+00
2.133440107425153442e+00
2.133440107425153442e+00
2.146753013702810797e+00
2.146753013702810797e+00
2.173753837702566916e+00
2.173753837702566916e+00
2.233568163090914993e+00
2.233568163090914993e+00
2.314758140812402942e+00
2.314758140812402942e+00
2.349821710867641578e+00
2.349821710867641578e+00
2.380572649311807787e+00
2.380572649311807787e+00
2.406635944700461049e+00
2.406635944700461049e+00
2.357696951200903612e+00
2.357696951200903612e+00
2.379072603534043484e+00
2.379072603534043484e+00
2.379072603534043484e+00
2.385635303811762142e+00
2.385635303811762142e+00
2.286632282479323930e+00
2.286632282479323930e+00
2.243693472090823260e+00
2.243693472090823260e+00
2.167003631702627775e+00
2.167003631702627775e+00
2.131002533036286284e+00
2.131002533036286284e+00
2.167941160313730187e+00
2.167941160313730187e+00
2.189691824091311467e+00
2.189691824091311467e+00
2.255318826868495830e+00
2.255318826868495830e+00
2.255318826868495830e+00
2.326571001312295994e+00
2.326571001312295994e+00
2.353759331034272151e+00
2.353759331034272151e+00
2.417136265144810281e+00
2.417136265144810281e+00
2.422198919644764192e+00
2.422198919644764192e+00
2.382635212256233537e+00
2.382635212256233537e+00
2.418261299478133619e+00
2.418261299478133619e+00
2.330133610034486047e+00
2.330133610034486047e+00
2.231505600146489243e+00
2.231505600146489243e+00
2.189504318369090985e+00
2.189504318369090985e+00
2.189504318369090985e+00
2.110751915036469750e+00
2.110751915036469750e+00
2.105126743369853504e+00
2.105126743369853504e+00
2.159128391369365740e+00
2.159128391369365740e+00
2.188379284035767647e+00
2.188379284035767647e+00
2.289444868312631609e+00
2.289444868312631609e+00
2.364259651478621826e+00
2.364259651478621826e+00
2.397448164311655194e+00
2.397448164311655194e+00
2.445262123477889293e+00
2.445262123477889293e+00
2.445262123477889293e+00
2.400823267311624321e+00
2.400823267311624321e+00
2.347384136478774419e+00
2.347384136478774419e+00
2.382447706534013054e+00
2.382447706534013054e+00
2.294320017090365038e+00
2.294320017090365038e+00
2.252693746757408633e+00
2.252693746757408633e+00
2.241443403424177028e+00
2.241443403424177028e+00
2.202442213202307375e+00
2.202442213202307375e+00
2.222130314035462462e+00
2.222130314035462462e+00
2.222130314035462462e+00
2.249881160924100509e+00
2.249881160924100509e+00
2.271256813257240381e+00
2.271256813257240381e+00
2.323195898312326424e+00
2.323195898312326424e+00
2.332383678701132279e+00
2.332383678701132279e+00
2.335946287423322332e+00
2.335946287423322332e+00
2.367822260200811879e+00
2.367822260200811879e+00
2.349446699423200169e+00
2.349446699423200169e+00
2.373259926145207199e+00
2.373259926145207199e+00
2.373259926145207199e+00
2.384322763756218322e+00
2.384322763756218322e+00
2.278007019257179522e+00
2.278007019257179522e+00
2.234693197424237443e+00
2.234693197424237443e+00
2.182191595202490397e+00
2.182191595202490397e+00
2.164753563035981099e+00
2.164753563035981099e+00
2.203754753257850751e+00
2.203754753257850751e+00
2.218380199591051927e+00
2.218380199591051927e+00
2.242568437757499922e+00
2.242568437757499922e+00
2.242568437757499922e+00
2.310633014923550999e+00
2.310633014923550999e+00
2.385072786645100695e+00
2.385072786645100695e+00
2.505451460310678335e+00
2.505451460310678335e+00
2.557203039643543896e+00
2.557203039643543896e+00
2.457825006866664719e+00
2.457825006866664719e+00
2.389197912533951751e+00
2.389197912533951751e+00
2.267319193090609808e+00
2.267319193090609808e+00
2.149565599536118921e+00
2.149565599536118921e+00
2.149565599536118921e+00
2.152565691091647082e+00
2.152565691091647082e+00
2.111126926480910715e+00
2.111126926480910715e+00
2.154440748313852350e+00
2.154440748313852350e+00
2.271256813257240381e+00
2.271256813257240381e+00
2.323195898312326424e+00
2.323195898312326424e+00
2.413573656422620228e+00
2.413573656422620228e+00
2.418073793755913137e+00
2.418073793755913137e+00
2.330883632923367976e+00
2.330883632923367976e+00
2.330883632923367976e+00
2.308007934812463802e+00
2.308007934812463802e+00
2.268631733146153184e+00
2.268631733146153184e+00
2.254381298257393418e+00
2.254381298257393418e+00
2.341008941923276243e+00
2.341008941923276243e+00
2.303695303201391820e+00
2.303695303201391820e+00
2.270319284646137969e+00
2.270319284646137969e+00
2.235068208868678852e+00
2.235068208868678852e+00
2.175253883480330774e+00
2.175253883480330774e+00
2.175253883480330774e+00
2.167378643147068740e+00
2.167378643147068740e+00
2.166628620258186366e+00
2.166628620258186366e+00
2.182191595202490397e+00
2.182191595202490397e+00
2.230568071535386387e+00
2.230568071535386387e+00
2.289444868312631609e+00
2.289444868312631609e+00
2.325445966978973100e+00
2.325445966978973100e+00
2.363134617145298488e+00
2.363134617145298488e+00
2.329758598590044638e+00
2.329758598590044638e+00
2.371759880367442896e+00
2.371759880367442896e+00
2.371759880367442896e+00
2.447512192144535526e+00
2.447512192144535526e+00
2.381135166478469234e+00
2.381135166478469234e+00
2.368384777367473326e+00
2.368384777367473326e+00
2.379072603534043484e+00
2.379072603534043484e+00
2.352071779534287366e+00
2.352071779534287366e+00
2.342883999145481511e+00
2.342883999145481511e+00
2.285694753868221074e+00
2.285694753868221074e+00
2.272381847590563719e+00
2.272381847590563719e+00
2.272381847590563719e+00
2.280444593646046680e+00
2.280444593646046680e+00
2.285882259590441556e+00
2.285882259590441556e+00
2.335946287423322332e+00
2.335946287423322332e+00
2.381510177922910199e+00
2.381510177922910199e+00
2.353946836756492633e+00
2.353946836756492633e+00
2.383760246589556875e+00
2.383760246589556875e+00
2.372322397534104788e+00
2.372322397534104788e+00
2.261319009979552597e+00
2.261319009979552597e+00
2.261319009979552597e+00
2.219505233924375265e+00
2.219505233924375265e+00
2.165128574480422063e+00
2.165128574480422063e+00
2.176191412091433186e+00
2.176191412091433186e+00
2.256443861201819168e+00
2.256443861201819168e+00
2.257006378368480615e+00
2.257006378368480615e+00
2.245193517868587563e+00
2.245193517868587563e+00
2.275756950590533290e+00
2.275756950590533290e+00
2.322820886867885459e+00
2.322820886867885459e+00
2.322820886867885459e+00
2.398948210089419053e+00
2.398948210089419053e+00
2.399698232978301426e+00
2.399698232978301426e+00
2.350571733756523507e+00
2.350571733756523507e+00
2.398198187200537124e+00
2.398198187200537124e+00
2.301257728812525105e+00
2.301257728812525105e+00
2.208442396313364142e+00
2.208442396313364142e+00
2.199254615924558287e+00
2.199254615924558287e+00
2.160628437147130043e+00
2.160628437147130043e+00
2.163253517258217240e+00
2.163253517258217240e+00
2.163253517258217240e+00
2.248943632312997654e+00
2.248943632312997654e+00
2.302570268868068482e+00
2.302570268868068482e+00
2.345696584978789634e+00
2.345696584978789634e+00
2.374384960478530537e+00
2.374384960478530537e+00
2.356946928312021239e+00
2.356946928312021239e+00
2.456137455366679934e+00
2.456137455366679934e+00
2.443574571977904952e+00
2.443574571977904952e+00
2.409448530533769173e+00
2.409448530533769173e+00
2.409448530533769173e+00
2.484450819421979428e+00
2.484450819421979428e+00
2.394073061311685624e+00
2.394073061311685624e+00
2.329196081423383191e+00
2.329196081423383191e+00
2.270131778923917043e+00
2.270131778923917043e+00
2.176378917813653668e+00
2.176378917813653668e+00
2.158753379924924776e+00
2.158753379924924776e+00
2.155940794091616652e+00
2.155940794091616652e+00
2.180316537980285130e+00
2.180316537980285130e+00
2.227942991424298746e+00
2.227942991424298746e+00
2.227942991424298746e+00
2.269006744590594149e+00
2.269006744590594149e+00
2.336508804589983779e+00
2.336508804589983779e+00
2.411323587755973996e+00
2.411323587755973996e+00
2.374009949034089573e+00
2.374009949034089573e+00
2.383010223700674501e+00
2.383010223700674501e+00
2.429324137089144742e+00
2.429324137089144742e+00
2.356196905423139309e+00
2.356196905423139309e+00
2.279694570757164307e+00
2.279694570757164307e+00
2.279694570757164307e+00
2.170941251869258792e+00
2.170941251869258792e+00
2.121439741203039464e+00
2.121439741203039464e+00
2.182566606646931362e+00
2.182566606646931362e+00
2.194754478591265823e+00
2.194754478591265823e+00
2.177128940702536042e+00
2.177128940702536042e+00
2.213880062257759462e+00
2.213880062257759462e+00
2.254006286812952009e+00
2.254006286812952009e+00
2.344946562089907705e+00
2.344946562089907705e+00
2.344946562089907705e+00
2.350009216589862060e+00
2.350009216589862060e+00
2.307632923368022837e+00
2.307632923368022837e+00
2.417511276589251690e+00
2.417511276589251690e+00
2.455949949644459451e+00
2.455949949644459451e+00
2.478075624866481697e+00
2.478075624866481697e+00
2.463637684255501004e+00
2.463637684255501004e+00
2.362009582811975594e+00
2.362009582811975594e+00
2.298257637256996500e+00
2.298257637256996500e+00
2.298257637256996500e+00
2.275194433423871843e+00
2.275194433423871843e+00
2.223255348368785356e+00
2.223255348368785356e+00
2.203004730368968822e+00
2.203004730368968822e+00
2.239568346201971760e+00
2.239568346201971760e+00
2.278757042146061895e+00
2.278757042146061895e+00
2.364634662923062791e+00
2.364634662923062791e+00
2.346071596423230599e+00
2.346071596423230599e+00
2.316070680867946319e+00
2.316070680867946319e+00
2.377010040589617734e+00
2.377010040589617734e+00
2.377010040589617734e+00
2.290757408368175430e+00
2.290757408368175430e+00
2.233380657368694511e+00
2.233380657368694511e+00
2.211629993591112786e+00
2.211629993591112786e+00
2.188754295480208611e+00
2.188754295480208611e+00
2.186691732535783306e+00
2.186691732535783306e+00
2.203942258980071234e+00
2.203942258980071234e+00
2.176378917813653668e+00
2.176378917813653668e+00
2.200567155980101663e+00
2.200567155980101663e+00
2.220630268257698603e+00
2.220630268257698603e+00
2.220630268257698603e+00
2.299195165868098911e+00
2.299195165868098911e+00
2.387885372478407930e+00
2.387885372478407930e+00
2.310820520645771925e+00
2.310820520645771925e+00
2.317195715201269657e+00
2.317195715201269657e+00
2.387697866756187448e+00
2.387697866756187448e+00
2.395573107089449927e+00
2.395573107089449927e+00
2.486138370921964214e+00
2.486138370921964214e+00
2.481075716422009858e+00
2.481075716422009858e+00
2.481075716422009858e+00
2.431386700033570492e+00
2.431386700033570492e+00
2.433824274422437206e+00
2.433824274422437206e+00
2.423886471144749422e+00
2.423886471144749422e+00
2.330133610034486047e+00
2.330133610034486047e+00
2.271256813257240381e+00
2.271256813257240381e+00
2.294320017090365038e+00
2.294320017090365038e+00
2.349446699423200169e+00
2.349446699423200169e+00
2.330321115756706529e+00
2.330321115756706529e+00
2.330321115756706529e+00
2.211442487868892304e+00
2.211442487868892304e+00
2.198317087313455875e+00
2.198317087313455875e+00
2.134752647480697263e+00
2.134752647480697263e+00
1.988685689870906881e+00
1.988685689870906881e+00
1.985498092593157793e+00
1.985498092593157793e+00
1.947059419537949809e+00
1.947059419537949809e+00
1.979122898037659839e+00
1.979122898037659839e+00
2.133440107425153442e+00
2.133440107425153442e+00
2.133440107425153442e+00
2.240505874813074172e+00
2.240505874813074172e+00
2.344009033478804849e+00
2.344009033478804849e+00
2.434574297311319135e+00
2.434574297311319135e+00
2.530202215643787778e+00
2.530202215643787778e+00
2.538639973143711703e+00
2.538639973143711703e+00
2.439261940366832526e+00
2.439261940366832526e+00
2.330883632923367976e+00
2.330883632923367976e+00
2.328071047090059853e+00
2.328071047090059853e+00
2.328071047090059853e+00
2.236755760368663637e+00
2.236755760368663637e+00
2.154065736869411385e+00
2.154065736869411385e+00
2.213130039368877089e+00
2.213130039368877089e+00
2.218005188146610962e+00
2.218005188146610962e+00
2.213130039368877089e+00
2.213130039368877089e+00
2.258693929868464956e+00
2.258693929868464956e+00
2.405323404644917229e+00
2.405323404644917229e+00
2.358259468367565059e+00
2.358259468367565059e+00
2.358259468367565059e+00
2.332196172978911797e+00
2.332196172978911797e+00
2.442262031922361132e+00
2.442262031922361132e+00
2.508076540421765976e+00
2.508076540421765976e+00
2.431761711478011456e+00
2.431761711478011456e+00
2.420136356700338887e+00
2.420136356700338887e+00
2.489513473921933784e+00
2.489513473921933784e+00
2.354509353923154524e+00
2.354509353923154524e+00
2.245006012146367080e+00
2.245006012146367080e+00
2.245006012146367080e+00
2.258131412701803509e+00
2.258131412701803509e+00
2.315695669423505798e+00
2.315695669423505798e+00
2.294695028534806447e+00
2.294695028534806447e+00
2.162315988647114828e+00
2.162315988647114828e+00
2.095563951536606684e+00
2.095563951536606684e+00
2.125564867091891408e+00
2.125564867091891408e+00
2.130815027314065802e+00
2.130815027314065802e+00
2.171128757591479275e+00
2.171128757591479275e+00
2.171128757591479275e+00
2.284007202368236289e+00
2.284007202368236289e+00
2.305945371868038052e+00
2.305945371868038052e+00
2.312695577867977192e+00
2.312695577867977192e+00
2.271819330423901828e+00
2.271819330423901828e+00
2.237880794701986531e+00
2.237880794701986531e+00
2.299945188756981285e+00
2.299945188756981285e+00
2.363509628589739453e+00
2.363509628589739453e+00
2.405698416089358194e+00
2.405698416089358194e+00
2.328633564256721744e+00
2.328633564256721744e+00
2.328633564256721744e+00
2.055062715536973172e+00
2.055062715536973172e+00
1.847868892483291114e+00
1.847868892483291114e+00
1.797429853205969374e+00
1.797429853205969374e+00
1.841118686483352196e+00
1.841118686483352196e+00
1.979122898037659839e+00
1.979122898037659839e+00
2.114689535203100768e+00
2.114689535203100768e+00
2.172441297647023095e+00
2.172441297647023095e+00
2.139627796258431136e+00
2.139627796258431136e+00
2.162691000091555793e+00
2.162691000091555793e+00
2.162691000091555793e+00
2.323195898312326424e+00
2.323195898312326424e+00
2.582891323587756194e+00
2.582891323587756194e+00
2.718832972197637865e+00
2.718832972197637865e+00
2.747896359141819733e+00
2.747896359141819733e+00
2.775834711752677819e+00
2.775834711752677819e+00
2.618517410809656276e+00
2.618517410809656276e+00
2.449387249366740793e+00
2.449387249366740793e+00
2.261881527146214044e+00
2.261881527146214044e+00
2.047749992370372585e+00
2.047749992370372585e+00
2.047749992370372585e+00
1.999936033204138486e+00
1.999936033204138486e+00
2.079063447981200685e+00
2.079063447981200685e+00
2.082063539536728847e+00
2.082063539536728847e+00
2.179566515091402756e+00
2.179566515091402756e+00
2.162878505813776275e+00
2.162878505813776275e+00
2.221192785424360050e+00
2.221192785424360050e+00
2.326946012756737403e+00
2.326946012756737403e+00
2.374009949034089573e+00
2.374009949034089573e+00
2.374009949034089573e+00
2.147315530869472244e+00
2.147315530869472244e+00
1.970685140537736135e+00
1.970685140537736135e+00
1.976122806482131455e+00
1.976122806482131455e+00
2.215380108035523765e+00
2.215380108035523765e+00
2.410948576311533031e+00
2.410948576311533031e+00
2.509951597643971244e+00
2.509951597643971244e+00
2.494013611255226248e+00
2.494013611255226248e+00
2.256631366924039650e+00
2.256631366924039650e+00
2.256631366924039650e+00
2.206567339091158875e+00
2.206567339091158875e+00
2.312508072145756710e+00
2.312508072145756710e+00
2.278007019257179522e+00
2.278007019257179522e+00
2.248756126590777171e+00
2.248756126590777171e+00
2.187629261146885273e+00
2.187629261146885273e+00
2.146565507980590315e+00
2.146565507980590315e+00
2.226817957090975852e+00
2.226817957090975852e+00
2.390510452589495571e+00
2.390510452589495571e+00
2.390510452589495571e+00
2.373634937589648164e+00
2.373634937589648164e+00
2.207504867702261730e+00
2.207504867702261730e+00
2.203942258980071234e+00
2.203942258980071234e+00
2.336508804589983779e+00
2.336508804589983779e+00
2.468137821588793912e+00
2.468137821588793912e+00
2.472637958922086376e+00
2.472637958922086376e+00
2.408886013367107282e+00
2.408886013367107282e+00
2.213692556535538980e+00
2.213692556535538980e+00
2.029749443037202283e+00
2.029749443037202283e+00
2.029749443037202283e+00
2.000311044648579006e+00
2.000311044648579006e+00
1.967685048982207752e+00
1.967685048982207752e+00
1.982122989593188223e+00
1.982122989593188223e+00
1.758803674428540909e+00
1.758803674428540909e+00
1.538484450819422200e+00
1.538484450819422200e+00
1.627549668874172184e+00
1.627549668874172184e+00
1.976497817926572642e+00
1.976497817926572642e+00
2.322445875423444495e+00
2.322445875423444495e+00
2.322445875423444495e+00
2.581578783532212373e+00
2.581578783532212373e+00
2.707207617419965295e+00
2.707207617419965295e+00
2.844649311807611269e+00
2.844649311807611269e+00
2.847274391918698466e+00
2.847274391918698466e+00
2.617767387920773903e+00
2.617767387920773903e+00
2.474888027588732609e+00
2.474888027588732609e+00
2.389385418256172233e+00
2.389385418256172233e+00
2.107001800592058771e+00
2.107001800592058771e+00
2.107001800592058771e+00
2.098564043092135289e+00
2.098564043092135289e+00
2.218755211035493335e+00
2.218755211035493335e+00
2.290569902645954947e+00
2.290569902645954947e+00
2.302945280312509890e+00
2.302945280312509890e+00
2.263006561479537382e+00
2.263006561479537382e+00
2.092938871425519931e+00
2.092938871425519931e+00
2.044374889370403459e+00
2.044374889370403459e+00
2.076250862147892562e+00
2.076250862147892562e+00
2.076250862147892562e+00
2.094063905758842381e+00
2.094063905758842381e+00
2.156128299813837135e+00
2.156128299813837135e+00
2.106064271980956359e+00
2.106064271980956359e+00
2.106251777703176842e+00
2.106251777703176842e+00
2.184816675313578038e+00
2.184816675313578038e+00
2.196629535813471090e+00
2.196629535813471090e+00
2.440949491866817311e+00
2.440949491866817311e+00
2.643080660420545236e+00
2.643080660420545236e+00
2.643080660420545236e+00
2.491201025421918569e+00
2.491201025421918569e+00
2.220442762535478121e+00
2.220442762535478121e+00
1.897370403149510221e+00
1.897370403149510221e+00
2.001061067537461380e+00
2.001061067537461380e+00
2.172253791924802613e+00
2.172253791924802613e+00
2.258693929868464956e+00
2.258693929868464956e+00
2.309132969145787140e+00
2.309132969145787140e+00
2.155940794091616652e+00
2.155940794091616652e+00
1.801179967650380132e+00
1.801179967650380132e+00
1.836618549150059510e+00
1.836618549150059510e+00
2.109251869258705447e+00
2.109251869258705447e+00
2.109251869258705447e+00
2.286632282479323930e+00
2.286632282479323930e+00
2.292444959868159771e+00
2.292444959868159771e+00
2.130627521591845319e+00
2.130627521591845319e+00
2.083751091036713632e+00
2.083751091036713632e+00
2.103626697592089645e+00
2.103626697592089645e+00
2.035187108981597159e+00
2.035187108981597159e+00
1.992060792870876229e+00
1.992060792870876229e+00
2.070438184759056277e+00
2.070438184759056277e+00
2.070438184759056277e+00
1.959247291482284048e+00
1.959247291482284048e+00
2.132315073091830104e+00
2.132315073091830104e+00
2.415448713644825496e+00
2.415448713644825496e+00
2.720333017975402168e+00
2.720333017975402168e+00
2.816710959196753183e+00
2.816710959196753183e+00
2.963527939695425051e+00
2.963527939695425051e+00
3.136220709860530587e+00
3.136220709860530587e+00
2.818023499252296560e+00
2.818023499252296560e+00
2.818023499252296560e+00
2.198129581591235393e+00
2.198129581591235393e+00
2.012123905148472502e+00
2.012123905148472502e+00
2.103814203314310571e+00
2.103814203314310571e+00
2.083001068147831703e+00
2.083001068147831703e+00
1.987748161259804025e+00
1.987748161259804025e+00
1.935621570482497722e+00
1.935621570482497722e+00
1.931683950315866705e+00
1.931683950315866705e+00
1.931683950315866705e+00
1.931683950315866705e+00
2.092751365703299449e+00
2.092751365703299449e+00
2.092751365703299449e+00
2.231318094424268317e+00
2.231318094424268317e+00
2.079813470870083059e+00
2.079813470870083059e+00
2.046437452314828764e+00
2.046437452314828764e+00
2.082063539536728847e+00
2.082063539536728847e+00
1.955309671315652809e+00
1.955309671315652809e+00
1.786554521317178956e+00
1.786554521317178956e+00
1.699176854762413313e+00
1.699176854762413313e+00
1.886120059816278616e+00
1.886120059816278616e+00
2.219130222479934300e+00
2.219130222479934300e+00
2.219130222479934300e+00
2.613454756309701921e+00
2.613454756309701921e+00
2.848586931974242287e+00
2.848586931974242287e+00
3.008904324472792435e+00
3.008904324472792435e+00
3.093281899472029917e+00
3.093281899472029917e+00
2.804148075807977758e+00
2.804148075807977758e+00
2.623580065309610188e+00
2.623580065309610188e+00
2.356009399700918827e+00
2.356009399700918827e+00
2.258318918424023991e+00
2.258318918424023991e+00
2.228693014313181120e+00
2.228693014313181120e+00
2.228693014313181120e+00
1.953622119815668245e+00
1.953622119815668245e+00
1.782991912594988904e+00
1.782991912594988904e+00
1.700864406262398099e+00
1.700864406262398099e+00
1.781304361095004118e+00
1.781304361095004118e+00
2.031249488814966586e+00
2.031249488814966586e+00
2.240130863368633207e+00
2.240130863368633207e+00
2.358634479812006024e+00
2.358634479812006024e+00
2.693894711142307941e+00
2.693894711142307941e+00
2.693894711142307941e+00
2.698207342753379923e+00
2.698207342753379923e+00
2.119002166814172750e+00
2.119002166814172750e+00
1.778116763817255253e+00
1.778116763817255253e+00
1.936371593371379873e+00
1.936371593371379873e+00
2.268256721701712220e+00
2.268256721701712220e+00
2.447137180700094561e+00
2.447137180700094561e+00
2.119939695425275605e+00
2.119939695425275605e+00
1.927183812982574018e+00
1.927183812982574018e+00
1.927183812982574018e+00
1.835118503372295429e+00
1.835118503372295429e+00
1.946496902371288140e+00
1.946496902371288140e+00
2.155753288369396170e+00
2.155753288369396170e+00
2.007811273537400520e+00
2.007811273537400520e+00
1.845056306649983213e+00
1.845056306649983213e+00
2.228880520035401602e+00
2.228880520035401602e+00
2.481263222144230340e+00
2.481263222144230340e+00
2.702707480086672831e+00
2.702707480086672831e+00
2.702707480086672831e+00
2.745833796197393983e+00
2.745833796197393983e+00
2.529639698477126331e+00
2.529639698477126331e+00
2.406260933256020085e+00
2.406260933256020085e+00
2.430261665700247153e+00
2.430261665700247153e+00
2.283069673757133433e+00
2.283069673757133433e+00
1.967122531815546083e+00
1.967122531815546083e+00
1.845618823816644882e+00
1.845618823816644882e+00
1.663925778984954418e+00
1.663925778984954418e+00
1.663925778984954418e+00
1.599986327707754841e+00
1.777741752372814288e+00
1.777741752372814288e+00
1.777741752372814288e+00
2.403448347422711961e+00
2.403448347422711961e+00
2.645705740531632433e+00
2.645705740531632433e+00
2.411698599200414961e+00
2.411698599200414961e+00
2.592079103976562049e+00
2.592079103976562049e+00
2.769084505752739123e+00
2.769084505752739123e+00
3.023717276528214537e+00
3.023717276528214537e+00
3.045655446028015856e+00
3.045655446028015856e+00
2.328258552812280335e+00
2.328258552812280335e+00
2.002561113315225683e+00
2.002561113315225683e+00
1.922121158482619663e+00
1.922121158482619663e+00
1.922121158482619663e+00
1.997873470259712514e+00
1.997873470259712514e+00
2.067438093203528116e+00
2.067438093203528116e+00
2.215192602313302839e+00
2.215192602313302839e+00
2.520264412366099993e+00
2.520264412366099993e+00
2.613642262031922403e+00
2.613642262031922403e+00
2.265069124423963132e+00
2.265069124423963132e+00
1.592298593096713066e+00
1.592298593096713066e+00
1.188786278878139591e+00
1.188786278878139591e+00
1.188786278878139591e+00
9.587167577135532470e-01
9.587167577135532470e-01
1.167785637989440684e+00
1.167785637989440684e+00
1.723552598651082013e+00
1.723552598651082013e+00
1.860806787316507505e+00
1.860806787316507505e+00
2.033312051759392336e+00
2.033312051759392336e+00
2.232630634479812137e+00
2.232630634479812137e+00
2.136065187536240639e+00
2.136065187536240639e+00
1.927183812982574018e+00
1.927183812982574018e+00
1.927183812982574018e+00
2.298820154423657947e+00
2.298820154423657947e+00
2.636517960142826578e+00
2.636517960142826578e+00
2.762146794030579500e+00
2.762146794030579500e+00
2.667268898586993231e+00
2.667268898586993231e+00
3.005341715750602827e+00
3.005341715750602827e+00
3.131720572527237678e+00
3.131720572527237678e+00
3.004216681417279933e+00
3.004216681417279933e+00
2.602391918698690798e+00
2.602391918698690798e+00
2.602391918698690798e+00
2.244255989257484707e+00
2.244255989257484707e+00
2.008561296426282894e+00
2.008561296426282894e+00
1.931308938871425740e+00
1.931308938871425740e+00
1.847868892483291114e+00
1.847868892483291114e+00
1.878619830927457546e+00
1.878619830927457546e+00
1.938434156315805401e+00
1.938434156315805401e+00
2.174316354869228363e+00
2.174316354869228363e+00
2.619454939420759132e+00
2.619454939420759132e+00
2.662956266975920805e+00
2.662956266975920805e+00
2.662956266975920805e+00
2.654331003753776841e+00
2.654331003753776841e+00
2.802085512863552008e+00
2.802085512863552008e+00
2.454074892422254184e+00
2.454074892422254184e+00
2.029936948759422766e+00
2.029936948759422766e+00
1.900933011871700273e+00
1.900933011871700273e+00
1.788992095706045893e+00
1.788992095706045893e+00
1.267726187932981530e+00
1.267726187932981530e+00
1.206786828211310114e+00
1.206786828211310114e+00
1.206786828211310114e+00
9.964054078798791902e-01
9.964054078798791902e-01
6.568325449385051806e-01
6.568325449385051806e-01
9.320909451582385374e-01
9.320909451582385374e-01
1.738178044984283188e+00
1.738178044984283188e+00
2.862837366863002497e+00
2.862837366863002497e+00
3.646236274300363345e+00
3.646236274300363345e+00
3.782365428632465498e+00
3.782365428632465498e+00
3.842742271187475023e+00
3.842742271187475023e+00
3.842742271187475023e+00
3.762114810632648521e+00
3.762114810632648521e+00
3.262037049470503991e+00
3.262037049470503991e+00
2.816523453474532257e+00
2.816523453474532257e+00
2.364072145756401344e+00
2.364072145756401344e+00
2.163253517258217240e+00
2.163253517258217240e+00
2.127814935758537640e+00
2.127814935758537640e+00
1.936559099093600356e+00
1.936559099093600356e+00
1.991498275704214560e+00
1.991498275704214560e+00
1.991498275704214560e+00
2.091813837092196593e+00
2.091813837092196593e+00
2.392573015533921321e+00
2.392573015533921321e+00
2.646080751976073397e+00
2.646080751976073397e+00
2.821211096530045204e+00
2.821211096530045204e+00
2.801710501419110599e+00
2.801710501419110599e+00
2.481075716422009858e+00
2.481075716422009858e+00
2.387135349589526001e+00
2.387135349589526001e+00
2.515389263588366120e+00
2.515389263588366120e+00
2.515389263588366120e+00
2.531702261421552080e+00
2.531702261421552080e+00
2.389197912533951751e+00
2.389197912533951751e+00
2.028061891537217498e+00
2.028061891537217498e+00
1.547859736930448316e+00
1.547859736930448316e+00
1.161972960600604399e+00
1.161972960600604399e+00
1.252725730155339168e+00
1.252725730155339168e+00
1.453169347209082307e+00
1.453169347209082307e+00
1.790867152928251160e+00
1.790867152928251160e+00
1.954184636982329915e+00
1.954184636982329915e+00
1.969372600482192537e+00
1.969372600482192537e+00
2.049437543870357370e+00
2.049437543870357370e+00
2.049437543870357370e+00
1.851431501205481167e+00
1.851431501205481167e+00
1.917621021149327198e+00
1.917621021149327198e+00
2.180129032258064647e+00
2.180129032258064647e+00
2.195129490035706787e+00
2.195129490035706787e+00
2.180504043702505612e+00
2.180504043702505612e+00
2.089376262703329878e+00
2.089376262703329878e+00
2.219692739646595747e+00
2.219692739646595747e+00
2.412823633533738299e+00
2.412823633533738299e+00
2.412823633533738299e+00
2.557578051087984861e+00
2.557578051087984861e+00
2.650768395031586788e+00
2.650768395031586788e+00
2.905401165807061759e+00
2.905401165807061759e+00
3.415604235969115443e+00
3.415604235969115443e+00
3.351289773247474457e+00
3.351289773247474457e+00
3.404916409802545285e+00
3.404916409802545285e+00
3.110157414471877324e+00
3.110157414471877324e+00
2.462325144199957183e+00
2.462325144199957183e+00
2.462325144199957183e+00
2.293945005645924073e+00
2.293945005645924073e+00
2.005186193426313324e+00
2.005186193426313324e+00
1.692051637318033430e+00
1.692051637318033430e+00
1.652112918485061144e+00
1.652112918485061144e+00
1.809617725150303613e+00
1.809617725150303613e+00
2.005373699148533806e+00
2.005373699148533806e+00
2.126689901425214746e+00
2.126689901425214746e+00
2.242380932035279439e+00
2.242380932035279439e+00
2.242380932035279439e+00
2.429136631366924259e+00
2.429136631366924259e+00
2.847461897640919393e+00
2.847461897640919393e+00
2.588141483809930588e+00
2.588141483809930588e+00
2.196254524369030126e+00
2.196254524369030126e+00
1.912933378093814030e+00
1.912933378093814030e+00
2.083563585314493150e+00
2.083563585314493150e+00
2.236755760368663637e+00
2.236755760368663637e+00
1.931496444593646222e+00
1.931496444593646222e+00
1.931496444593646222e+00
1.595111178930021190e+00
1.595111178930021190e+00
1.568485366374706258e+00
1.568485366374706258e+00
1.691301614429151501e+00
1.691301614429151501e+00
1.863431867427594923e+00
1.863431867427594923e+00
1.952872096926786094e+00
1.952872096926786094e+00
2.156315805536057617e+00
2.156315805536057617e+00
2.738708578753013434e+00
2.738708578753013434e+00
3.026342356639301734e+00
3.026342356639301734e+00
3.026342356639301734e+00
2.833586474196600147e+00
2.833586474196600147e+00
2.292819971312600735e+00
2.292819971312600735e+00
2.291132419812616394e+00
2.291132419812616394e+00
2.487638416699728516e+00
2.487638416699728516e+00
2.178441480758079862e+00
2.178441480758079862e+00
2.034437086092715230e+00
2.034437086092715230e+00
2.213317545091097571e+00
2.213317545091097571e+00
2.717895443586535009e+00
2.717895443586535009e+00
2.717895443586535009e+00
2.959027802362133031e+00
2.959027802362133031e+00
2.630142765587328846e+00
2.630142765587328846e+00
2.388260383922848895e+00
2.388260383922848895e+00
2.025061799981688893e+00
2.025061799981688893e+00
2.153878231147190458e+00
2.153878231147190458e+00
2.352634296700948813e+00
2.352634296700948813e+00
2.408135990478225352e+00
2.408135990478225352e+00
2.462137638477736701e+00
2.462137638477736701e+00
2.462137638477736701e+00
2.402885830256050514e+00
2.402885830256050514e+00
2.179003997924741309e+00
2.179003997924741309e+00
2.143002899258400262e+00
2.143002899258400262e+00
2.181629078035828950e+00
2.181629078035828950e+00
2.192129398480178182e+00
2.192129398480178182e+00
2.330321115756706529e+00
2.330321115756706529e+00
2.670644001586962357e+00
2.670644001586962357e+00
2.749958922086245039e+00
2.749958922086245039e+00
2.749958922086245039e+00
2.506951506088442638e+00
2.506951506088442638e+00
2.382635212256233537e+00
2.382635212256233537e+00
2.480700704977568893e+00
2.480700704977568893e+00
2.081126010925626435e+00
2.081126010925626435e+00
1.731427838984344048e+00
1.731427838984344048e+00
1.474357493820001919e+00
1.474357493820001919e+00
1.141347331156346234e+00
1.141347331156346234e+00
1.355478865932187915e+00
1.355478865932187915e+00
1.355478865932187915e+00
1.793117221594897392e+00
1.793117221594897392e+00
2.366884731589709023e+00
2.366884731589709023e+00
2.744896267586291128e+00
2.744896267586291128e+00
2.826836268196661450e+00
2.826836268196661450e+00
2.909901303140354667e+00
2.909901303140354667e+00
2.857399700918607177e+00
2.857399700918607177e+00
2.738896084475233916e+00
2.738896084475233916e+00
2.435886837366862956e+00
2.435886837366862956e+00
1.782991912594988904e+00
1.782991912594988904e+00
1.490670491653187657e+00
1.490670491653187657e+00
1.975372783593249304e+00
1.975372783593249304e+00
2.336133793145542814e+00
2.336133793145542814e+00
2.336133793145542814e+00
2.750708944975127412e+00
2.750708944975127412e+00
2.775834711752677819e+00
2.775834711752677819e+00
2.777334757530442122e+00
2.777334757530442122e+00
2.737021027253029093e+00
2.737021027253029093e+00
2.272944364757225166e+00
2.272944364757225166e+00
2.358071962645344577e+00
2.358071962645344577e+00
2.371384868923001932e+00
2.371384868923001932e+00
2.411323587755973996e+00
2.411323587755973996e+00
2.411323587755973996e+00
2.796647846919156244e+00
2.796647846919156244e+00
2.958465285195471139e+00
2.958465285195471139e+00
2.610079653309732350e+00
2.610079653309732350e+00
2.180316537980285130e+00
2.180316537980285130e+00
1.734240424817651949e+00
1.734240424817651949e+00
1.504545915097506681e+00
1.504545915097506681e+00
1.655488021485030714e+00
1.655488021485030714e+00
1.733115390484328611e+00
1.733115390484328611e+00
1.733115390484328611e+00
2.396510635700552783e+00
2.396510635700552783e+00
2.850274483474227072e+00
2.850274483474227072e+00
2.827023773918881933e+00
2.827023773918881933e+00
2.502638874477370656e+00
2.502638874477370656e+00
2.231318094424268317e+00
2.231318094424268317e+00
2.010436353648488161e+00
2.010436353648488161e+00
1.918558549760429832e+00
1.918558549760429832e+00
2.030311960203863730e+00
2.030311960203863730e+00
2.030311960203863730e+00
2.171316263313699757e+00
2.171316263313699757e+00
2.565640797143467378e+00
2.565640797143467378e+00
2.373072420422986717e+00
2.373072420422986717e+00
2.416948759422589799e+00
2.416948759422589799e+00
2.732708395641957111e+00
2.732708395641957111e+00
2.781459883419294066e+00
2.781459883419294066e+00
2.605204504531998921e+00
2.605204504531998921e+00
2.046812463759269729e+00
2.046812463759269729e+00
1.701426923429059768e+00
1.701426923429059768e+00
1.701426923429059768e+00
1.955309671315652809e+00
1.955309671315652809e+00
2.234318185979796478e+00
2.296195074312570750e+00
2.296195074312570750e+00
2.296195074312570750e+00
2.342321481978820064e+00
2.342321481978820064e+00
2.387885372478407930e+00
2.387885372478407930e+00
2.269006744590594149e+00
2.269006744590594149e+00
2.259068941312906365e+00
2.259068941312906365e+00
2.516139286477248493e+00
2.516139286477248493e+00
2.676269173253578604e+00
2.676269173253578604e+00
2.553640430921353843e+00
2.553640430921353843e+00
2.491388531144139051e+00
2.491388531144139051e+00
2.491388531144139051e+00
2.412448622089296890e+00
2.412448622089296890e+00
2.279319559312723342e+00
2.279319559312723342e+00
2.334071230201117064e+00
2.334071230201117064e+00
2.350384228034303025e+00
2.350384228034303025e+00
2.500201300088503942e+00
2.500201300088503942e+00
2.415448713644825496e+00
2.415448713644825496e+00
2.344196539201025331e+00
2.344196539201025331e+00
2.401010773033844803e+00
2.401010773033844803e+00
2.401010773033844803e+00
2.580453749198889035e+00
2.580453749198889035e+00
2.375322489089632505e+00
2.375322489089632505e+00
1.920058595538193913e+00
1.920058595538193913e+00
1.938059144871364436e+00
1.938059144871364436e+00
2.083001068147831703e+00
2.083001068147831703e+00
2.007811273537400520e+00
2.007811273537400520e+00
1.708927152317880838e+00
1.708927152317880838e+00
1.398980193487350032e+00
1.398980193487350032e+00
1.398980193487350032e+00
1.550297311319315252e+00
1.550297311319315252e+00
2.087126194036683202e+00
2.087126194036683202e+00
2.653393475142674429e+00
2.653393475142674429e+00
3.175409405804620278e+00
3.175409405804620278e+00
3.322413892025513515e+00
3.322413892025513515e+00
3.125532883693960429e+00
3.125532883693960429e+00
2.655268532364879697e+00
2.655268532364879697e+00
2.174878872035889810e+00
2.174878872035889810e+00
2.174878872035889810e+00
2.028249397259437981e+00
2.028249397259437981e+00
1.996373424481948211e+00
1.996373424481948211e+00
2.025436811426129857e+00
2.025436811426129857e+00
2.178253975035859380e+00
2.178253975035859380e+00
2.619454939420759132e+00
2.619454939420759132e+00
2.793272743919187118e+00
2.793272743919187118e+00
2.512201666310617476e+00
2.512201666310617476e+00
2.271819330423901828e+00
2.271819330423901828e+00
2.271819330423901828e+00
2.143940427869502674e+00
2.143940427869502674e+00
2.038937223426007694e+00
2.038937223426007694e+00
1.881807428205206412e+00
1.881807428205206412e+00
2.119752189703054679e+00
2.119752189703054679e+00
2.454824915311136557e+00
2.454824915311136557e+00
2.628080202642903096e+00
2.628080202642903096e+00
2.762709311197240947e+00
2.762709311197240947e+00
2.707957640308847225e+00
2.707957640308847225e+00
2.529639698477126331e+00
2.529639698477126331e+00
2.428199102755821404e+00
2.428199102755821404e+00
2.428199102755821404e+00
2.248381115146336207e+00
2.248381115146336207e+00
1.877494796594134430e+00
1.877494796594134430e+00
2.070625690481276759e+00
2.070625690481276759e+00
2.169441206091494490e+00
2.169441206091494490e+00
1.846368846705527034e+00
1.846368846705527034e+00
2.109251869258705447e+00
2.109251869258705447e+00
2.360884548478652700e+00
2.360884548478652700e+00
2.191566881313516735e+00
2.191566881313516735e+00
2.191566881313516735e+00
2.046437452314828764e+00
2.046437452314828764e+00
2.050187566759239299e+00
2.050187566759239299e+00
2.274069399090548504e+00
2.274069399090548504e+00
2.341571459089938134e+00
2.341571459089938134e+00
2.297507614368114126e+00
2.297507614368114126e+00
2.747333841975158286e+00
2.747333841975158286e+00
2.846711874752037019e+00
2.846711874752037019e+00
2.817460982085635113e+00
2.817460982085635113e+00
2.780709860530411692e+00
2.780709860530411692e+00
2.780709860530411692e+00
2.475075533310953091e+00
2.475075533310953091e+00
2.323195898312326424e+00
2.323195898312326424e+00
2.238818323313089387e+00
2.238818323313089387e+00
2.206192327646717910e+00
2.206192327646717910e+00
2.365197180089724238e+00
2.365197180089724238e+00
2.441136997589037794e+00
2.441136997589037794e+00
2.445074617755668811e+00
2.445074617755668811e+00
2.447699697866756008e+00
2.447699697866756008e+00
2.447699697866756008e+00
2.203192236091189304e+00
2.203192236091189304e+00
2.077938413647877791e+00
2.077938413647877791e+00
2.177691457869197489e+00
2.177691457869197489e+00
2.081688528092287882e+00
2.081688528092287882e+00
1.898682943205053819e+00
1.898682943205053819e+00
1.721302529984435559e+00
1.721302529984435559e+00
1.695614246040223483e+00
1.695614246040223483e+00
1.905245643482772255e+00
1.905245643482772255e+00
2.333321207312235135e+00
2.333321207312235135e+00
2.333321207312235135e+00
2.537327433088168327e+00
2.537327433088168327e+00
2.633517868587297972e+00
2.633517868587297972e+00
2.407010956144902014e+00
2.407010956144902014e+00
2.043437360759300603e+00
2.043437360759300603e+00
1.969560106204413019e+00
1.969560106204413019e+00
2.025624317148350340e+00
2.025624317148350340e+00
2.137377727591784460e+00
2.137377727591784460e+00
2.541265053254798900e+00
2.541265053254798900e+00
2.541265053254798900e+00
2.851399517807550410e+00
2.851399517807550410e+00
3.026904873805963625e+00
3.026904873805963625e+00
2.946839930417798570e+00
2.946839930417798570e+00
2.551765373699148576e+00
2.551765373699148576e+00
2.620204962309641061e+00
2.620204962309641061e+00
2.631830317087313631e+00
2.631830317087313631e+00
2.451074800866725578e+00
2.451074800866725578e+00
2.328071047090059853e+00
2.328071047090059853e+00
2.236755760368663637e+00
2.236755760368663637e+00
2.236755760368663637e+00
2.175253883480330774e+00
2.175253883480330774e+00
2.242568437757499922e+00
2.242568437757499922e+00
2.305757866145817125e+00
2.305757866145817125e+00
2.380760155034028269e+00
2.380760155034028269e+00
2.429511642811365224e+00
2.429511642811365224e+00
2.524014526810510528e+00
2.524014526810510528e+00
2.538077455977050256e+00
2.538077455977050256e+00
2.390697958311716054e+00
2.390697958311716054e+00
2.390697958311716054e+00
2.082063539536728847e+00
2.082063539536728847e+00
2.132315073091830104e+00
2.132315073091830104e+00
2.271069307535019899e+00
2.271069307535019899e+00
2.214630085146641392e+00
2.214630085146641392e+00
2.240880886257515137e+00
2.240880886257515137e+00
2.200379650257881181e+00
2.200379650257881181e+00
2.137002716147343495e+00
2.137002716147343495e+00
2.137002716147343495e+00
2.162878505813776275e+00
2.162878505813776275e+00
2.447324686422315043e+00
2.447324686422315043e+00
2.799647938474684850e+00
2.799647938474684850e+00
2.587578966643269140e+00
2.587578966643269140e+00
2.366509720145268059e+00
2.366509720145268059e+00
2.477325601977599767e+00
2.477325601977599767e+00
2.341383953367717208e+00
2.341383953367717208e+00
2.234318185979796478e+00
2.234318185979796478e+00
2.136627704702902530e+00
2.136627704702902530e+00
2.136627704702902530e+00
1.748490859706411937e+00
1.748490859706411937e+00
1.611236671040986446e+00
1.611236671040986446e+00
1.670675984984893336e+00
1.670675984984893336e+00
1.770616534928434183e+00
1.770616534928434183e+00
2.024874294259468410e+00
2.024874294259468410e+00
2.315508163701284872e+00
2.315508163701284872e+00
2.401198278756065729e+00
2.401198278756065729e+00
2.303882808923612302e+00
2.303882808923612302e+00
2.272944364757225166e+00
2.272944364757225166e+00
2.589079012421033443e+00
2.589079012421033443e+00
2.589079012421033443e+00
2.608579607531968492e+00
2.608579607531968492e+00
2.192129398480178182e+00
2.192129398480178182e+00
2.293382488479262626e+00
2.293382488479262626e+00
2.771522080141606281e+00
2.771522080141606281e+00
3.083719107638783097e+00
3.083719107638783097e+00
2.950402539139988178e+00
2.950402539139988178e+00
2.649455854976042968e+00
2.649455854976042968e+00
2.541077547532578418e+00
2.541077547532578418e+00
2.541077547532578418e+00
2.653018463698233020e+00
2.653018463698233020e+00
2.580078737754448071e+00
2.580078737754448071e+00
2.537327433088168327e+00
2.537327433088168327e+00
2.332196172978911797e+00
2.332196172978911797e+00
2.050937589648121673e+00
2.050937589648121673e+00
2.102689168980987233e+00
2.102689168980987233e+00
2.282882168034912951e+00
2.282882168034912951e+00
2.423136448255867048e+00
2.423136448255867048e+00
2.423136448255867048e+00
2.445074617755668811e+00
2.445074617755668811e+00
2.368947294534135217e+00
2.368947294534135217e+00
2.259068941312906365e+00
2.259068941312906365e+00
2.239568346201971760e+00
2.239568346201971760e+00
2.191004364146854844e+00
2.191004364146854844e+00
2.259443952757347329e+00
2.259443952757347329e+00
2.329571092867824156e+00
2.329571092867824156e+00
2.312320566423536228e+00
2.312320566423536228e+00
2.312320566423536228e+00
2.438886928922391562e+00
2.438886928922391562e+00
2.468325327311013950e+00
2.468325327311013950e+00
2.342696493423261028e+00
2.342696493423261028e+00
2.295257545701467894e+00
2.295257545701467894e+00
2.176941434980315559e+00
2.176941434980315559e+00
2.205254799035615054e+00
2.205254799035615054e+00
2.184254158146916147e+00
2.184254158146916147e+00
2.002748619037446165e+00
2.002748619037446165e+00
1.983810541093173230e+00
1.983810541093173230e+00
1.983810541093173230e+00
2.021311685537278358e+00
2.021311685537278358e+00
1.979685415204321286e+00
1.979685415204321286e+00
1.791242164372691903e+00
1.791242164372691903e+00
1.593236121707815700e+00
1.593236121707815700e+00
1.702176946317941919e+00
1.702176946317941919e+00
2.237880794701986531e+00
2.237880794701986531e+00
2.853462080751976160e+00
2.853462080751976160e+00
3.187597277748954738e+00
3.187597277748954738e+00
3.187597277748954738e+00
3.260724509414960171e+00
3.260724509414960171e+00
2.988653706472975902e+00
2.988653706472975902e+00
2.551577867976928093e+00
2.551577867976928093e+00
2.303320291756950855e+00
2.303320291756950855e+00
2.409823541978209693e+00
2.409823541978209693e+00
2.752396496475112198e+00
2.752396496475112198e+00
2.739646107364116290e+00
2.739646107364116290e+00
2.254756309701834383e+00
2.254756309701834383e+00
2.254756309701834383e+00
1.916683492538224565e+00
1.916683492538224565e+00
2.087126194036683202e+00
2.087126194036683202e+00
2.302570268868068482e+00
2.302570268868068482e+00
2.511264137699515064e+00
2.511264137699515064e+00
2.467012787255470574e+00
2.467012787255470574e+00
2.311195532090212890e+00
2.311195532090212890e+00
2.244255989257484707e+00
2.244255989257484707e+00
2.321508346812341639e+00
2.321508346812341639e+00
2.321508346812341639e+00
2.495513657032990551e+00
2.495513657032990551e+00
2.528327158421582510e+00
2.528327158421582510e+00
2.338946378978850937e+00
2.338946378978850937e+00
2.130065004425183872e+00
2.130065004425183872e+00
2.135877681814020157e+00
2.135877681814020157e+00
2.202629718924527857e+00
2.202629718924527857e+00
2.146940519425031280e+00
2.146940519425031280e+00
2.165316080202642990e+00
2.165316080202642990e+00
2.165316080202642990e+00
2.407010956144902014e+00
2.407010956144902014e+00
2.427261574144718992e+00
2.427261574144718992e+00
2.361634571367534630e+00
2.361634571367534630e+00
2.205817316202276945e+00
2.205817316202276945e+00
2.075688344981231115e+00
2.075688344981231115e+00
2.239005829035309869e+00
2.239005829035309869e+00
2.457825006866664719e+00
2.457825006866664719e+00
2.413948667867061193e+00
2.413948667867061193e+00
2.413948667867061193e+00
2.472450453199865894e+00
2.472450453199865894e+00
2.441136997589037794e+00
2.441136997589037794e+00
2.342321481978820064e+00
2.342321481978820064e+00
2.571828485976745071e+00
2.571828485976745071e+00
2.501138828699606353e+00
2.501138828699606353e+00
2.269944273201696561e+00
2.269944273201696561e+00
2.308945463423566213e+00
2.308945463423566213e+00
2.338758873256630455e+00
2.338758873256630455e+00
2.376447523422955843e+00
2.376447523422955843e+00
2.376447523422955843e+00
2.497763725699636783e+00
2.497763725699636783e+00
2.480138187810907002e+00
2.480138187810907002e+00
2.576328623310037536e+00
2.576328623310037536e+00
2.527577135532700581e+00
2.527577135532700581e+00
2.197942075869014911e+00
2.197942075869014911e+00
1.973310220648823554e+00
1.973310220648823554e+00
2.053937681203650278e+00
2.053937681203650278e+00
2.127439924314096675e+00
2.127439924314096675e+00
2.135127658925138228e+00
2.135127658925138228e+00
2.135127658925138228e+00
2.266194158757286470e+00
2.266194158757286470e+00
2.599579332865382675e+00
2.599579332865382675e+00
2.742271187475203931e+00
2.742271187475203931e+00
2.671206518753624248e+00
2.671206518753624248e+00
2.469825373088778253e+00
2.469825373088778253e+00
2.371009857478560967e+00
2.371009857478560967e+00
2.263194067201757864e+00
2.263194067201757864e+00
2.418823816644795066e+00
2.418823816644795066e+00
2.418823816644795066e+00
2.432886745811334794e+00
2.432886745811334794e+00
2.441887020477920167e+00
2.441887020477920167e+00
2.470012878810998735e+00
2.470012878810998735e+00
2.228693014313181120e+00
2.228693014313181120e+00
1.977247840815454571e+00
1.977247840815454571e+00
1.983435529648732043e+00
1.983435529648732043e+00
2.128189947202978605e+00
2.128189947202978605e+00
2.215567613757744247e+00
2.215567613757744247e+00
2.215567613757744247e+00
2.228693014313181120e+00
2.228693014313181120e+00
2.206192327646717910e+00
2.206192327646717910e+00
2.259631458479567812e+00
2.259631458479567812e+00
2.383010223700674501e+00
2.383010223700674501e+00
2.517076815088350905e+00
2.517076815088350905e+00
2.646080751976073397e+00
2.646080751976073397e+00
2.531514755699331598e+00
2.531514755699331598e+00
2.225130405590991067e+00
2.225130405590991067e+00
2.118252143925290376e+00
2.118252143925290376e+00
2.118252143925290376e+00
2.150128116702780368e+00
2.150128116702780368e+00
2.206567339091158875e+00
2.206567339091158875e+00
2.405885921811578676e+00
2.405885921811578676e+00
2.520451918088320475e+00
2.520451918088320475e+00
2.552140385143589540e+00
2.552140385143589540e+00
2.495701162755211033e+00
2.495701162755211033e+00
2.393135532700583212e+00
2.393135532700583212e+00
2.308945463423566213e+00
2.308945463423566213e+00
2.308945463423566213e+00
2.233380657368694511e+00
2.233380657368694511e+00
2.316070680867946319e+00
2.316070680867946319e+00
2.347571642200994901e+00
2.347571642200994901e+00
2.300882717368083696e+00
2.300882717368083696e+00
2.313633106479079604e+00
2.313633106479079604e+00
2.407948484756004870e+00
2.407948484756004870e+00
2.520826929532761884e+00
2.520826929532761884e+00
2.628267708365123578e+00
2.628267708365123578e+00
2.628267708365123578e+00
2.518764366588335690e+00
2.518764366588335690e+00
2.413011139255958781e+00
2.413011139255958781e+00
2.347946653645436310e+00
2.347946653645436310e+00
2.233755668813135031e+00
2.233755668813135031e+00
2.221567796868801015e+00
2.221567796868801015e+00
2.214442579424420909e+00
2.214442579424420909e+00
2.207504867702261730e+00
2.207504867702261730e+00
2.464200201422162451e+00
2.464200201422162451e+00
2.464200201422162451e+00
2.658456129642628341e+00
2.658456129642628341e+00
2.595266701254311137e+00
2.595266701254311137e+00
2.461762627033295736e+00
2.461762627033295736e+00
2.302757774590289408e+00
2.302757774590289408e+00
2.234318185979796478e+00
2.234318185979796478e+00
2.265444135868404540e+00
2.265444135868404540e+00
2.230755577257606870e+00
2.230755577257606870e+00
2.213880062257759462e+00
2.213880062257759462e+00
2.213880062257759462e+00
2.251006195257423848e+00
2.251006195257423848e+00
2.324133426923429280e+00
2.324133426923429280e+00
2.365947202978606612e+00
2.365947202978606612e+00
2.394448072756126589e+00
2.394448072756126589e+00
2.402323313089388623e+00
2.402323313089388623e+00
2.451637318033387469e+00
2.451637318033387469e+00
2.253256263924070080e+00
2.253256263924070080e+00
2.091813837092196593e+00
2.091813837092196593e+00
2.059000335703604190e+00
2.059000335703604190e+00
2.059000335703604190e+00
2.146565507980590315e+00
2.146565507980590315e+00
2.323195898312326424e+00
2.323195898312326424e+00
2.399323221533860018e+00
2.399323221533860018e+00
2.301445234534745587e+00
2.301445234534745587e+00
2.209379924924466998e+00
2.209379924924466998e+00
2.320383312479018745e+00
2.320383312479018745e+00
2.422011413922543710e+00
2.422011413922543710e+00
2.489138462477492819e+00
2.489138462477492819e+00
2.562078188421277325e+00
2.562078188421277325e+00
2.562078188421277325e+00
2.528702169866023475e+00
2.528702169866023475e+00
2.398010681478316641e+00
2.398010681478316641e+00
2.113376995147556947e+00
2.113376995147556947e+00
2.050000061037018817e+00
2.050000061037018817e+00
2.136252693258461566e+00
2.136252693258461566e+00
2.183129123813593253e+00
2.183129123813593253e+00
2.172253791924802613e+00
2.172253791924802613e+00
2.173753837702566916e+00
2.173753837702566916e+00
2.173753837702566916e+00
2.261881527146214044e+00
2.261881527146214044e+00
2.413573656422620228e+00
2.413573656422620228e+00
2.579891232032227588e+00
2.579891232032227588e+00
2.726895718253120382e+00
2.726895718253120382e+00
2.651330912198248235e+00
2.651330912198248235e+00
2.465700247199926753e+00
2.465700247199926753e+00
2.343821527756584366e+00
2.343821527756584366e+00
2.240693380535294654e+00
2.240693380535294654e+00
2.240693380535294654e+00
2.138877773369548763e+00
2.138877773369548763e+00
2.159690908536027187e+00
2.159690908536027187e+00
2.229630542924283532e+00
2.229630542924283532e+00
2.293757499923703591e+00
2.293757499923703591e+00
2.405885921811578676e+00
2.405885921811578676e+00
2.479575670644245999e+00
2.479575670644245999e+00
2.582703817865535711e+00
2.582703817865535711e+00
2.647955809198278665e+00
2.647955809198278665e+00
2.647955809198278665e+00
2.560578142643513466e+00
2.560578142643513466e+00
2.456699972533341381e+00
2.456699972533341381e+00
2.403635853144932444e+00
2.403635853144932444e+00
2.325820978423414065e+00
2.325820978423414065e+00
2.323570909756767389e+00
2.323570909756767389e+00
2.262819055757316900e+00
2.262819055757316900e+00
2.110564409314249268e+00
2.110564409314249268e+00
2.052062623981445011e+00
2.052062623981445011e+00
2.047562486648152102e+00
2.047562486648152102e+00
2.047562486648152102e+00
2.212567522202215642e+00
2.212567522202215642e+00
2.436636860255744885e+00
2.436636860255744885e+00
2.365947202978606612e+00
2.365947202978606612e+00
2.226817957090975852e+00
2.226817957090975852e+00
2.306695394756919981e+00
2.306695394756919981e+00
2.450512283700064131e+00
2.450512283700064131e+00
2.558890591143528681e+00
2.558890591143528681e+00
2.526639606921598169e+00
2.526639606921598169e+00
2.526639606921598169e+00
2.435511825922421991e+00
2.435511825922421991e+00
2.383760246589556875e+00
2.383760246589556875e+00
2.259631458479567812e+00
2.259631458479567812e+00
2.193816949980162967e+00
2.193816949980162967e+00
2.196067018646809643e+00
2.196067018646809643e+00
2.158190862758262885e+00
2.158190862758262885e+00
2.127252418591876193e+00
2.127252418591876193e+00
2.199254615924558287e+00
2.199254615924558287e+00
2.199254615924558287e+00
2.290944914090395912e+00
2.290944914090395912e+00
2.412261116367076408e+00
2.412261116367076408e+00
2.537889950254829774e+00
2.537889950254829774e+00
2.502638874477370656e+00
2.502638874477370656e+00
2.439636951811273491e+00
2.439636951811273491e+00
2.410011047700430176e+00
2.410011047700430176e+00
2.450887295144505096e+00
2.450887295144505096e+00
2.439824457533493973e+00
2.439824457533493973e+00
2.439824457533493973e+00
2.238443311868648422e+00
2.238443311868648422e+00
2.154815759758293314e+00
2.154815759758293314e+00
2.045874935148167761e+00
2.045874935148167761e+00
2.055812738425855546e+00
2.055812738425855546e+00
2.082251045258949329e+00
2.082251045258949329e+00
2.113189489425336465e+00
2.113189489425336465e+00
2.277444502090518075e+00
2.277444502090518075e+00
2.397073152867214230e+00
2.397073152867214230e+00
2.397073152867214230e+00
2.333696218756676100e+00
2.333696218756676100e+00
2.388822901089510786e+00
2.388822901089510786e+00
2.491013519699698087e+00
2.491013519699698087e+00
2.455012421033357040e+00
2.455012421033357040e+00
2.571453474532304107e+00
2.571453474532304107e+00
2.461762627033295736e+00
2.461762627033295736e+00
2.263006561479537382e+00
2.263006561479537382e+00
2.230943082979827352e+00
2.230943082979827352e+00
2.193629444257942485e+00
2.193629444257942485e+00
2.165128574480422063e+00
2.165128574480422063e+00
2.165128574480422063e+00
2.239380840479750834e+00
2.239380840479750834e+00
2.261131504257332114e+00
2.261131504257332114e+00
2.338383861812189490e+00
2.338383861812189490e+00
2.440574480422376347e+00
2.440574480422376347e+00
2.458762535477767130e+00
2.458762535477767130e+00
2.621892513809625402e+00
2.621892513809625402e+00
2.543890133365886541e+00
2.543890133365886541e+00
2.387135349589526001e+00
2.387135349589526001e+00
2.387135349589526001e+00
2.384135258033997840e+00
2.384135258033997840e+00
2.332196172978911797e+00
2.332196172978911797e+00
2.280632099368266719e+00
2.280632099368266719e+00
2.269944273201696561e+00
2.269944273201696561e+00
2.192691915646840073e+00
2.192691915646840073e+00
2.220630268257698603e+00
2.220630268257698603e+00
2.297320108645893644e+00
2.297320108645893644e+00
2.277444502090518075e+00
2.277444502090518075e+00
2.277444502090518075e+00
2.297695120090334608e+00
2.297695120090334608e+00
2.358259468367565059e+00
2.358259468367565059e+00
2.364259651478621826e+00
2.364259651478621826e+00
2.404948393200476264e+00
2.404948393200476264e+00
2.419573839533677440e+00
2.419573839533677440e+00
2.469262855922116806e+00
2.469262855922116806e+00
2.530952238532670151e+00
2.530952238532670151e+00
2.396510635700552783e+00
2.396510635700552783e+00
2.396510635700552783e+00
2.304445326090273749e+00
2.304445326090273749e+00
2.210692464980010374e+00
2.210692464980010374e+00
2.149003082369457029e+00
2.149003082369457029e+00
2.221567796868801015e+00
2.221567796868801015e+00
2.301632740256966070e+00
2.301632740256966070e+00
2.273694387646107540e+00
2.273694387646107540e+00
2.286069765312662039e+00
2.286069765312662039e+00
2.329946104312265120e+00
2.329946104312265120e+00
2.366322214423047576e+00
2.366322214423047576e+00
2.366322214423047576e+00
2.341008941923276243e+00
2.341008941923276243e+00
2.292444959868159771e+00
2.292444959868159771e+00
2.335946287423322332e+00
2.335946287423322332e+00
2.345696584978789634e+00
2.345696584978789634e+00
2.219505233924375265e+00
2.219505233924375265e+00
2.212005005035553751e+00
2.212005005035553751e+00
2.219505233924375265e+00
2.219505233924375265e+00
2.233005645924253102e+00
2.233005645924253102e+00
2.233005645924253102e+00
2.354134342478713116e+00
2.354134342478713116e+00
2.395760612811670409e+00
2.395760612811670409e+00
2.435886837366862956e+00
2.435886837366862956e+00
2.455012421033357040e+00
2.455012421033357040e+00
2.378697592089602519e+00
2.378697592089602519e+00
2.328821069978942226e+00
2.328821069978942226e+00
2.255881344035157721e+00
2.255881344035157721e+00
2.152190679647205673e+00
2.152190679647205673e+00
2.152190679647205673e+00
2.228880520035401602e+00
2.228880520035401602e+00
2.230755577257606870e+00
2.230755577257606870e+00
2.220255256813257638e+00
2.220255256813257638e+00
2.358259468367565059e+00
2.358259468367565059e+00
2.398198187200537124e+00
2.398198187200537124e+00
2.410386059144871140e+00
2.410386059144871140e+00
2.545765190588091809e+00
2.545765190588091809e+00
2.510889126255073656e+00
2.510889126255073656e+00
2.510889126255073656e+00
2.498138737144077748e+00
2.498138737144077748e+00
2.459887569811090469e+00
2.459887569811090469e+00
2.434574297311319135e+00
2.434574297311319135e+00
2.456137455366679934e+00
2.456137455366679934e+00
2.411698599200414961e+00
2.411698599200414961e+00
2.345509079256569152e+00
2.345509079256569152e+00
2.368009765923032361e+00
2.368009765923032361e+00
2.268819238868374111e+00
2.268819238868374111e+00
2.268819238868374111e+00
2.206192327646717910e+00
2.206192327646717910e+00
2.172628803369243577e+00
2.172628803369243577e+00
2.130065004425183872e+00
2.130065004425183872e+00
2.135877681814020157e+00
2.135877681814020157e+00
2.176566423535874595e+00
2.176566423535874595e+00
2.233380657368694511e+00
2.233380657368694511e+00
2.298820154423657947e+00
2.298820154423657947e+00
2.331446150090029423e+00
2.331446150090029423e+00
2.331446150090029423e+00
2.379447614978484449e+00
2.379447614978484449e+00
2.437949400311288706e+00
2.437949400311288706e+00
2.410573564867091623e+00
2.410573564867091623e+00
2.443574571977904952e+00
2.443574571977904952e+00
2.477700613422040732e+00
2.477700613422040732e+00
2.328258552812280335e+00
2.328258552812280335e+00
2.275944456312753772e+00
2.275944456312753772e+00
2.237505783257545566e+00
2.237505783257545566e+00
2.180879055146946577e+00
2.180879055146946577e+00
2.190629352702413879e+00
2.190629352702413879e+00
2.231318094424268317e+00
2.231318094424268317e+00
2.231318094424268317e+00
2.294695028534806447e+00
2.294695028534806447e+00
2.315133152256843907e+00
2.315133152256843907e+00
2.309882992034669069e+00
2.309882992034669069e+00
2.398573198644978088e+00
2.398573198644978088e+00
2.418448805200354101e+00
2.418448805200354101e+00
2.302945280312509890e+00
2.302945280312509890e+00
2.329196081423383191e+00
2.329196081423383191e+00
2.366697225867488541e+00
2.366697225867488541e+00
2.366697225867488541e+00
2.324695944090090727e+00
2.324695944090090727e+00
2.312133060701315301e+00
2.312133060701315301e+00
2.268631733146153184e+00
2.268631733146153184e+00
2.246881069368571904e+00
2.246881069368571904e+00
2.266756675923947917e+00
2.266756675923947917e+00
2.247068575090792386e+00
2.247068575090792386e+00
2.250818689535202921e+00
2.250818689535202921e+00
2.293569994201483109e+00
2.293569994201483109e+00
2.293569994201483109e+00
2.386572832422864110e+00
2.386572832422864110e+00
2.477513107699820250e+00
2.477513107699820250e+00
2.472450453199865894e+00
2.472450453199865894e+00
2.469825373088778253e+00
2.469825373088778253e+00
2.522889492477187634e+00
2.522889492477187634e+00
2.393698049867244659e+00
2.393698049867244659e+00
2.279507065034943825e+00
2.279507065034943825e+00
2.240693380535294654e+00
2.240693380535294654e+00
2.240693380535294654e+00
2.164753563035981099e+00
2.164753563035981099e+00
2.155940794091616652e+00
2.155940794091616652e+00
2.170191228980376863e+00
2.170191228980376863e+00
2.200754661702322146e+00
2.200754661702322146e+00
2.277069490646077110e+00
2.277069490646077110e+00
2.335758781701101849e+00
2.335758781701101849e+00
2.382072695089572090e+00
2.382072695089572090e+00
2.437011871700186294e+00
2.437011871700186294e+00
2.411323587755973996e+00
2.411323587755973996e+00
2.411323587755973996e+00
2.459512558366649504e+00
2.459512558366649504e+00
2.494201116977446731e+00
2.494201116977446731e+00
2.363134617145298488e+00
2.363134617145298488e+00
2.288694845423749680e+00
2.288694845423749680e+00
2.227755485702078264e+00
2.227755485702078264e+00
2.172441297647023095e+00
2.172441297647023095e+00
2.216692648091067142e+00
2.216692648091067142e+00
2.225130405590991067e+00
2.225130405590991067e+00
2.245756035035248566e+00
2.245756035035248566e+00
2.245756035035248566e+00
2.283632190923795324e+00
2.283632190923795324e+00
2.238630817590868904e+00
2.238630817590868904e+00
2.290757408368175430e+00
2.290757408368175430e+00
2.314383129367961978e+00
2.314383129367961978e+00
2.316820703756828248e+00
2.316820703756828248e+00
2.364822168645283273e+00
2.364822168645283273e+00
2.363884640034180418e+00
2.363884640034180418e+00
2.311570543534653854e+00
2.311570543534653854e+00
2.311570543534653854e+00
2.393135532700583212e+00
2.393135532700583212e+00
2.356009399700918827e+00
2.356009399700918827e+00
2.356196905423139309e+00
2.356196905423139309e+00
2.378135074922940628e+00
2.378135074922940628e+00
2.394260567033906106e+00
2.394260567033906106e+00
2.442637043366802097e+00
2.442637043366802097e+00
2.442824549089022579e+00
2.442824549089022579e+00
2.390322946867275089e+00
2.390322946867275089e+00
2.390322946867275089e+00
2.412823633533738299e+00
2.412823633533738299e+00
2.392760521256141804e+00
2.392760521256141804e+00
2.366884731589709023e+00
2.366884731589709023e+00
2.417511276589251690e+00
2.417511276589251690e+00
2.347384136478774419e+00
2.347384136478774419e+00
2.251006195257423848e+00
2.251006195257423848e+00
2.222130314035462462e+00
2.222130314035462462e+00
2.154628254036072832e+00
2.154628254036072832e+00
2.154628254036072832e+00
2.149940610980559885e+00
2.149940610980559885e+00
2.189129306924649576e+00
2.189129306924649576e+00
2.208254890591143660e+00
2.208254890591143660e+00
2.276319467757194737e+00
2.276319467757194737e+00
2.326195989867855030e+00
2.326195989867855030e+00
2.371759880367442896e+00
2.371759880367442896e+00
2.424448988311410869e+00
2.424448988311410869e+00
2.392385509811700839e+00
2.392385509811700839e+00
2.392385509811700839e+00
2.368572283089693808e+00
2.368572283089693808e+00
2.414886196478164049e+00
2.414886196478164049e+00
2.312695577867977192e+00
2.312695577867977192e+00
2.245943540757469048e+00
2.245943540757469048e+00
2.217067659535508550e+00
2.217067659535508550e+00
2.156315805536057617e+00
2.156315805536057617e+00
2.157815851313821920e+00
2.157815851313821920e+00
2.183879146702475182e+00
2.183879146702475182e+00
2.245381023590808045e+00
2.245381023590808045e+00
2.331071138645588459e+00
2.331071138645588459e+00
2.331071138645588459e+00
2.352821802423169739e+00
2.352821802423169739e+00
2.395198095645008962e+00
2.395198095645008962e+00
2.464012695699941968e+00
2.464012695699941968e+00
2.443762077700125435e+00
2.443762077700125435e+00
2.458200018311105683e+00
2.458200018311105683e+00
2.478825647755364070e+00
2.478825647755364070e+00
2.350759239478743989e+00
2.350759239478743989e+00
2.266381664479506952e+00
2.266381664479506952e+00
2.266381664479506952e+00
2.194566972869045340e+00
2.194566972869045340e+00
2.170753746147038310e+00
2.170753746147038310e+00
2.211629993591112786e+00
2.211629993591112786e+00
2.210879970702230857e+00
2.210879970702230857e+00
2.257756401257362544e+00
2.257756401257362544e+00
2.341571459089938134e+00
2.341571459089938134e+00
2.374572466200750576e+00
2.374572466200750576e+00
2.420886379589221260e+00
2.420886379589221260e+00
2.420886379589221260e+00
2.429136631366924259e+00
2.429136631366924259e+00
2.378697592089602519e+00
2.378697592089602519e+00
2.425386516922513280e+00
2.425386516922513280e+00
2.376447523422955843e+00
2.376447523422955843e+00
2.270131778923917043e+00
2.270131778923917043e+00
2.255881344035157721e+00
2.255881344035157721e+00
2.200192144535660699e+00
2.200192144535660699e+00
2.166628620258186366e+00
2.166628620258186366e+00
2.166628620258186366e+00
2.202629718924527857e+00
2.202629718924527857e+00
2.226442945646534444e+00
2.226442945646534444e+00
2.287382305368205859e+00
2.287382305368205859e+00
2.326571001312295994e+00
2.326571001312295994e+00
2.336133793145542814e+00
2.336133793145542814e+00
2.413761162144840711e+00
2.413761162144840711e+00
2.380385143589587305e+00
2.380385143589587305e+00
2.351134250923184954e+00
2.351134250923184954e+00
2.351134250923184954e+00
2.423886471144749422e+00
2.423886471144749422e+00
2.302570268868068482e+00
2.302570268868068482e+00
2.221005279702139568e+00
2.221005279702139568e+00
2.218567705313272853e+00
2.218567705313272853e+00
2.154440748313852350e+00
2.154440748313852350e+00
2.143752922147282192e+00
2.143752922147282192e+00
2.230755577257606870e+00
2.230755577257606870e+00
2.307820429090243319e+00
2.307820429090243319e+00
2.367259743034150432e+00
2.367259743034150432e+00
2.367259743034150432e+00
2.387135349589526001e+00
2.387135349589526001e+00
2.398573198644978088e+00
2.398573198644978088e+00
2.460262581255531433e+00
2.460262581255531433e+00
2.401948301644947659e+00
2.401948301644947659e+00
2.394073061311685624e+00
2.394073061311685624e+00
2.413386150700399746e+00
2.413386150700399746e+00
2.304632831812494231e+00
2.304632831812494231e+00
2.271819330423901828e+00
2.271819330423901828e+00
2.271819330423901828e+00
2.224942899868770141e+00
2.224942899868770141e+00
2.167378643147068740e+00
2.167378643147068740e+00
2.200192144535660699e+00
2.200192144535660699e+00
2.237693288979766049e+00
2.237693288979766049e+00
2.295070039979247412e+00
2.295070039979247412e+00
2.353009308145390222e+00
2.353009308145390222e+00
2.383947752311777357e+00
2.383947752311777357e+00
2.432699240089114312e+00
2.432699240089114312e+00
2.432699240089114312e+00
2.445637134922330258e+00
2.445637134922330258e+00
2.393885555589465142e+00
2.393885555589465142e+00
2.420886379589221260e+00
2.420886379589221260e+00
2.389197912533951751e+00
2.389197912533951751e+00
2.268819238868374111e+00
2.268819238868374111e+00
2.247068575090792386e+00
2.247068575090792386e+00
2.180504043702505612e+00
2.180504043702505612e+00
2.158190862758262885e+00
2.158190862758262885e+00
2.158190862758262885e+00
2.206192327646717910e+00
2.206192327646717910e+00
2.214817590868861874e+00
2.214817590868861874e+00
2.254193792535172935e+00
2.254193792535172935e+00
2.308195440534684284e+00
2.308195440534684284e+00
2.344196539201025331e+00
2.344196539201025331e+00
2.417511276589251690e+00
2.417511276589251690e+00
2.424261482589190386e+00
2.424261482589190386e+00
2.385447798089541660e+00
2.385447798089541660e+00
2.448074709311197417e+00
2.448074709311197417e+00
2.448074709311197417e+00
2.370447340311899076e+00
2.370447340311899076e+00
2.299945188756981285e+00
2.299945188756981285e+00
2.278569536423841413e+00
2.278569536423841413e+00
2.196817041535691573e+00
2.196817041535691573e+00
2.169816217535935454e+00
2.169816217535935454e+00
2.196629535813471090e+00
2.196629535813471090e+00
2.212380016479995160e+00
2.212380016479995160e+00
2.279694570757164307e+00
2.279694570757164307e+00
2.341196447645496725e+00
2.341196447645496725e+00
2.341196447645496725e+00
2.382635212256233537e+00
2.382635212256233537e+00
2.445262123477889293e+00
2.445262123477889293e+00
2.407198461867122496e+00
2.407198461867122496e+00
2.384322763756218322e+00
2.384322763756218322e+00
2.414511185033723084e+00
2.414511185033723084e+00
2.297320108645893644e+00
2.297320108645893644e+00
2.238818323313089387e+00
2.238818323313089387e+00
2.203192236091189304e+00
2.203192236091189304e+00
2.155190771202734279e+00
2.155190771202734279e+00
2.155190771202734279e+00
2.185754203924680450e+00
2.185754203924680450e+00
2.212567522202215642e+00
2.212567522202215642e+00
2.264506607257301685e+00
2.264506607257301685e+00
2.347946653645436310e+00
2.347946653645436310e+00
2.375134983367412023e+00
2.375134983367412023e+00
2.392198004089480357e+00
2.392198004089480357e+00
2.424448988311410869e+00
2.424448988311410869e+00
2.375134983367412023e+00
2.375134983367412023e+00
2.375134983367412023e+00
2.387697866756187448e+00
2.387697866756187448e+00
2.384697775200659287e+00
2.384697775200659287e+00
2.276694479201635701e+00
2.276694479201635701e+00
2.258881435590685438e+00
2.258881435590685438e+00
2.228130497146519229e+00
2.228130497146519229e+00
2.209379924924466998e+00
2.209379924924466998e+00
2.235818231757560781e+00
2.235818231757560781e+00
2.250443678090761956e+00
2.250443678090761956e+00
2.250443678090761956e+00
2.305007843256935196e+00
2.305007843256935196e+00
2.356571916867580274e+00
2.356571916867580274e+00
2.365384685811944721e+00
2.365384685811944721e+00
2.426136539811395654e+00
2.426136539811395654e+00
2.426511551255836618e+00
2.426511551255836618e+00
2.379447614978484449e+00
2.379447614978484449e+00
2.426886562700277583e+00
2.426886562700277583e+00
2.361634571367534630e+00
2.361634571367534630e+00
2.361634571367534630e+00
2.266569170201727434e+00
2.266569170201727434e+00
2.240130863368633207e+00
2.240130863368633207e+00
2.167566148869289222e+00
2.167566148869289222e+00
2.146002990813928868e+00
2.146002990813928868e+00
2.189691824091311467e+00
2.189691824091311467e+00
2.219692739646595747e+00
2.219692739646595747e+00
2.303695303201391820e+00
2.303695303201391820e+00
2.354696859645375007e+00
2.354696859645375007e+00
2.354696859645375007e+00
2.372322397534104788e+00
2.372322397534104788e+00
2.434574297311319135e+00
2.434574297311319135e+00
2.423698965422528495e+00
2.423698965422528495e+00
2.388635395367290304e+00
2.388635395367290304e+00
2.436261848811303921e+00
2.436261848811303921e+00
2.332008667256691314e+00
2.332008667256691314e+00
2.262819055757316900e+00
2.262819055757316900e+00
2.226817957090975852e+00
2.226817957090975852e+00
2.226817957090975852e+00
2.168503677480392078e+00
2.168503677480392078e+00
2.178253975035859380e+00
2.178253975035859380e+00
2.215380108035523765e+00
2.215380108035523765e+00
2.249506149479659545e+00
2.249506149479659545e+00
2.312508072145756710e+00
2.312508072145756710e+00
2.339133884701071420e+00
2.339133884701071420e+00
2.376072511978514878e+00
2.376072511978514878e+00
2.411698599200414961e+00
2.411698599200414961e+00
2.411698599200414961e+00
2.364634662923062791e+00
2.364634662923062791e+00
2.380760155034028269e+00
2.380760155034028269e+00
2.406823450422681532e+00
2.406823450422681532e+00
2.295070039979247412e+00
2.295070039979247412e+00
2.259818964201788294e+00
2.259818964201788294e+00
2.211442487868892304e+00
2.211442487868892304e+00
2.179566515091402756e+00
2.179566515091402756e+00
2.207504867702261730e+00
2.207504867702261730e+00
2.207504867702261730e+00
2.233755668813135031e+00
2.233755668813135031e+00
2.278944547868282378e+00
2.278944547868282378e+00
2.341758964812158617e+00
2.341758964812158617e+00
2.363322122867518971e+00
2.363322122867518971e+00
2.415823725089266905e+00
2.415823725089266905e+00
2.433261757255775315e+00
2.433261757255775315e+00
2.383572740867336393e+00
2.383572740867336393e+00
2.418073793755913137e+00
2.418073793755913137e+00
2.378510086367381593e+00
2.378510086367381593e+00
2.378510086367381593e+00
2.275194433423871843e+00
2.275194433423871843e+00
2.245943540757469048e+00
2.245943540757469048e+00
2.188379284035767647e+00
2.188379284035767647e+00
2.164566057313760616e+00
2.164566057313760616e+00
2.200379650257881181e+00
2.200379650257881181e+00
2.223630359813226764e+00
2.223630359813226764e+00
2.281007110812707683e+00
2.281007110812707683e+00
2.336508804589983779e+00
2.336508804589983779e+00
2.350759239478743989e+00
2.350759239478743989e+00
2.415073702200384531e+00
2.415073702200384531e+00
2.405698416089358194e+00
2.405698416089358194e+00
2.405698416089358194e+00
2.371947386089663379e+00
2.371947386089663379e+00
2.422198919644764192e+00
2.422198919644764192e+00
2.328446058534500818e+00
2.328446058534500818e+00
2.251756218146305777e+00
2.251756218146305777e+00
2.229818048646504014e+00
2.229818048646504014e+00
2.174128849147007880e+00
2.174128849147007880e+00
2.186129215369121415e+00
2.186129215369121415e+00
2.218192693868831444e+00
2.218192693868831444e+00
2.218192693868831444e+00
2.241818414868617992e+00
2.241818414868617992e+00
2.302945280312509890e+00
2.302945280312509890e+00
2.348321665089877275e+00
2.348321665089877275e+00
