2.237693288979766049e+00
2.170753746147038310e+00
2.170753746147038310e+00
2.170753746147038310e+00
2.155565782647175688e+00
2.155565782647175688e+00
2.155565782647175688e+00
2.203942258980071234e+00
2.203942258980071234e+00
2.203942258980071234e+00
2.203942258980071234e+00
2.226255439924313961e+00
2.226255439924313961e+00
2.226255439924313961e+00
2.299757683034760802e+00
2.299757683034760802e+00
2.299757683034760802e+00
2.348134159367656792e+00
2.348134159367656792e+00
2.348134159367656792e+00
2.348134159367656792e+00
2.361822077089755112e+00
2.361822077089755112e+00
2.361822077089755112e+00
2.420886379589221260e+00
2.420886379589221260e+00
2.420886379589221260e+00
2.401948301644947659e+00
2.401948301644947659e+00
2.401948301644947659e+00
2.401948301644947659e+00
2.361072054200873183e+00
2.361072054200873183e+00
2.361072054200873183e+00
2.423136448255867048e+00
2.423136448255867048e+00
2.423136448255867048e+00
2.321695852534562121e+00
2.321695852534562121e+00
2.321695852534562121e+00
2.321695852534562121e+00
2.260381481368449741e+00
2.260381481368449741e+00
2.260381481368449741e+00
2.229255531479842567e+00
2.229255531479842567e+00
2.229255531479842567e+00
2.229255531479842567e+00
2.165316080202642990e+00
2.165316080202642990e+00
2.165316080202642990e+00
2.177691457869197489e+00
2.177691457869197489e+00
2.177691457869197489e+00
2.211817499313333268e+00
2.211817499313333268e+00
2.211817499313333268e+00
2.247443586535233351e+00
2.247443586535233351e+00
2.247443586535233351e+00
2.247443586535233351e+00
2.325633472701193583e+00
2.325633472701193583e+00
2.325633472701193583e+00
2.358821985534226506e+00
2.358821985534226506e+00
2.358821985534226506e+00
2.358821985534226506e+00
2.387697866756187448e+00
2.387697866756187448e+00
2.387697866756187448e+00
2.436449354533524403e+00
2.436449354533524403e+00
2.436449354533524403e+00
2.393698049867244659e+00
2.393698049867244659e+00
2.393698049867244659e+00
2.393698049867244659e+00
2.390135441145054607e+00
2.390135441145054607e+00
2.390135441145054607e+00
2.414511185033723084e+00
2.414511185033723084e+00
2.414511185033723084e+00
2.283444685201574842e+00
2.283444685201574842e+00
2.283444685201574842e+00
2.242380932035279439e+00
2.242380932035279439e+00
2.242380932035279439e+00
2.242380932035279439e+00
2.193254432813501520e+00
2.193254432813501520e+00
2.193254432813501520e+00
2.147128025147251762e+00
2.147128025147251762e+00
2.147128025147251762e+00
2.192316904202398664e+00
2.192316904202398664e+00
2.192316904202398664e+00
2.218192693868831444e+00
2.218192693868831444e+00
2.218192693868831444e+00
2.272944364757225166e+00
2.272944364757225166e+00
2.272944364757225166e+00
2.349071687978759204e+00
2.349071687978759204e+00
2.349071687978759204e+00
2.366509720145268059e+00
2.366509720145268059e+00
2.422386425366985119e+00
2.422386425366985119e+00
2.422386425366985119e+00
2.450887295144505096e+00
2.450887295144505096e+00
2.450887295144505096e+00
2.450887295144505096e+00
2.384885280922879769e+00
2.384885280922879769e+00
2.384885280922879769e+00
2.418823816644795066e+00
2.418823816644795066e+00
2.418823816644795066e+00
2.384322763756218322e+00
2.384322763756218322e+00
2.384322763756218322e+00
2.384322763756218322e+00
2.263569078646198829e+00
2.263569078646198829e+00
2.263569078646198829e+00
2.234130680257575996e+00
2.234130680257575996e+00
2.234130680257575996e+00
2.173753837702566916e+00
2.173753837702566916e+00
2.173753837702566916e+00
2.146190496536149350e+00
2.146190496536149350e+00
2.146190496536149350e+00
2.191754387035737217e+00
2.191754387035737217e+00
2.191754387035737217e+00
2.191754387035737217e+00
2.213692556535538980e+00
2.213692556535538980e+00
2.213692556535538980e+00
2.286632282479323930e+00
2.286632282479323930e+00
2.286632282479323930e+00
2.348134159367656792e+00
2.348134159367656792e+00
2.348134159367656792e+00
2.348134159367656792e+00
2.362009582811975594e+00
2.362009582811975594e+00
2.362009582811975594e+00
2.426136539811395654e+00
2.426136539811395654e+00
2.426136539811395654e+00
2.422948942533646566e+00
2.422948942533646566e+00
2.422948942533646566e+00
2.422948942533646566e+00
2.371197363200781449e+00
2.371197363200781449e+00
2.371197363200781449e+00
2.430261665700247153e+00
2.430261665700247153e+00
2.430261665700247153e+00
2.338571367534409973e+00
2.338571367534409973e+00
2.338571367534409973e+00
2.250256172368541474e+00
2.250256172368541474e+00
2.250256172368541474e+00
2.250256172368541474e+00
2.223255348368785356e+00
2.223255348368785356e+00
2.223255348368785356e+00
2.156878322702719064e+00
2.156878322702719064e+00
2.156878322702719064e+00
2.158378368480483367e+00
2.158378368480483367e+00
2.158378368480483367e+00
2.158378368480483367e+00
2.207879879146702695e+00
2.207879879146702695e+00
2.207879879146702695e+00
2.236943266090884119e+00
2.236943266090884119e+00
2.236943266090884119e+00
2.312508072145756710e+00
2.312508072145756710e+00
2.312508072145756710e+00
2.312508072145756710e+00
2.355821893978697901e+00
2.355821893978697901e+00
2.355821893978697901e+00
2.377947569200720146e+00
2.377947569200720146e+00
2.377947569200720146e+00
2.442637043366802097e+00
2.442637043366802097e+00
2.442637043366802097e+00
2.442637043366802097e+00
2.408135990478225352e+00
2.408135990478225352e+00
2.408135990478225352e+00
2.383010223700674501e+00
2.383010223700674501e+00
2.383010223700674501e+00
2.383010223700674501e+00
2.430824182866909045e+00
2.430824182866909045e+00
2.430824182866909045e+00
2.304632831812494231e+00
2.304632831812494231e+00
2.304632831812494231e+00
2.239943357646412725e+00
2.239943357646412725e+00
2.239943357646412725e+00
2.239943357646412725e+00
2.205629810480056463e+00
2.205629810480056463e+00
2.205629810480056463e+00
2.153128208258308529e+00
2.153128208258308529e+00
2.153128208258308529e+00
2.178441480758079862e+00
2.178441480758079862e+00
2.178441480758079862e+00
2.178441480758079862e+00
2.208817407757805107e+00
2.208817407757805107e+00
2.208817407757805107e+00
2.256256355479598685e+00
2.256256355479598685e+00
2.256256355479598685e+00
2.331633655812249906e+00
2.331633655812249906e+00
2.331633655812249906e+00
2.355071871089815971e+00
2.355071871089815971e+00
2.355071871089815971e+00
2.355071871089815971e+00
2.392760521256141804e+00
2.392760521256141804e+00
2.392760521256141804e+00
2.437011871700186294e+00
2.437011871700186294e+00
2.437011871700186294e+00
2.380572649311807787e+00
2.380572649311807787e+00
2.380572649311807787e+00
2.380572649311807787e+00
2.403823358867152926e+00
2.403823358867152926e+00
2.403823358867152926e+00
2.407760979033784388e+00
2.407760979033784388e+00
2.407760979033784388e+00
2.275756950590533290e+00
2.275756950590533290e+00
2.275756950590533290e+00
2.275756950590533290e+00
2.237505783257545566e+00
2.237505783257545566e+00
2.237505783257545566e+00
2.174878872035889810e+00
2.174878872035889810e+00
2.174878872035889810e+00
2.137377727591784460e+00
2.137377727591784460e+00
2.137377727591784460e+00
2.137377727591784460e+00
2.186316721091342341e+00
2.186316721091342341e+00
2.186316721091342341e+00
2.208442396313364142e+00
2.208442396313364142e+00
2.208442396313364142e+00
2.267694204535050773e+00
2.267694204535050773e+00
2.267694204535050773e+00
2.267694204535050773e+00
2.346821619312112972e+00
2.346821619312112972e+00
2.346821619312112972e+00
2.372134891811884305e+00
2.372134891811884305e+00
2.372134891811884305e+00
2.440011963255714900e+00
2.440011963255714900e+00
2.440011963255714900e+00
2.440011963255714900e+00
2.445262123477889293e+00
2.445262123477889293e+00
2.445262123477889293e+00
2.380760155034028269e+00
2.380760155034028269e+00
2.380760155034028269e+00
2.380760155034028269e+00
2.432136722922452865e+00
2.432136722922452865e+00
2.432136722922452865e+00
2.364634662923062791e+00
2.364634662923062791e+00
2.364634662923062791e+00
2.255693838312936794e+00
2.255693838312936794e+00
2.255693838312936794e+00
2.255693838312936794e+00
2.230755577257606870e+00
2.230755577257606870e+00
2.230755577257606870e+00
2.166816125980407293e+00
2.166816125980407293e+00
2.166816125980407293e+00
2.152003173924985191e+00
2.152003173924985191e+00
2.152003173924985191e+00
2.152003173924985191e+00
2.201317178868984037e+00
2.201317178868984037e+00
2.201317178868984037e+00
2.215192602313302839e+00
2.215192602313302839e+00
2.215192602313302839e+00
2.295445051423688376e+00
2.295445051423688376e+00
2.295445051423688376e+00
2.295445051423688376e+00
2.352071779534287366e+00
2.352071779534287366e+00
2.352071779534287366e+00
2.365947202978606612e+00
2.365947202978606612e+00
2.365947202978606612e+00
2.430824182866909045e+00
2.430824182866909045e+00
2.430824182866909045e+00
2.430824182866909045e+00
2.420698873867000778e+00
2.420698873867000778e+00
2.420698873867000778e+00
2.380385143589587305e+00
2.380385143589587305e+00
2.380385143589587305e+00
2.450887295144505096e+00
2.450887295144505096e+00
2.450887295144505096e+00
2.450887295144505096e+00
2.341008941923276243e+00
2.341008941923276243e+00
2.341008941923276243e+00
2.254756309701834383e+00
2.254756309701834383e+00
2.254756309701834383e+00
2.219880245368816230e+00
2.219880245368816230e+00
2.219880245368816230e+00
2.219880245368816230e+00
2.155940794091616652e+00
2.155940794091616652e+00
2.155940794091616652e+00
2.172441297647023095e+00
2.172441297647023095e+00
2.172441297647023095e+00
2.213880062257759462e+00
2.213880062257759462e+00
2.213880062257759462e+00
2.213880062257759462e+00
2.244255989257484707e+00
2.244255989257484707e+00
2.244255989257484707e+00
2.318695760979033516e+00
2.318695760979033516e+00
2.318695760979033516e+00
2.351696768089846401e+00
2.351696768089846401e+00
2.351696768089846401e+00
2.351696768089846401e+00
2.382635212256233537e+00
2.382635212256233537e+00
2.382635212256233537e+00
2.438324411755729670e+00
2.438324411755729670e+00
2.438324411755729670e+00
2.438324411755729670e+00
2.390135441145054607e+00
2.390135441145054607e+00
2.390135441145054607e+00
2.388072878200628413e+00
2.388072878200628413e+00
2.388072878200628413e+00
2.427449079866939474e+00
2.427449079866939474e+00
2.427449079866939474e+00
2.427449079866939474e+00
2.281382122257148648e+00
2.281382122257148648e+00
2.281382122257148648e+00
2.215192602313302839e+00
2.215192602313302839e+00
2.215192602313302839e+00
2.205629810480056463e+00
2.205629810480056463e+00
2.205629810480056463e+00
2.148253059480575100e+00
2.148253059480575100e+00
2.148253059480575100e+00
2.148253059480575100e+00
2.181254066591387542e+00
2.181254066591387542e+00
2.181254066591387542e+00
2.203004730368968822e+00
2.203004730368968822e+00
2.203004730368968822e+00
2.257381389812921579e+00
2.257381389812921579e+00
2.257381389812921579e+00
2.257381389812921579e+00
2.333883724478896582e+00
2.333883724478896582e+00
2.333883724478896582e+00
2.357509445478682686e+00
2.357509445478682686e+00
2.357509445478682686e+00
2.413198644978179264e+00
2.413198644978179264e+00
2.413198644978179264e+00
2.413198644978179264e+00
2.443199560533463544e+00
2.443199560533463544e+00
2.443199560533463544e+00
2.385072786645100695e+00
2.385072786645100695e+00
2.385072786645100695e+00
2.422573931089205601e+00
2.422573931089205601e+00
2.422573931089205601e+00
2.422573931089205601e+00
2.403635853144932444e+00
2.403635853144932444e+00
2.403635853144932444e+00
2.286444776757103448e+00
2.286444776757103448e+00
2.286444776757103448e+00
2.246693563646351421e+00
2.246693563646351421e+00
2.246693563646351421e+00
2.246693563646351421e+00
2.173378826258125951e+00
2.173378826258125951e+00
2.173378826258125951e+00
2.142627887813959298e+00
2.142627887813959298e+00
2.142627887813959298e+00
2.198879604480116878e+00
2.198879604480116878e+00
2.198879604480116878e+00
2.198879604480116878e+00
2.220817773979919085e+00
2.220817773979919085e+00
2.220817773979919085e+00
2.287569811090426342e+00
2.287569811090426342e+00
2.287569811090426342e+00
2.346259102145451525e+00
2.346259102145451525e+00
2.346259102145451525e+00
2.346259102145451525e+00
2.358821985534226506e+00
2.358821985534226506e+00
2.358821985534226506e+00
2.427074068422498510e+00
2.427074068422498510e+00
2.427074068422498510e+00
2.431011688589129527e+00
2.431011688589129527e+00
2.431011688589129527e+00
2.431011688589129527e+00
2.370634846034120002e+00
2.370634846034120002e+00
2.370634846034120002e+00
2.424073976866969904e+00
2.424073976866969904e+00
2.424073976866969904e+00
2.344196539201025331e+00
2.344196539201025331e+00
2.344196539201025331e+00
2.344196539201025331e+00
2.257006378368480615e+00
2.257006378368480615e+00
2.257006378368480615e+00
2.230005554368724940e+00
2.230005554368724940e+00
2.230005554368724940e+00
2.164566057313760616e+00
2.164566057313760616e+00
2.164566057313760616e+00
2.164566057313760616e+00
2.158378368480483367e+00
2.158378368480483367e+00
2.158378368480483367e+00
2.203192236091189304e+00
2.203192236091189304e+00
2.203192236091189304e+00
2.226255439924313961e+00
2.226255439924313961e+00
2.226255439924313961e+00
2.226255439924313961e+00
2.302382763145847999e+00
2.302382763145847999e+00
2.302382763145847999e+00
2.352821802423169739e+00
2.352821802423169739e+00
2.352821802423169739e+00
2.352821802423169739e+00
2.382447706534013054e+00
2.382447706534013054e+00
2.382447706534013054e+00
2.444887112033448329e+00
2.444887112033448329e+00
2.444887112033448329e+00
2.415448713644825496e+00
2.415448713644825496e+00
2.415448713644825496e+00
2.415448713644825496e+00
2.385822809533982625e+00
2.385822809533982625e+00
2.385822809533982625e+00
2.438324411755729670e+00
2.438324411755729670e+00
2.438324411755729670e+00
2.317945738090151586e+00
2.317945738090151586e+00
2.317945738090151586e+00
2.317945738090151586e+00
2.250068666646320992e+00
2.250068666646320992e+00
2.250068666646320992e+00
2.207129856257820322e+00
2.207129856257820322e+00
2.207129856257820322e+00
2.146378002258369833e+00
2.146378002258369833e+00
2.146378002258369833e+00
2.146378002258369833e+00
2.161753471480452937e+00
2.161753471480452937e+00
2.161753471480452937e+00
2.185566698202459968e+00
2.185566698202459968e+00
2.185566698202459968e+00
2.228880520035401602e+00
2.228880520035401602e+00
2.228880520035401602e+00
2.228880520035401602e+00
2.302195257423627517e+00
2.302195257423627517e+00
2.302195257423627517e+00
2.329008575701162709e+00
2.329008575701162709e+00
2.329008575701162709e+00
2.376260017700735361e+00
2.376260017700735361e+00
2.376260017700735361e+00
2.376260017700735361e+00
2.438886928922391562e+00
2.438886928922391562e+00
2.438886928922391562e+00
2.411511093478194478e+00
2.411511093478194478e+00
2.411511093478194478e+00
2.427636585589159957e+00
2.427636585589159957e+00
2.427636585589159957e+00
2.427636585589159957e+00
2.430074159978026671e+00
2.430074159978026671e+00
2.430074159978026671e+00
2.293569994201483109e+00
2.293569994201483109e+00
2.293569994201483109e+00
2.293569994201483109e+00
2.253443769646290562e+00
2.253443769646290562e+00
2.253443769646290562e+00
2.209567430646687480e+00
2.209567430646687480e+00
2.209567430646687480e+00
2.166253608813745402e+00
2.166253608813745402e+00
2.166253608813745402e+00
2.166253608813745402e+00
2.201692190313425002e+00
2.201692190313425002e+00
2.201692190313425002e+00
2.215005096591082356e+00
2.215005096591082356e+00
2.215005096591082356e+00
2.271819330423901828e+00
2.271819330423901828e+00
2.271819330423901828e+00
2.271819330423901828e+00
2.341008941923276243e+00
2.341008941923276243e+00
2.341008941923276243e+00
2.360322031311990809e+00
2.360322031311990809e+00
2.360322031311990809e+00
2.419573839533677440e+00
2.419573839533677440e+00
2.419573839533677440e+00
2.419573839533677440e+00
2.438324411755729670e+00
2.438324411755729670e+00
2.438324411755729670e+00
2.373822443311869090e+00
2.373822443311869090e+00
2.373822443311869090e+00
2.415636219367045978e+00
2.415636219367045978e+00
2.415636219367045978e+00
2.415636219367045978e+00
2.369509811700796664e+00
2.369509811700796664e+00
2.369509811700796664e+00
2.259443952757347329e+00
2.259443952757347329e+00
2.259443952757347329e+00
2.230380565813165905e+00
2.230380565813165905e+00
2.230380565813165905e+00
2.230380565813165905e+00
2.166066103091524919e+00
2.166066103091524919e+00
2.166066103091524919e+00
2.143752922147282192e+00
2.143752922147282192e+00
2.143752922147282192e+00
2.196067018646809643e+00
2.196067018646809643e+00
2.196067018646809643e+00
2.196067018646809643e+00
2.213317545091097571e+00
2.213317545091097571e+00
2.213317545091097571e+00
2.288694845423749680e+00
2.288694845423749680e+00
2.288694845423749680e+00
2.288694845423749680e+00
2.343821527756584366e+00
2.343821527756584366e+00
2.343821527756584366e+00
2.359947019867549844e+00
2.359947019867549844e+00
2.359947019867549844e+00
2.426699056978057101e+00
2.426699056978057101e+00
2.426699056978057101e+00
2.426699056978057101e+00
2.425761528366954689e+00
2.425761528366954689e+00
2.425761528366954689e+00
2.377760063478499664e+00
2.377760063478499664e+00
2.377760063478499664e+00
2.440949491866817311e+00
2.440949491866817311e+00
2.440949491866817311e+00
2.440949491866817311e+00
2.334633747367778511e+00
2.334633747367778511e+00
2.334633747367778511e+00
2.255131321146275347e+00
2.255131321146275347e+00
2.255131321146275347e+00
2.229255531479842567e+00
2.229255531479842567e+00
2.229255531479842567e+00
2.159128391369365740e+00
2.159128391369365740e+00
2.159128391369365740e+00
2.159128391369365740e+00
2.166253608813745402e+00
2.166253608813745402e+00
2.166253608813745402e+00
2.201129673146763555e+00
2.201129673146763555e+00
2.201129673146763555e+00
2.239943357646412725e+00
2.239943357646412725e+00
2.239943357646412725e+00
2.239943357646412725e+00
2.317195715201269657e+00
2.317195715201269657e+00
2.317195715201269657e+00
2.360509537034211291e+00
2.360509537034211291e+00
2.360509537034211291e+00
2.381510177922910199e+00
2.381510177922910199e+00
2.381510177922910199e+00
2.381510177922910199e+00
2.442262031922361132e+00
2.442262031922361132e+00
2.442262031922361132e+00
2.398198187200537124e+00
2.398198187200537124e+00
2.398198187200537124e+00
2.389010406811731269e+00
2.389010406811731269e+00
2.389010406811731269e+00
2.389010406811731269e+00
2.422573931089205601e+00
2.422573931089205601e+00
2.422573931089205601e+00
2.300320200201422249e+00
2.300320200201422249e+00
2.300320200201422249e+00
2.248943632312997654e+00
2.248943632312997654e+00
2.248943632312997654e+00
2.248943632312997654e+00
2.203754753257850751e+00
2.203754753257850751e+00
2.203754753257850751e+00
2.143377910702841227e+00
2.143377910702841227e+00
2.143377910702841227e+00
2.179191503646961792e+00
2.179191503646961792e+00
2.179191503646961792e+00
2.179191503646961792e+00
2.207692373424482213e+00
2.207692373424482213e+00
2.207692373424482213e+00
2.269569261757255596e+00
2.269569261757255596e+00
2.269569261757255596e+00
2.343634022034363884e+00
2.343634022034363884e+00
2.343634022034363884e+00
2.343634022034363884e+00
2.358821985534226506e+00
2.358821985534226506e+00
2.358821985534226506e+00
2.404760887478255782e+00
2.404760887478255782e+00
2.404760887478255782e+00
2.404760887478255782e+00
2.449387249366740793e+00
2.449387249366740793e+00
2.449387249366740793e+00
2.385822809533982625e+00
2.385822809533982625e+00
2.385822809533982625e+00
2.413386150700399746e+00
2.413386150700399746e+00
2.413386150700399746e+00
2.396510635700552783e+00
2.396510635700552783e+00
2.396510635700552783e+00
2.396510635700552783e+00
2.268631733146153184e+00
2.268631733146153184e+00
2.268631733146153184e+00
2.235630726035340299e+00
2.235630726035340299e+00
2.235630726035340299e+00
2.235630726035340299e+00
2.181816583758049433e+00
2.181816583758049433e+00
2.181816583758049433e+00
2.152003173924985191e+00
2.152003173924985191e+00
2.152003173924985191e+00
2.196254524369030126e+00
2.196254524369030126e+00
2.196254524369030126e+00
2.196254524369030126e+00
2.212192510757774677e+00
2.212192510757774677e+00
2.212192510757774677e+00
2.279319559312723342e+00
2.279319559312723342e+00
2.279319559312723342e+00
2.343821527756584366e+00
2.343821527756584366e+00
2.343821527756584366e+00
2.365947202978606612e+00
2.365947202978606612e+00
2.365947202978606612e+00
2.365947202978606612e+00
2.428386608478041886e+00
2.428386608478041886e+00
2.428386608478041886e+00
2.430824182866909045e+00
2.430824182866909045e+00
2.430824182866909045e+00
2.430824182866909045e+00
2.373447431867427682e+00
2.373447431867427682e+00
2.373447431867427682e+00
2.427636585589159957e+00
2.427636585589159957e+00
2.427636585589159957e+00
2.350196722312082542e+00
2.350196722312082542e+00
2.350196722312082542e+00
2.350196722312082542e+00
2.244818506424146598e+00
2.244818506424146598e+00
2.244818506424146598e+00
2.224755394146549659e+00
2.224755394146549659e+00
2.224755394146549659e+00
2.160253425702688634e+00
2.160253425702688634e+00
2.160253425702688634e+00
2.148628070925016065e+00
2.148628070925016065e+00
2.148628070925016065e+00
2.148628070925016065e+00
2.196254524369030126e+00
2.196254524369030126e+00
2.196254524369030126e+00
2.225505417035432032e+00
2.225505417035432032e+00
2.225505417035432032e+00
2.304257820368053267e+00
2.304257820368053267e+00
2.304257820368053267e+00
2.304257820368053267e+00
2.353009308145390222e+00
2.353009308145390222e+00
2.353009308145390222e+00
2.372697408978545752e+00
2.372697408978545752e+00
2.372697408978545752e+00
2.372697408978545752e+00
2.449574755088961275e+00
2.449574755088961275e+00
2.449574755088961275e+00
2.426324045533616136e+00
2.426324045533616136e+00
2.426324045533616136e+00
2.386572832422864110e+00
2.386572832422864110e+00
2.386572832422864110e+00
2.386572832422864110e+00
2.439636951811273491e+00
2.439636951811273491e+00
2.439636951811273491e+00
2.318883266701254442e+00
2.318883266701254442e+00
2.318883266701254442e+00
2.250818689535202921e+00
2.250818689535202921e+00
2.250818689535202921e+00
2.250818689535202921e+00
2.218005188146610962e+00
2.218005188146610962e+00
2.218005188146610962e+00
2.152003173924985191e+00
2.152003173924985191e+00
2.152003173924985191e+00
2.171878780480361648e+00
2.171878780480361648e+00
2.171878780480361648e+00
2.171878780480361648e+00
2.202254707480086449e+00
2.202254707480086449e+00
2.202254707480086449e+00
2.241255897701956545e+00
2.241255897701956545e+00
2.241255897701956545e+00
2.320758323923459709e+00
2.320758323923459709e+00
2.320758323923459709e+00
2.320758323923459709e+00
2.350571733756523507e+00
2.350571733756523507e+00
2.350571733756523507e+00
2.386385326700643628e+00
2.386385326700643628e+00
2.386385326700643628e+00
2.445449629200109776e+00
2.445449629200109776e+00
2.445449629200109776e+00
2.445449629200109776e+00
2.390885464033936536e+00
2.390885464033936536e+00
2.390885464033936536e+00
2.402323313089388623e+00
2.402323313089388623e+00
2.402323313089388623e+00
2.419386333811456957e+00
2.419386333811456957e+00
2.419386333811456957e+00
2.419386333811456957e+00
2.284382213812677254e+00
2.284382213812677254e+00
2.284382213812677254e+00
2.243880977813043742e+00
2.243880977813043742e+00
2.243880977813043742e+00
2.189879329813531950e+00
2.189879329813531950e+00
2.189879329813531950e+00
2.189879329813531950e+00
2.133627613147373925e+00
2.133627613147373925e+00
2.133627613147373925e+00
2.179379009369182274e+00
2.179379009369182274e+00
2.179379009369182274e+00
2.196067018646809643e+00
2.196067018646809643e+00
2.196067018646809643e+00
2.196067018646809643e+00
2.254381298257393418e+00
2.254381298257393418e+00
2.254381298257393418e+00
2.336883816034425188e+00
2.336883816034425188e+00
2.336883816034425188e+00
2.356759422589800756e+00
2.356759422589800756e+00
2.356759422589800756e+00
2.356759422589800756e+00
2.414698690755943566e+00
2.414698690755943566e+00
2.414698690755943566e+00
2.445824640644550740e+00
2.445824640644550740e+00
2.445824640644550740e+00
2.392385509811700839e+00
2.392385509811700839e+00
2.392385509811700839e+00
2.392385509811700839e+00
2.431386700033570492e+00
2.431386700033570492e+00
2.431386700033570492e+00
2.381322672200689716e+00
2.381322672200689716e+00
2.381322672200689716e+00
2.271819330423901828e+00
2.271819330423901828e+00
2.271819330423901828e+00
2.271819330423901828e+00
2.249318643757439062e+00
2.249318643757439062e+00
2.249318643757439062e+00
2.179754020813623683e+00
2.179754020813623683e+00
2.179754020813623683e+00
2.152565691091647082e+00
2.152565691091647082e+00
2.152565691091647082e+00
2.190629352702413879e+00
2.190629352702413879e+00
2.190629352702413879e+00
2.190629352702413879e+00
2.202442213202307375e+00
2.202442213202307375e+00
2.202442213202307375e+00
2.271256813257240381e+00
2.271256813257240381e+00
2.271256813257240381e+00
2.334258735923337547e+00
2.334258735923337547e+00
2.334258735923337547e+00
2.334258735923337547e+00
2.353946836756492633e+00
2.353946836756492633e+00
2.353946836756492633e+00
2.438511917477950597e+00
2.438511917477950597e+00
2.438511917477950597e+00
2.429699148533585706e+00
2.429699148533585706e+00
2.429699148533585706e+00
2.429699148533585706e+00
2.379635120700704931e+00
2.379635120700704931e+00
2.379635120700704931e+00
2.450324777977843649e+00
2.450324777977843649e+00
2.450324777977843649e+00
2.355821893978697901e+00
2.355821893978697901e+00
2.355821893978697901e+00
2.355821893978697901e+00
2.266381664479506952e+00
2.266381664479506952e+00
2.266381664479506952e+00
2.231318094424268317e+00
2.231318094424268317e+00
2.231318094424268317e+00
2.231318094424268317e+00
2.156128299813837135e+00
2.156128299813837135e+00
2.156128299813837135e+00
2.157628345591601438e+00
2.157628345591601438e+00
2.157628345591601438e+00
2.203004730368968822e+00
2.203004730368968822e+00
2.203004730368968822e+00
2.236005737479781263e+00
2.236005737479781263e+00
2.236005737479781263e+00
2.236005737479781263e+00
2.319070772423474924e+00
2.319070772423474924e+00
2.319070772423474924e+00
2.367259743034150432e+00
2.367259743034150432e+00
2.367259743034150432e+00
2.367259743034150432e+00
2.388260383922848895e+00
2.388260383922848895e+00
2.388260383922848895e+00
2.452199835200048916e+00
2.452199835200048916e+00
2.452199835200048916e+00
2.408135990478225352e+00
2.408135990478225352e+00
2.408135990478225352e+00
2.408135990478225352e+00
2.394260567033906106e+00
2.394260567033906106e+00
2.394260567033906106e+00
2.437574388866847741e+00
2.437574388866847741e+00
2.437574388866847741e+00
2.310258003479110034e+00
2.310258003479110034e+00
2.310258003479110034e+00
2.310258003479110034e+00
2.254381298257393418e+00
2.254381298257393418e+00
2.254381298257393418e+00
2.216880153813287624e+00
2.216880153813287624e+00
2.216880153813287624e+00
2.157628345591601438e+00
2.157628345591601438e+00
2.157628345591601438e+00
2.157628345591601438e+00
2.176378917813653668e+00
2.176378917813653668e+00
2.176378917813653668e+00
2.203942258980071234e+00
2.203942258980071234e+00
2.203942258980071234e+00
2.249881160924100509e+00
2.249881160924100509e+00
2.249881160924100509e+00
2.249881160924100509e+00
2.325258461256752618e+00
2.325258461256752618e+00
2.325258461256752618e+00
2.349634205145421095e+00
2.349634205145421095e+00
2.349634205145421095e+00
2.390697958311716054e+00
2.390697958311716054e+00
2.390697958311716054e+00
2.390697958311716054e+00
2.437386883144627259e+00
2.437386883144627259e+00
2.437386883144627259e+00
2.387510361033966966e+00
2.387510361033966966e+00
2.387510361033966966e+00
2.410761070589312105e+00
2.410761070589312105e+00
2.410761070589312105e+00
2.410761070589312105e+00
2.403635853144932444e+00
2.403635853144932444e+00
2.403635853144932444e+00
2.272194341868343237e+00
2.272194341868343237e+00
2.272194341868343237e+00
2.234505691702016961e+00
2.234505691702016961e+00
2.234505691702016961e+00
2.234505691702016961e+00
2.175066377758110736e+00
2.175066377758110736e+00
2.175066377758110736e+00
2.136252693258461566e+00
2.136252693258461566e+00
2.136252693258461566e+00
2.187441755424664791e+00
2.187441755424664791e+00
2.187441755424664791e+00
2.187441755424664791e+00
2.210317453535568966e+00
2.210317453535568966e+00
2.210317453535568966e+00
2.276506973479415219e+00
2.276506973479415219e+00
2.276506973479415219e+00
2.340633930478835278e+00
2.340633930478835278e+00
2.340633930478835278e+00
2.340633930478835278e+00
2.350759239478743989e+00
2.350759239478743989e+00
2.350759239478743989e+00
2.419761345255897922e+00
2.419761345255897922e+00
2.419761345255897922e+00
2.430449171422468080e+00
2.430449171422468080e+00
2.430449171422468080e+00
2.430449171422468080e+00
2.369884823145237629e+00
2.369884823145237629e+00
2.369884823145237629e+00
2.426136539811395654e+00
2.426136539811395654e+00
2.426136539811395654e+00
2.358446974089785542e+00
2.358446974089785542e+00
2.358446974089785542e+00
2.358446974089785542e+00
2.263944090090640238e+00
2.263944090090640238e+00
2.263944090090640238e+00
2.240130863368633207e+00
2.240130863368633207e+00
2.240130863368633207e+00
2.169816217535935454e+00
2.169816217535935454e+00
2.169816217535935454e+00
2.169816217535935454e+00
2.160253425702688634e+00
2.160253425702688634e+00
2.160253425702688634e+00
2.204317270424512643e+00
2.204317270424512643e+00
2.204317270424512643e+00
2.223630359813226764e+00
2.223630359813226764e+00
2.223630359813226764e+00
2.223630359813226764e+00
2.298445142979216982e+00
2.298445142979216982e+00
2.298445142979216982e+00
2.346446607867672007e+00
2.346446607867672007e+00
2.346446607867672007e+00
2.346446607867672007e+00
2.366509720145268059e+00
2.366509720145268059e+00
2.366509720145268059e+00
2.433824274422437206e+00
2.433824274422437206e+00
2.433824274422437206e+00
2.411323587755973996e+00
2.411323587755973996e+00
2.411323587755973996e+00
2.411323587755973996e+00
2.376822534867396808e+00
2.376822534867396808e+00
2.376822534867396808e+00
2.435511825922421991e+00
2.435511825922421991e+00
2.435511825922421991e+00
2.318320749534592551e+00
2.318320749534592551e+00
2.318320749534592551e+00
2.318320749534592551e+00
2.245756035035248566e+00
2.245756035035248566e+00
2.245756035035248566e+00
2.218192693868831444e+00
2.218192693868831444e+00
2.218192693868831444e+00
2.160815942869350526e+00
2.160815942869350526e+00
2.160815942869350526e+00
2.160815942869350526e+00
2.168128666035950669e+00
2.168128666035950669e+00
2.168128666035950669e+00
2.205817316202276945e+00
2.205817316202276945e+00
2.205817316202276945e+00
2.239005829035309869e+00
2.239005829035309869e+00
2.239005829035309869e+00
2.239005829035309869e+00
2.316258186590166801e+00
2.316258186590166801e+00
2.316258186590166801e+00
2.346821619312112972e+00
2.346821619312112972e+00
2.346821619312112972e+00
2.376260017700735361e+00
2.376260017700735361e+00
2.376260017700735361e+00
2.376260017700735361e+00
2.438699423200171079e+00
2.438699423200171079e+00
2.438699423200171079e+00
2.386197820978423145e+00
2.386197820978423145e+00
2.386197820978423145e+00
2.381322672200689716e+00
2.381322672200689716e+00
2.381322672200689716e+00
2.381322672200689716e+00
2.410948576311533031e+00
2.410948576311533031e+00
2.410948576311533031e+00
2.296195074312570750e+00
2.296195074312570750e+00
2.296195074312570750e+00
2.259068941312906365e+00
2.259068941312906365e+00
2.259068941312906365e+00
2.259068941312906365e+00
2.214067567979979945e+00
2.214067567979979945e+00
2.214067567979979945e+00
2.158940885647145258e+00
2.158940885647145258e+00
2.158940885647145258e+00
2.190254341257972914e+00
2.190254341257972914e+00
2.190254341257972914e+00
2.213317545091097571e+00
2.213317545091097571e+00
2.213317545091097571e+00
2.213317545091097571e+00
2.270506790368358452e+00
2.270506790368358452e+00
2.270506790368358452e+00
2.344946562089907705e+00
2.344946562089907705e+00
2.344946562089907705e+00
2.359572008423108880e+00
2.359572008423108880e+00
2.359572008423108880e+00
2.359572008423108880e+00
2.409261024811548246e+00
2.409261024811548246e+00
2.409261024811548246e+00
2.440199468977935382e+00
2.440199468977935382e+00
2.440199468977935382e+00
2.375134983367412023e+00
2.375134983367412023e+00
2.375134983367412023e+00
2.375134983367412023e+00
2.408886013367107282e+00
2.408886013367107282e+00
2.408886013367107282e+00
2.376447523422955843e+00
2.376447523422955843e+00
2.376447523422955843e+00
2.256068849757378203e+00
2.256068849757378203e+00
2.256068849757378203e+00
2.256068849757378203e+00
2.233568163090914993e+00
2.233568163090914993e+00
2.233568163090914993e+00
2.164753563035981099e+00
2.164753563035981099e+00
2.164753563035981099e+00
2.164753563035981099e+00
2.140190313425092139e+00
2.140190313425092139e+00
2.140190313425092139e+00
2.189879329813531950e+00
2.189879329813531950e+00
2.189879329813531950e+00
2.218005188146610962e+00
2.218005188146610962e+00
2.218005188146610962e+00
2.218005188146610962e+00
2.293382488479262626e+00
2.293382488479262626e+00
2.293382488479262626e+00
2.350196722312082542e+00
2.350196722312082542e+00
2.350196722312082542e+00
2.361447065645314147e+00
2.361447065645314147e+00
2.361447065645314147e+00
2.361447065645314147e+00
2.429699148533585706e+00
2.429699148533585706e+00
2.429699148533585706e+00
2.430261665700247153e+00
2.430261665700247153e+00
2.430261665700247153e+00
2.382072695089572090e+00
2.382072695089572090e+00
2.382072695089572090e+00
2.382072695089572090e+00
2.446387157811212187e+00
2.446387157811212187e+00
2.446387157811212187e+00
2.356759422589800756e+00
2.356759422589800756e+00
2.356759422589800756e+00
2.262444044312875935e+00
2.262444044312875935e+00
2.262444044312875935e+00
2.262444044312875935e+00
2.232630634479812137e+00
2.232630634479812137e+00
2.232630634479812137e+00
2.161190954313791490e+00
2.161190954313791490e+00
2.161190954313791490e+00
2.158940885647145258e+00
2.158940885647145258e+00
2.158940885647145258e+00
2.158940885647145258e+00
2.201317178868984037e+00
2.201317178868984037e+00
2.201317178868984037e+00
2.226442945646534444e+00
2.226442945646534444e+00
2.226442945646534444e+00
2.303695303201391820e+00
2.303695303201391820e+00
2.303695303201391820e+00
2.303695303201391820e+00
2.349634205145421095e+00
2.349634205145421095e+00
2.349634205145421095e+00
2.377572557756279181e+00
2.377572557756279181e+00
2.377572557756279181e+00
2.441887020477920167e+00
2.441887020477920167e+00
2.441887020477920167e+00
2.441887020477920167e+00
2.407948484756004870e+00
2.407948484756004870e+00
2.407948484756004870e+00
2.377385052034058699e+00
2.377385052034058699e+00
2.377385052034058699e+00
2.377385052034058699e+00
2.423698965422528495e+00
2.423698965422528495e+00
2.423698965422528495e+00
2.297882625812555535e+00
2.297882625812555535e+00
2.297882625812555535e+00
2.238068300424207457e+00
2.238068300424207457e+00
2.238068300424207457e+00
2.238068300424207457e+00
2.211442487868892304e+00
2.211442487868892304e+00
2.211442487868892304e+00
2.162691000091555793e+00
2.162691000091555793e+00
2.162691000091555793e+00
2.188191778313547164e+00
2.188191778313547164e+00
2.188191778313547164e+00
2.208442396313364142e+00
2.208442396313364142e+00
2.208442396313364142e+00
2.208442396313364142e+00
2.252318735312967224e+00
2.252318735312967224e+00
2.252318735312967224e+00
2.329758598590044638e+00
2.329758598590044638e+00
2.329758598590044638e+00
2.353571825312051669e+00
2.353571825312051669e+00
2.353571825312051669e+00
2.353571825312051669e+00
2.397635670033875677e+00
2.397635670033875677e+00
2.397635670033875677e+00
2.449949766533402684e+00
2.449949766533402684e+00
2.449949766533402684e+00
2.449949766533402684e+00
2.389010406811731269e+00
2.389010406811731269e+00
2.389010406811731269e+00
2.400823267311624321e+00
2.400823267311624321e+00
2.400823267311624321e+00
2.401198278756065729e+00
2.401198278756065729e+00
2.401198278756065729e+00
2.401198278756065729e+00
2.275756950590533290e+00
2.275756950590533290e+00
2.275756950590533290e+00
2.235818231757560781e+00
2.235818231757560781e+00
2.235818231757560781e+00
2.169816217535935454e+00
2.169816217535935454e+00
2.169816217535935454e+00
2.169816217535935454e+00
2.129314981536301499e+00
2.129314981536301499e+00
2.129314981536301499e+00
2.178253975035859380e+00
2.178253975035859380e+00
2.178253975035859380e+00
2.203567247535630269e+00
2.203567247535630269e+00
2.203567247535630269e+00
2.203567247535630269e+00
2.276319467757194737e+00
2.276319467757194737e+00
2.276319467757194737e+00
2.340633930478835278e+00
2.340633930478835278e+00
2.340633930478835278e+00
2.356196905423139309e+00
2.356196905423139309e+00
2.356196905423139309e+00
2.356196905423139309e+00
2.430636677144688562e+00
2.430636677144688562e+00
2.430636677144688562e+00
2.450512283700064131e+00
2.450512283700064131e+00
2.450512283700064131e+00
2.383572740867336393e+00
2.383572740867336393e+00
2.383572740867336393e+00
2.383572740867336393e+00
2.438699423200171079e+00
2.438699423200171079e+00
2.438699423200171079e+00
2.380385143589587305e+00
2.380385143589587305e+00
2.380385143589587305e+00
2.269194250312814631e+00
2.269194250312814631e+00
2.269194250312814631e+00
2.269194250312814631e+00
2.240693380535294654e+00
2.240693380535294654e+00
2.240693380535294654e+00
2.168503677480392078e+00
2.168503677480392078e+00
2.168503677480392078e+00
2.150128116702780368e+00
2.150128116702780368e+00
2.150128116702780368e+00
2.150128116702780368e+00
2.201504684591204519e+00
2.201504684591204519e+00
2.201504684591204519e+00
2.216317636646626177e+00
2.216317636646626177e+00
2.216317636646626177e+00
2.293194982757042144e+00
2.293194982757042144e+00
2.293194982757042144e+00
2.293194982757042144e+00
2.349634205145421095e+00
2.349634205145421095e+00
2.349634205145421095e+00
2.369134800256355700e+00
2.369134800256355700e+00
2.369134800256355700e+00
2.369134800256355700e+00
2.435324320200201509e+00
2.435324320200201509e+00
2.435324320200201509e+00
2.416948759422589799e+00
2.416948759422589799e+00
2.416948759422589799e+00
2.370447340311899076e+00
2.370447340311899076e+00
2.370447340311899076e+00
2.370447340311899076e+00
2.436636860255744885e+00
2.436636860255744885e+00
2.436636860255744885e+00
2.319633289590136371e+00
2.319633289590136371e+00
2.319633289590136371e+00
2.238443311868648422e+00
2.238443311868648422e+00
2.238443311868648422e+00
2.238443311868648422e+00
2.204879787591174090e+00
2.204879787591174090e+00
2.204879787591174090e+00
2.148440565202795582e+00
2.148440565202795582e+00
2.148440565202795582e+00
2.167191137424848257e+00
2.167191137424848257e+00
2.167191137424848257e+00
2.203379741813409787e+00
2.203379741813409787e+00
2.203379741813409787e+00
2.203379741813409787e+00
2.236755760368663637e+00
2.236755760368663637e+00
2.236755760368663637e+00
2.322820886867885459e+00
2.322820886867885459e+00
2.322820886867885459e+00
2.359196996978667915e+00
2.359196996978667915e+00
2.359196996978667915e+00
2.359196996978667915e+00
2.385447798089541660e+00
2.385447798089541660e+00
2.385447798089541660e+00
2.446949674977874079e+00
2.446949674977874079e+00
2.446949674977874079e+00
2.402323313089388623e+00
2.402323313089388623e+00
2.402323313089388623e+00
2.402323313089388623e+00
2.391447981200597983e+00
2.391447981200597983e+00
2.391447981200597983e+00
2.428011597033600921e+00
2.428011597033600921e+00
2.428011597033600921e+00
2.293945005645924073e+00
2.293945005645924073e+00
2.293945005645924073e+00
2.293945005645924073e+00
2.240693380535294654e+00
2.240693380535294654e+00
2.240693380535294654e+00
2.192879421369060555e+00
2.192879421369060555e+00
2.192879421369060555e+00
2.143377910702841227e+00
2.143377910702841227e+00
2.143377910702841227e+00
2.143377910702841227e+00
2.181066560869167059e+00
2.181066560869167059e+00
2.181066560869167059e+00
2.208629902035584625e+00
2.208629902035584625e+00
2.208629902035584625e+00
2.263944090090640238e+00
2.263944090090640238e+00
2.263944090090640238e+00
2.263944090090640238e+00
2.343446516312143402e+00
2.343446516312143402e+00
2.343446516312143402e+00
2.363134617145298488e+00
2.363134617145298488e+00
2.363134617145298488e+00
2.414323679311502602e+00
2.414323679311502602e+00
2.443387066255684470e+00
2.443387066255684470e+00
2.443387066255684470e+00
2.374572466200750576e+00
2.374572466200750576e+00
2.414886196478164049e+00
2.414886196478164049e+00
2.393698049867244659e+00
2.393698049867244659e+00
2.274819421979430434e+00
2.274819421979430434e+00
2.244631000701926116e+00
2.244631000701926116e+00
2.178253975035859380e+00
2.178253975035859380e+00
2.147503036591693171e+00
2.147503036591693171e+00
2.197567064424573946e+00
2.197567064424573946e+00
2.197567064424573946e+00
2.214817590868861874e+00
2.214817590868861874e+00
2.283632190923795324e+00
2.283632190923795324e+00
2.345509079256569152e+00
2.345509079256569152e+00
2.358634479812006024e+00
2.358634479812006024e+00
2.424261482589190386e+00
2.424261482589190386e+00
2.427449079866939474e+00
2.427449079866939474e+00
2.369134800256355700e+00
2.369134800256355700e+00
2.423511459700308013e+00
2.423511459700308013e+00
2.344384044923245813e+00
2.344384044923245813e+00
2.344384044923245813e+00
2.248568620868556689e+00
2.248568620868556689e+00
2.226630451368755370e+00
2.226630451368755370e+00
2.160815942869350526e+00
2.160815942869350526e+00
2.158190862758262885e+00
2.158190862758262885e+00
2.210317453535568966e+00
2.210317453535568966e+00
2.230568071535386387e+00
2.230568071535386387e+00
2.297320108645893644e+00
2.297320108645893644e+00
2.352446790978728330e+00
2.352446790978728330e+00
2.371572374645222414e+00
2.371572374645222414e+00
2.371572374645222414e+00
2.440949491866817311e+00
2.440949491866817311e+00
2.403260841700491479e+00
2.403260841700491479e+00
2.372322397534104788e+00
2.372322397534104788e+00
2.425761528366954689e+00
2.425761528366954689e+00
2.307070406201360946e+00
2.307070406201360946e+00
2.250818689535202921e+00
2.250818689535202921e+00
2.227005462813196335e+00
2.227005462813196335e+00
2.170003723258155937e+00
2.170003723258155937e+00
2.170003723258155937e+00
2.182566606646931362e+00
2.182566606646931362e+00
2.211817499313333268e+00
2.211817499313333268e+00
2.250443678090761956e+00
2.250443678090761956e+00
2.319820795312356854e+00
2.319820795312356854e+00
2.352071779534287366e+00
2.352071779534287366e+00
2.394073061311685624e+00
2.394073061311685624e+00
2.449949766533402684e+00
2.449949766533402684e+00
2.389010406811731269e+00
2.389010406811731269e+00
2.397073152867214230e+00
2.397073152867214230e+00
2.397073152867214230e+00
2.408135990478225352e+00
2.408135990478225352e+00
2.279132053590502860e+00
2.279132053590502860e+00
2.235630726035340299e+00
2.235630726035340299e+00
2.178066469313638454e+00
2.178066469313638454e+00
2.130815027314065802e+00
2.130815027314065802e+00
2.183316629535813735e+00
2.183316629535813735e+00
2.215005096591082356e+00
2.215005096591082356e+00
2.272006836146122755e+00
2.272006836146122755e+00
2.345884090701010116e+00
2.345884090701010116e+00
2.345884090701010116e+00
2.355259376812036454e+00
2.355259376812036454e+00
2.415073702200384531e+00
2.415073702200384531e+00
2.438511917477950597e+00
2.438511917477950597e+00
2.371197363200781449e+00
2.371197363200781449e+00
2.421636402478102745e+00
2.421636402478102745e+00
2.372697408978545752e+00
2.372697408978545752e+00
2.261319009979552597e+00
2.261319009979552597e+00
2.245756035035248566e+00
2.245756035035248566e+00
2.180691549424726094e+00
2.180691549424726094e+00
2.180691549424726094e+00
2.149003082369457029e+00
2.149003082369457029e+00
2.197192052980132537e+00
2.197192052980132537e+00
2.216880153813287624e+00
2.216880153813287624e+00
2.289819879757073018e+00
2.289819879757073018e+00
2.344196539201025331e+00
2.344196539201025331e+00
2.364822168645283273e+00
2.364822168645283273e+00
2.430074159978026671e+00
2.430074159978026671e+00
2.422948942533646566e+00
2.422948942533646566e+00
2.371384868923001932e+00
2.371384868923001932e+00
2.433824274422437206e+00
2.433824274422437206e+00
2.433824274422437206e+00
2.334821253089998994e+00
2.334821253089998994e+00
2.254756309701834383e+00
2.254756309701834383e+00
2.223630359813226764e+00
2.223630359813226764e+00
2.153503219702749494e+00
2.153503219702749494e+00
2.155378276924954761e+00
2.155378276924954761e+00
2.198504593035676358e+00
2.198504593035676358e+00
2.234505691702016961e+00
2.234505691702016961e+00
2.321695852534562121e+00
2.321695852534562121e+00
2.321695852534562121e+00
2.363697134311959935e+00
2.363697134311959935e+00
2.385072786645100695e+00
2.385072786645100695e+00
2.449762260811182202e+00
2.449762260811182202e+00
2.412636127811517817e+00
2.412636127811517817e+00
2.393510544145024177e+00
2.393510544145024177e+00
2.428011597033600921e+00
2.428011597033600921e+00
2.299007660145878429e+00
2.299007660145878429e+00
2.241818414868617992e+00
2.241818414868617992e+00
2.241818414868617992e+00
2.192879421369060555e+00
2.192879421369060555e+00
2.135502670369579192e+00
2.135502670369579192e+00
2.172441297647023095e+00
2.172441297647023095e+00
2.204879787591174090e+00
2.204879787591174090e+00
2.258693929868464956e+00
2.258693929868464956e+00
2.329383587145603673e+00
2.329383587145603673e+00
2.350384228034303025e+00
2.350384228034303025e+00
2.405135898922696747e+00
2.405135898922696747e+00
2.405135898922696747e+00
2.449012237922299828e+00
2.449012237922299828e+00
2.386572832422864110e+00
2.386572832422864110e+00
2.407948484756004870e+00
2.407948484756004870e+00
2.392198004089480357e+00
2.392198004089480357e+00
2.271069307535019899e+00
2.271069307535019899e+00
2.245943540757469048e+00
2.245943540757469048e+00
2.182191595202490397e+00
2.182191595202490397e+00
2.151628162480544670e+00
2.151628162480544670e+00
2.194941984313486305e+00
2.194941984313486305e+00
2.194941984313486305e+00
2.211442487868892304e+00
2.211442487868892304e+00
2.278382030701620931e+00
2.278382030701620931e+00
2.345884090701010116e+00
2.345884090701010116e+00
2.358634479812006024e+00
2.358634479812006024e+00
2.422948942533646566e+00
2.422948942533646566e+00
2.430261665700247153e+00
2.430261665700247153e+00
2.366884731589709023e+00
2.366884731589709023e+00
2.422386425366985119e+00
2.422386425366985119e+00
2.422386425366985119e+00
2.345134067812128187e+00
2.345134067812128187e+00
2.249881160924100509e+00
2.249881160924100509e+00
2.227567979979857782e+00
2.227567979979857782e+00
2.165128574480422063e+00
2.165128574480422063e+00
2.156690816980498582e+00
2.156690816980498582e+00
2.200754661702322146e+00
2.200754661702322146e+00
2.221192785424360050e+00
2.221192785424360050e+00
2.303882808923612302e+00
2.303882808923612302e+00
2.303882808923612302e+00
2.350571733756523507e+00
2.350571733756523507e+00
2.370259834589678594e+00
2.370259834589678594e+00
2.431199194311350009e+00
2.431199194311350009e+00
2.406260933256020085e+00
2.406260933256020085e+00
2.376447523422955843e+00
2.376447523422955843e+00
2.436636860255744885e+00
2.436636860255744885e+00
2.312320566423536228e+00
2.312320566423536228e+00
2.243693472090823260e+00
2.243693472090823260e+00
2.243693472090823260e+00
2.214817590868861874e+00
2.214817590868861874e+00
2.149753105258339403e+00
2.149753105258339403e+00
2.171316263313699757e+00
2.171316263313699757e+00
2.208629902035584625e+00
2.208629902035584625e+00
2.246131046479689974e+00
2.246131046479689974e+00
2.332571184423352761e+00
2.332571184423352761e+00
2.365572191534165203e+00
2.365572191534165203e+00
2.401198278756065729e+00
2.401198278756065729e+00
2.401198278756065729e+00
2.452762352366710363e+00
2.452762352366710363e+00
2.397260658589434712e+00
2.397260658589434712e+00
2.404010864589373409e+00
2.404010864589373409e+00
2.421448896755882263e+00
2.421448896755882263e+00
2.287382305368205859e+00
2.287382305368205859e+00
2.241443403424177028e+00
2.241443403424177028e+00
2.186504226813562823e+00
2.186504226813562823e+00
2.139252784813989727e+00
2.139252784813989727e+00
2.139252784813989727e+00
2.177316446424756524e+00
2.177316446424756524e+00
2.198129581591235393e+00
2.198129581591235393e+00
2.257381389812921579e+00
2.257381389812921579e+00
2.327508529923398850e+00
2.327508529923398850e+00
2.349634205145421095e+00
2.349634205145421095e+00
2.406260933256020085e+00
2.406260933256020085e+00
2.435324320200201509e+00
2.435324320200201509e+00
2.368572283089693808e+00
2.368572283089693808e+00
2.411323587755973996e+00
2.411323587755973996e+00
2.411323587755973996e+00
2.373072420422986717e+00
2.373072420422986717e+00
2.267319193090609808e+00
2.267319193090609808e+00
2.251756218146305777e+00
2.251756218146305777e+00
2.181254066591387542e+00
2.181254066591387542e+00
2.151815668202764709e+00
2.151815668202764709e+00
2.200192144535660699e+00
2.200192144535660699e+00
2.213317545091097571e+00
2.213317545091097571e+00
2.284194708090456771e+00
2.284194708090456771e+00
2.343446516312143402e+00
2.343446516312143402e+00
2.343446516312143402e+00
2.361072054200873183e+00
2.361072054200873183e+00
2.422948942533646566e+00
2.422948942533646566e+00
2.418636310922574584e+00
2.418636310922574584e+00
2.377760063478499664e+00
2.377760063478499664e+00
2.440011963255714900e+00
2.440011963255714900e+00
2.341196447645496725e+00
2.341196447645496725e+00
2.246693563646351421e+00
2.246693563646351421e+00
2.229443037202063049e+00
2.229443037202063049e+00
2.175253883480330774e+00
2.175253883480330774e+00
2.175253883480330774e+00
2.181816583758049433e+00
2.181816583758049433e+00
2.216692648091067142e+00
2.216692648091067142e+00
2.234505691702016961e+00
2.234505691702016961e+00
2.307257911923581428e+00
2.307257911923581428e+00
2.341383953367717208e+00
2.341383953367717208e+00
2.361259559923093665e+00
2.361259559923093665e+00
2.422011413922543710e+00
2.422011413922543710e+00
2.376072511978514878e+00
2.376072511978514878e+00
2.376072511978514878e+00
2.347759147923215384e+00
2.347759147923215384e+00
2.398385692922757606e+00
2.398385692922757606e+00
2.280257087923826198e+00
2.280257087923826198e+00
2.223067842646564873e+00
2.223067842646564873e+00
2.193066927091281038e+00
2.193066927091281038e+00
2.148628070925016065e+00
2.148628070925016065e+00
2.192316904202398664e+00
2.192316904202398664e+00
2.214817590868861874e+00
2.214817590868861874e+00
2.274631916257209951e+00
2.274631916257209951e+00
2.274631916257209951e+00
2.355446882534256936e+00
2.355446882534256936e+00
2.364447157200842309e+00
2.364447157200842309e+00
2.404385876033814373e+00
2.404385876033814373e+00
2.455012421033357040e+00
2.455012421033357040e+00
2.406260933256020085e+00
2.406260933256020085e+00
2.417323770867030763e+00
2.417323770867030763e+00
2.394823084200567997e+00
2.394823084200567997e+00
2.244255989257484707e+00
2.244255989257484707e+00
2.244255989257484707e+00
2.178816492202520827e+00
2.178816492202520827e+00
2.084876125370036970e+00
2.084876125370036970e+00
2.041749809259315818e+00
2.041749809259315818e+00
2.097251503036591469e+00
2.097251503036591469e+00
2.133440107425153442e+00
2.133440107425153442e+00
2.248943632312997654e+00
2.248943632312997654e+00
2.368759788811914291e+00
2.368759788811914291e+00
2.388822901089510786e+00
2.388822901089510786e+00
2.388822901089510786e+00
2.433824274422437206e+00
2.433824274422437206e+00
2.437949400311288706e+00
2.437949400311288706e+00
2.334258735923337547e+00
2.334258735923337547e+00
2.368009765923032361e+00
2.368009765923032361e+00
2.307632923368022837e+00
2.307632923368022837e+00
2.204692281868953607e+00
2.204692281868953607e+00
2.180504043702505612e+00
2.180504043702505612e+00
2.120877224036378017e+00
2.120877224036378017e+00
2.120877224036378017e+00
2.120877224036378017e+00
2.120877224036378017e+00
2.188941801202429094e+00
2.188941801202429094e+00
2.258693929868464956e+00
2.258693929868464956e+00
2.374384960478530537e+00
2.374384960478530537e+00
2.410386059144871140e+00
2.410386059144871140e+00
2.409448530533769173e+00
2.409448530533769173e+00
2.477513107699820250e+00
2.477513107699820250e+00
2.451824823755607952e+00
2.451824823755607952e+00
2.451824823755607952e+00
2.427449079866939474e+00
2.427449079866939474e+00
2.509576586199530279e+00
2.509576586199530279e+00
2.349821710867641578e+00
2.349821710867641578e+00
2.192691915646840073e+00
2.192691915646840073e+00
2.096313974425489057e+00
2.096313974425489057e+00
1.992998321481978863e+00
1.992998321481978863e+00
2.007248756370739073e+00
2.007248756370739073e+00
2.054500198370311725e+00
2.054500198370311725e+00
2.098751548814355772e+00
2.098751548814355772e+00
2.098751548814355772e+00
2.177128940702536042e+00
2.177128940702536042e+00
2.201879696035645484e+00
2.201879696035645484e+00
2.283069673757133433e+00
2.283069673757133433e+00
2.397635670033875677e+00
2.397635670033875677e+00
2.388447889645069822e+00
2.388447889645069822e+00
2.420511368144779851e+00
2.420511368144779851e+00
2.469637867366557771e+00
2.469637867366557771e+00
2.367259743034150432e+00
2.367259743034150432e+00
2.367259743034150432e+00
2.338946378978850937e+00
2.338946378978850937e+00
2.283069673757133433e+00
2.283069673757133433e+00
2.180879055146946577e+00
2.180879055146946577e+00
2.158190862758262885e+00
2.158190862758262885e+00
2.264506607257301685e+00
2.264506607257301685e+00
2.428199102755821404e+00
2.428199102755821404e+00
2.482575762199774161e+00
2.482575762199774161e+00
2.424448988311410869e+00
2.424448988311410869e+00
2.424448988311410869e+00
2.418823816644795066e+00
2.418823816644795066e+00
2.449387249366740793e+00
2.449387249366740793e+00
2.399510727256080500e+00
2.399510727256080500e+00
2.457074983977782345e+00
2.457074983977782345e+00
2.377010040589617734e+00
2.377010040589617734e+00
2.210129947813348927e+00
2.210129947813348927e+00
2.190441846980193397e+00
2.190441846980193397e+00
2.134377636036255854e+00
2.134377636036255854e+00
2.082251045258949329e+00
2.082251045258949329e+00
2.120877224036378017e+00
2.120877224036378017e+00
2.120877224036378017e+00
2.161190954313791490e+00
2.161190954313791490e+00
2.264694112979522167e+00
2.264694112979522167e+00
2.348509170812097757e+00
2.348509170812097757e+00
2.391260475478377501e+00
2.391260475478377501e+00
2.443762077700125435e+00
2.443762077700125435e+00
2.316633198034607766e+00
2.316633198034607766e+00
2.195316995757927270e+00
2.195316995757927270e+00
2.265631641590625023e+00
2.265631641590625023e+00
2.265631641590625023e+00
2.212942533646656607e+00
2.212942533646656607e+00
2.165503585924863472e+00
2.165503585924863472e+00
2.203754753257850751e+00
2.203754753257850751e+00
2.184441663869136629e+00
2.184441663869136629e+00
2.229068025757622085e+00
2.229068025757622085e+00
2.347759147923215384e+00
2.347759147923215384e+00
2.432511734366893830e+00
2.432511734366893830e+00
2.509764091921750762e+00
2.509764091921750762e+00
2.486325876644184696e+00
2.486325876644184696e+00
2.486325876644184696e+00
2.437761894589068223e+00
2.437761894589068223e+00
2.458387524033326166e+00
2.458387524033326166e+00
2.370259834589678594e+00
2.370259834589678594e+00
2.296945097201452679e+00
2.296945097201452679e+00
2.324508438367870244e+00
2.324508438367870244e+00
2.197567064424573946e+00
2.197567064424573946e+00
2.185754203924680450e+00
2.185754203924680450e+00
2.215567613757744247e+00
2.215567613757744247e+00
2.177503952146977007e+00
2.177503952146977007e+00
2.177503952146977007e+00
2.199817133091219734e+00
2.199817133091219734e+00
2.260568987090670667e+00
2.260568987090670667e+00
2.331633655812249906e+00
2.331633655812249906e+00
2.436261848811303921e+00
2.436261848811303921e+00
2.511076631977294138e+00
2.511076631977294138e+00
2.558328073976867234e+00
2.558328073976867234e+00
2.557953062532425825e+00
2.557953062532425825e+00
2.455949949644459451e+00
2.455949949644459451e+00
2.455949949644459451e+00
2.430074159978026671e+00
2.430074159978026671e+00
2.425949034089175171e+00
2.425949034089175171e+00
2.307070406201360946e+00
2.307070406201360946e+00
2.259818964201788294e+00
2.259818964201788294e+00
2.164753563035981099e+00
2.164753563035981099e+00
2.110376903592028786e+00
2.110376903592028786e+00
2.167941160313730187e+00
2.167941160313730187e+00
2.211629993591112786e+00
2.211629993591112786e+00
2.211629993591112786e+00
2.256443861201819168e+00
2.256443861201819168e+00
2.295820062868129341e+00
2.295820062868129341e+00
2.303320291756950855e+00
2.303320291756950855e+00
2.384510269478438804e+00
2.384510269478438804e+00
2.399698232978301426e+00
2.399698232978301426e+00
2.350196722312082542e+00
2.350196722312082542e+00
2.423511459700308013e+00
2.423511459700308013e+00
2.410573564867091623e+00
2.410573564867091623e+00
2.410573564867091623e+00
2.325258461256752618e+00
2.325258461256752618e+00
2.333133701590014208e+00
2.333133701590014208e+00
2.268256721701712220e+00
2.268256721701712220e+00
2.146565507980590315e+00
2.146565507980590315e+00
2.078875942258980203e+00
2.078875942258980203e+00
2.052437635425885976e+00
2.052437635425885976e+00
2.119377178258613714e+00
2.119377178258613714e+00
2.163441022980437278e+00
2.163441022980437278e+00
2.125377361369670925e+00
2.125377361369670925e+00
2.181629078035828950e+00
2.181629078035828950e+00
2.181629078035828950e+00
2.228880520035401602e+00
2.228880520035401602e+00
2.278194524979400004e+00
2.278194524979400004e+00
2.409261024811548246e+00
2.409261024811548246e+00
2.407760979033784388e+00
2.407760979033784388e+00
2.424448988311410869e+00
2.424448988311410869e+00
2.402510818811609106e+00
2.402510818811609106e+00
2.353759331034272151e+00
2.353759331034272151e+00
2.324320932645649762e+00
2.324320932645649762e+00
2.324320932645649762e+00
2.217067659535508550e+00
2.217067659535508550e+00
2.055812738425855546e+00
2.055812738425855546e+00
2.088813745536667987e+00
2.088813745536667987e+00
2.175066377758110736e+00
2.175066377758110736e+00
2.245193517868587563e+00
2.245193517868587563e+00
2.413386150700399746e+00
2.413386150700399746e+00
2.392948026978362286e+00
2.392948026978362286e+00
2.363697134311959935e+00
2.363697134311959935e+00
2.432136722922452865e+00
2.432136722922452865e+00
2.369697317423017147e+00
2.369697317423017147e+00
2.369697317423017147e+00
2.389760429700613198e+00
2.389760429700613198e+00
2.365947202978606612e+00
2.365947202978606612e+00
2.331821161534470832e+00
2.331821161534470832e+00
2.364822168645283273e+00
2.364822168645283273e+00
2.386760338145085036e+00
2.386760338145085036e+00
2.411323587755973996e+00
2.411323587755973996e+00
2.409448530533769173e+00
2.409448530533769173e+00
2.352071779534287366e+00
2.352071779534287366e+00
2.352071779534287366e+00
2.367634754478591397e+00
2.367634754478591397e+00
2.378697592089602519e+00
2.378697592089602519e+00
2.299007660145878429e+00
2.299007660145878429e+00
2.376072511978514878e+00
2.376072511978514878e+00
2.393323038422803695e+00
2.393323038422803695e+00
2.296570085757011714e+00
2.296570085757011714e+00
2.250256172368541474e+00
2.250256172368541474e+00
2.153878231147190458e+00
2.153878231147190458e+00
2.153878231147190458e+00
2.094438917203283790e+00
2.094438917203283790e+00
2.149753105258339403e+00
2.149753105258339403e+00
2.180316537980285130e+00
2.180316537980285130e+00
2.207504867702261730e+00
2.207504867702261730e+00
2.274256904812768987e+00
2.274256904812768987e+00
2.298257637256996500e+00
2.298257637256996500e+00
2.332571184423352761e+00
2.332571184423352761e+00
2.325258461256752618e+00
2.325258461256752618e+00
2.325258461256752618e+00
2.318695760979033516e+00
2.318695760979033516e+00
2.403073335978270997e+00
2.403073335978270997e+00
2.303507797479171337e+00
2.303507797479171337e+00
2.195129490035706787e+00
2.195129490035706787e+00
2.104189214758751536e+00
2.104189214758751536e+00
2.011186376537369647e+00
2.011186376537369647e+00
2.050937589648121673e+00
2.050937589648121673e+00
2.062562944425794242e+00
2.062562944425794242e+00
2.062562944425794242e+00
2.031061983092746104e+00
2.031061983092746104e+00
2.215942625202185212e+00
2.215942625202185212e+00
2.332008667256691314e+00
2.332008667256691314e+00
2.463450178533280521e+00
2.463450178533280521e+00
2.607642078920865636e+00
2.607642078920865636e+00
2.691269631031220300e+00
2.691269631031220300e+00
2.674956633198034783e+00
2.674956633198034783e+00
2.672144047364726660e+00
2.672144047364726660e+00
2.482388256477553679e+00
2.482388256477553679e+00
2.482388256477553679e+00
2.344571550645466296e+00
2.344571550645466296e+00
2.227005462813196335e+00
2.227005462813196335e+00
2.058812829981383707e+00
2.058812829981383707e+00
2.057312784203619849e+00
2.057312784203619849e+00
2.121439741203039464e+00
2.121439741203039464e+00
2.173378826258125951e+00
2.173378826258125951e+00
2.252131229590746742e+00
2.252131229590746742e+00
2.305570360423596643e+00
2.305570360423596643e+00
2.305570360423596643e+00
2.397073152867214230e+00
2.397073152867214230e+00
2.515389263588366120e+00
2.515389263588366120e+00
2.537889950254829774e+00
2.537889950254829774e+00
2.503013885921811621e+00
2.503013885921811621e+00
2.410011047700430176e+00
2.410011047700430176e+00
2.281007110812707683e+00
2.281007110812707683e+00
2.265444135868404540e+00
2.265444135868404540e+00
2.217442670979949515e+00
2.217442670979949515e+00
2.217442670979949515e+00
2.137940244758446351e+00
2.137940244758446351e+00
2.113001983703115982e+00
2.113001983703115982e+00
2.077188390758995418e+00
2.077188390758995418e+00
2.116189580980865070e+00
2.116189580980865070e+00
2.146002990813928868e+00
2.146002990813928868e+00
2.144877956480605530e+00
2.144877956480605530e+00
2.259256447035126847e+00
2.259256447035126847e+00
2.266006653035065987e+00
2.266006653035065987e+00
2.167753654591509704e+00
2.167753654591509704e+00
2.167753654591509704e+00
2.197754570146794428e+00
2.197754570146794428e+00
2.178253975035859380e+00
2.178253975035859380e+00
2.141690359202856442e+00
2.141690359202856442e+00
2.179003997924741309e+00
2.179003997924741309e+00
2.213317545091097571e+00
2.213317545091097571e+00
2.348321665089877275e+00
2.348321665089877275e+00
2.355259376812036454e+00
2.355259376812036454e+00
2.294132511368144556e+00
2.294132511368144556e+00
2.295070039979247412e+00
2.295070039979247412e+00
2.295070039979247412e+00
2.408323496200445835e+00
2.408323496200445835e+00
2.608767113254188974e+00
2.608767113254188974e+00
2.744708761864070645e+00
2.744708761864070645e+00
2.723895626697592220e+00
2.723895626697592220e+00
2.545390179143650844e+00
2.545390179143650844e+00
2.366322214423047576e+00
2.366322214423047576e+00
2.092938871425519931e+00
2.092938871425519931e+00
1.912558366649372843e+00
1.912558366649372843e+00
1.912558366649372843e+00
1.897557908871730703e+00
1.897557908871730703e+00
1.828368297372356288e+00
1.828368297372356288e+00
1.779991821039460298e+00
1.779991821039460298e+00
1.878244819483016581e+00
1.878244819483016581e+00
2.076250862147892562e+00
2.076250862147892562e+00
2.414511185033723084e+00
2.414511185033723084e+00
2.718832972197637865e+00
2.718832972197637865e+00
2.863587389751884871e+00
2.863587389751884871e+00
2.887400616473891457e+00
2.887400616473891457e+00
2.787460066530350389e+00
2.787460066530350389e+00
2.787460066530350389e+00
2.691644642475661264e+00
2.691644642475661264e+00
2.590766563921018228e+00
2.590766563921018228e+00
2.292069948423719250e+00
2.292069948423719250e+00
2.193066927091281038e+00
2.193066927091281038e+00
2.083376079592272667e+00
2.083376079592272667e+00
2.008373790704061967e+00
2.008373790704061967e+00
1.896620380260628069e+00
1.896620380260628069e+00
1.747928342539750490e+00
1.747928342539750490e+00
1.747928342539750490e+00
1.704239509262367669e+00
1.704239509262367669e+00
1.766678914761803165e+00
1.766678914761803165e+00
2.005748710592974771e+00
2.005748710592974771e+00
2.203942258980071234e+00
2.203942258980071234e+00
2.295445051423688376e+00
2.295445051423688376e+00
2.378135074922940628e+00
2.378135074922940628e+00
2.518014343699453761e+00
2.518014343699453761e+00
2.649080843531602003e+00
2.649080843531602003e+00
2.649080843531602003e+00
2.761209265419477088e+00
2.761209265419477088e+00
2.729708304086428505e+00
2.729708304086428505e+00
2.432324228644673347e+00
2.432324228644673347e+00
2.127627430036317158e+00
2.127627430036317158e+00
2.018311593981750196e+00
2.018311593981750196e+00
1.926996307260353314e+00
1.926996307260353314e+00
1.849181432538834935e+00
1.849181432538834935e+00
1.836993560594500696e+00
1.836993560594500696e+00
1.836993560594500696e+00
1.889307657094027704e+00
1.889307657094027704e+00
2.095563951536606684e+00
2.095563951536606684e+00
2.180129032258064647e+00
2.180129032258064647e+00
2.251568712424085295e+00
2.251568712424085295e+00
2.544077639088107023e+00
2.544077639088107023e+00
2.744708761864070645e+00
2.744708761864070645e+00
2.730083315530869470e+00
2.730083315530869470e+00
2.536389904477065471e+00
2.536389904477065471e+00
2.536389904477065471e+00
2.325258461256752618e+00
2.325258461256752618e+00
2.174503860591448845e+00
2.174503860591448845e+00
2.039687246314890068e+00
2.039687246314890068e+00
2.068188116092410045e+00
2.068188116092410045e+00
2.299382671590319838e+00
2.299382671590319838e+00
2.465512741477706271e+00
2.465512741477706271e+00
2.560390636921292984e+00
2.560390636921292984e+00
2.608579607531968492e+00
2.608579607531968492e+00
2.484263313699758946e+00
2.484263313699758946e+00
2.484263313699758946e+00
2.354696859645375007e+00
2.354696859645375007e+00
2.389010406811731269e+00
2.389010406811731269e+00
2.375134983367412023e+00
2.375134983367412023e+00
2.349259193700979687e+00
2.349259193700979687e+00
2.332758690145573244e+00
2.332758690145573244e+00
2.258131412701803509e+00
2.258131412701803509e+00
2.215192602313302839e+00
2.215192602313302839e+00
2.091438825647755628e+00
2.091438825647755628e+00
2.015499008148442073e+00
2.015499008148442073e+00
2.015499008148442073e+00
1.895495345927304953e+00
1.895495345927304953e+00
1.914245918149357406e+00
1.914245918149357406e+00
1.990185735648670962e+00
1.990185735648670962e+00
2.149940610980559885e+00
2.149940610980559885e+00
2.218942716757713818e+00
2.218942716757713818e+00
2.269381756035035114e+00
2.269381756035035114e+00
2.289819879757073018e+00
2.289819879757073018e+00
2.231318094424268317e+00
2.231318094424268317e+00
2.231318094424268317e+00
2.110001892147587377e+00
2.110001892147587377e+00
1.940684224982451855e+00
1.940684224982451855e+00
1.776241706595049985e+00
1.776241706595049985e+00
1.850868984038819498e+00
1.850868984038819498e+00
1.974435254982146670e+00
1.974435254982146670e+00
2.156315805536057617e+00
2.156315805536057617e+00
2.446199652088991705e+00
2.446199652088991705e+00
2.635205420087282757e+00
2.635205420087282757e+00
2.635205420087282757e+00
2.845774346140934608e+00
2.845774346140934608e+00
3.033467574083681839e+00
3.033467574083681839e+00
2.757459150975066553e+00
2.757459150975066553e+00
2.653393475142674429e+00
2.653393475142674429e+00
2.605954527420880851e+00
2.605954527420880851e+00
2.267881710257271255e+00
2.267881710257271255e+00
2.091063814203314664e+00
2.091063814203314664e+00
1.656988067262794795e+00
1.656988067262794795e+00
1.609361613818780956e+00
1.609361613818780956e+00
1.609361613818780956e+00
1.746615802484206670e+00
1.746615802484206670e+00
1.884807519760735017e+00
1.884807519760735017e+00
2.023561754203924590e+00
2.023561754203924590e+00
2.042874843592639156e+00
2.042874843592639156e+00
2.228318002868740155e+00
2.228318002868740155e+00
2.602954435865352245e+00
2.602954435865352245e+00
2.871275124362925979e+00
2.871275124362925979e+00
2.708520157475509116e+00
2.708520157475509116e+00
2.432324228644673347e+00
2.432324228644673347e+00
2.432324228644673347e+00
2.079250953703421168e+00
2.079250953703421168e+00
1.651175389873958510e+00
1.651175389873958510e+00
1.676863673818170808e+00
1.676863673818170808e+00
1.769116489150669880e+00
1.769116489150669880e+00
1.735365459150975065e+00
1.735365459150975065e+00
1.810742759483626729e+00
1.810742759483626729e+00
2.063125461592455689e+00
2.063125461592455689e+00
2.595829218420972584e+00
2.595829218420972584e+00
2.849899472029786107e+00
2.849899472029786107e+00
2.849899472029786107e+00
2.784272469252601745e+00
2.784272469252601745e+00
2.765521897030549070e+00
2.765521897030549070e+00
2.793835261085848565e+00
2.793835261085848565e+00
2.758584185308389891e+00
2.758584185308389891e+00
2.725583178197577006e+00
2.725583178197577006e+00
2.455762443922238969e+00
2.455762443922238969e+00
2.234318185979796478e+00
2.234318185979796478e+00
1.902433057649464576e+00
1.902433057649464576e+00
1.902433057649464576e+00
1.489357951597644059e+00
1.489357951597644059e+00
1.487670400097659273e+00
1.487670400097659273e+00
1.562672688985869751e+00
1.562672688985869751e+00
1.975747795037690491e+00
1.975747795037690491e+00
2.230193060090945423e+00
2.230193060090945423e+00
2.311945554979094819e+00
2.311945554979094819e+00
2.499451277199621568e+00
2.499451277199621568e+00
2.698394848475600405e+00
2.698394848475600405e+00
2.812773339030121722e+00
2.812773339030121722e+00
2.812773339030121722e+00
2.526827112643818651e+00
2.526827112643818651e+00
2.326758507034516477e+00
2.326758507034516477e+00
1.982498001037629409e+00
1.982498001037629409e+00
2.025811822870570822e+00
2.025811822870570822e+00
2.157440839869380955e+00
2.157440839869380955e+00
1.842618732261116499e+00
1.842618732261116499e+00
1.673113559373760273e+00
1.673113559373760273e+00
1.924746238593707082e+00
1.924746238593707082e+00
2.502638874477370656e+00
2.502638874477370656e+00
2.502638874477370656e+00
2.816523453474532257e+00
2.816523453474532257e+00
2.791397686696981850e+00
2.791397686696981850e+00
2.693519699697866532e+00
2.693519699697866532e+00
2.393698049867244659e+00
2.393698049867244659e+00
2.146565507980590315e+00
2.146565507980590315e+00
2.030686971648304695e+00
2.030686971648304695e+00
1.767803949095126059e+00
1.767803949095126059e+00
1.373666920987579143e+00
1.373666920987579143e+00
1.373666920987579143e+00
1.456356944486831395e+00
1.456356944486831395e+00
1.662050721762749150e+00
1.662050721762749150e+00
1.767241431928464834e+00
1.767241431928464834e+00
1.905620654927213442e+00
1.905620654927213442e+00
1.702364452040162401e+00
1.702364452040162401e+00
1.993185827204199345e+00
1.993185827204199345e+00
2.462137638477736701e+00
2.462137638477736701e+00
2.619642445142979614e+00
2.619642445142979614e+00
2.745083773308511610e+00
2.745083773308511610e+00
2.709270180364391045e+00
2.709270180364391045e+00
2.709270180364391045e+00
2.973278237250892353e+00
2.973278237250892353e+00
3.310601031525620463e+00
3.310601031525620463e+00
3.219848261970885250e+00
3.219848261970885250e+00
2.927714346751304486e+00
2.927714346751304486e+00
2.814273384807886025e+00
2.814273384807886025e+00
2.413761162144840711e+00
2.413761162144840711e+00
1.851243995483260685e+00
1.851243995483260685e+00
1.562860194708090456e+00
1.562860194708090456e+00
1.562860194708090456e+00
1.666738364818262319e+00
1.666738364818262319e+00
2.001623584704122827e+00
2.001623584704122827e+00
2.053750175481429796e+00
2.053750175481429796e+00
2.037249671926022909e+00
2.037249671926022909e+00
2.427636585589159957e+00
2.427636585589159957e+00
2.947214941862239534e+00
2.947214941862239534e+00
3.371352885525070953e+00
3.371352885525070953e+00
3.208222907193212681e+00
3.208222907193212681e+00
3.208222907193212681e+00
2.495138645588549586e+00
2.495138645588549586e+00
2.060312875759148010e+00
2.060312875759148010e+00
1.717739921262245506e+00
1.717739921262245506e+00
1.508858546708578885e+00
1.508858546708578885e+00
1.551234839930417664e+00
1.551234839930417664e+00
1.623049531540879498e+00
1.623049531540879498e+00
1.377979552598651125e+00
1.377979552598651125e+00
1.197974059266945446e+00
1.197974059266945446e+00
1.197974059266945446e+00
9.887176732688376379e-01
9.887176732688376379e-01
1.242787926877651383e+00
1.242787926877651383e+00
1.853306558427686435e+00
1.853306558427686435e+00
2.321133335367900674e+00
2.321133335367900674e+00
3.195472518082216773e+00
3.195472518082216773e+00
3.386165837580492610e+00
3.386165837580492610e+00
2.526264595477157204e+00
2.526264595477157204e+00
1.839806146427808375e+00
1.839806146427808375e+00
1.750553422650837687e+00
1.750553422650837687e+00
1.750553422650837687e+00
2.024311777092806519e+00
2.024311777092806519e+00
2.282694662312692468e+00
2.282694662312692468e+00
2.441512009033478758e+00
2.441512009033478758e+00
2.893213293862727742e+00
2.893213293862727742e+00
3.328226569414349800e+00
3.328226569414349800e+00
3.036280159916989518e+00
3.036280159916989518e+00
2.858899746696371480e+00
2.858899746696371480e+00
2.667831415753654234e+00
2.667831415753654234e+00
2.667831415753654234e+00
2.413011139255958781e+00
2.413011139255958781e+00
2.532077272865993045e+00
2.532077272865993045e+00
2.662956266975920805e+00
2.662956266975920805e+00
2.755771599475081768e+00
2.755771599475081768e+00
2.484450819421979428e+00
2.484450819421979428e+00
2.163441022980437278e+00
2.163441022980437278e+00
1.960934842982268833e+00
1.960934842982268833e+00
1.973685232093264519e+00
1.973685232093264519e+00
1.973685232093264519e+00
1.974810266426587635e+00
1.974810266426587635e+00
2.330321115756706529e+00
2.330321115756706529e+00
2.641768120365001415e+00
2.641768120365001415e+00
2.554952970976897664e+00
2.554952970976897664e+00
2.170566240424817828e+00
2.170566240424817828e+00
1.796304818872646480e+00
1.796304818872646480e+00
1.715864864040040239e+00
1.715864864040040239e+00
1.798554887539292491e+00
1.798554887539292491e+00
1.798554887539292491e+00
1.581048249763481461e+00
1.581048249763481461e+00
1.334103213599047821e+00
1.334103213599047821e+00
1.426168523209326633e+00
1.426168523209326633e+00
1.990935758537552891e+00
1.990935758537552891e+00
2.733083407086398076e+00
2.733083407086398076e+00
2.987716177861873046e+00
2.987716177861873046e+00
2.585703909421063873e+00
2.585703909421063873e+00
1.684738914151433065e+00
1.684738914151433065e+00
1.684738914151433065e+00
1.447919186986907691e+00
1.447919186986907691e+00
1.526671590319528926e+00
1.526671590319528926e+00
1.880682393871883296e+00
1.880682393871883296e+00
2.052437635425885976e+00
2.052437635425885976e+00
2.329571092867824156e+00
2.329571092867824156e+00
2.994278878139591704e+00
2.994278878139591704e+00
3.351102267525253975e+00
3.351102267525253975e+00
3.390103457747123628e+00
3.390103457747123628e+00
3.390103457747123628e+00
3.338914395580919958e+00
3.338914395580919958e+00
3.247036591692861851e+00
3.247036591692861851e+00
2.845961851863155090e+00
2.845961851863155090e+00
2.602391918698690798e+00
2.602391918698690798e+00
2.143565416425061709e+00
2.143565416425061709e+00
1.855744132816553149e+00
1.855744132816553149e+00
1.749428388317514793e+00
1.749428388317514793e+00
1.605611499374370643e+00
1.605611499374370643e+00
1.990373241370891666e+00
1.990373241370891666e+00
2.076813379314554453e+00
2.076813379314554453e+00
2.076813379314554453e+00
2.285694753868221074e+00
2.285694753868221074e+00
2.488763451033051854e+00
2.488763451033051854e+00
2.680581804864650142e+00
2.680581804864650142e+00
2.862087343974120568e+00
2.862087343974120568e+00
2.635767937253944648e+00
2.635767937253944648e+00
2.252318735312967224e+00
2.252318735312967224e+00
2.209754936368907963e+00
2.209754936368907963e+00
2.037249671926022909e+00
2.037249671926022909e+00
2.037249671926022909e+00
2.068563127536851454e+00
2.068563127536851454e+00
2.172066286202582130e+00
2.172066286202582130e+00
2.107751823480941145e+00
2.107751823480941145e+00
2.024686788537247928e+00
2.024686788537247928e+00
1.898870448927274301e+00
1.898870448927274301e+00
1.952872096926786094e+00
1.952872096926786094e+00
2.511264137699515064e+00
2.511264137699515064e+00
3.012654438917203414e+00
3.012654438917203414e+00
3.105094759971922969e+00
3.105094759971922969e+00
3.105094759971922969e+00
2.836961577196569717e+00
2.836961577196569717e+00
2.589829035309915373e+00
2.589829035309915373e+00
2.040624774925992480e+00
2.040624774925992480e+00
1.714927335428937605e+00
1.714927335428937605e+00
1.824618182927945975e+00
1.824618182927945975e+00
1.876182256538590609e+00
1.876182256538590609e+00
1.685863948484755959e+00
1.685863948484755959e+00
1.512421155430768716e+00
1.512421155430768716e+00
1.512421155430768716e+00
1.639550035096285940e+00
1.639550035096285940e+00
1.683426374095889244e+00
1.683426374095889244e+00
1.512983672597430385e+00
1.512983672597430385e+00
1.506420972319711948e+00
1.506420972319711948e+00
1.906370677816095593e+00
1.906370677816095593e+00
2.410386059144871140e+00
2.410386059144871140e+00
2.965215491195409836e+00
2.965215491195409836e+00
3.468855861079744862e+00
3.468855861079744862e+00
3.468855861079744862e+00
3.782365428632465498e+00
3.782365428632465498e+00
3.858117740409558571e+00
3.858117740409558571e+00
3.350727256080813010e+00
3.350727256080813010e+00
2.749771416364024557e+00
2.749771416364024557e+00
2.374572466200750576e+00
2.374572466200750576e+00
2.339508896145511940e+00
2.339508896145511940e+00
2.195879512924588717e+00
2.195879512924588717e+00
1.909745780816064942e+00
1.909745780816064942e+00
1.909745780816064942e+00
2.014186468092898252e+00
2.014186468092898252e+00
1.707427106540116757e+00
1.707427106540116757e+00
1.418480788598284859e+00
1.418480788598284859e+00
1.713989806817835193e+00
1.713989806817835193e+00
1.688864040040284564e+00
1.688864040040284564e+00
1.133659596545304904e+00
1.133659596545304904e+00
6.292692037720877263e-01
6.292692037720877263e-01
8.792143314920499719e-01
8.792143314920499719e-01
8.792143314920499719e-01
1.464419690542313912e+00
1.464419690542313912e+00
2.478263130588702179e+00
2.478263130588702179e+00
3.402478835413678571e+00
3.402478835413678571e+00
3.812553849909970705e+00
3.812553849909970705e+00
3.812553849909970705e+00
3.812553849909970705e+00
3.805616138187810638e+00
3.805616138187810638e+00
3.353352336191900651e+00
3.353352336191900651e+00
2.774709677419354925e+00
2.774709677419354925e+00
2.774709677419354925e+00
2.143377910702841227e+00
2.143377910702841227e+00
1.553297402874843636e+00
1.553297402874843636e+00
1.594548661763359521e+00
1.594548661763359521e+00
1.897745414593951185e+00
1.897745414593951185e+00
1.910683309427167575e+00
1.910683309427167575e+00
1.839806146427808375e+00
1.839806146427808375e+00
2.186504226813562823e+00
2.186504226813562823e+00
2.400635761589403838e+00
2.400635761589403838e+00
2.533389812921536866e+00
2.533389812921536866e+00
2.533389812921536866e+00
2.626205145420697828e+00
2.626205145420697828e+00
2.567328348643452163e+00
2.567328348643452163e+00
2.572953520310068409e+00
2.572953520310068409e+00
2.667268898586993231e+00
2.667268898586993231e+00
2.609892147587511868e+00
2.609892147587511868e+00
2.336883816034425188e+00
2.336883816034425188e+00
2.106814294869838289e+00
2.106814294869838289e+00
2.069688161870173904e+00
2.069688161870173904e+00
2.069688161870173904e+00
1.871682119205298145e+00
1.871682119205298145e+00
1.754116031373027740e+00
1.754116031373027740e+00
1.907870723593859896e+00
1.907870723593859896e+00
2.229630542924283532e+00
2.229630542924283532e+00
2.373822443311869090e+00
2.373822443311869090e+00
2.357696951200903612e+00
2.357696951200903612e+00
2.518389355143894726e+00
2.518389355143894726e+00
2.605954527420880851e+00
2.605954527420880851e+00
2.720708029419843133e+00
2.720708029419843133e+00
2.720708029419843133e+00
2.447699697866756008e+00
2.447699697866756008e+00
1.952872096926786094e+00
1.952872096926786094e+00
1.690551591540269349e+00
1.690551591540269349e+00
1.291914426099429303e+00
1.291914426099429303e+00
1.154847743156224293e+00
1.154847743156224293e+00
1.242412915433210197e+00
1.242412915433210197e+00
1.934684041871395088e+00
1.934684041871395088e+00
2.881212927640613763e+00
2.881212927640613763e+00
3.603672475356303639e+00
3.603672475356303639e+00
3.603672475356303639e+00
3.455355449079867025e+00
3.455355449079867025e+00
3.154596270638142297e+00
3.154596270638142297e+00
2.974403271584215691e+00
2.974403271584215691e+00
2.734395947141941896e+00
2.734395947141941896e+00
2.643830683309427609e+00
2.643830683309427609e+00
2.584203863643300014e+00
2.584203863643300014e+00
2.257568895535142062e+00
2.257568895535142062e+00
2.075313333536790150e+00
2.075313333536790150e+00
2.075313333536790150e+00
1.791804681539353572e+00
1.791804681539353572e+00
1.796304818872646480e+00
1.796304818872646480e+00
2.023749259926145072e+00
2.023749259926145072e+00
2.112814477980895500e+00
2.112814477980895500e+00
2.175066377758110736e+00
2.175066377758110736e+00
2.488200933866389963e+00
2.488200933866389963e+00
2.653205969420453503e+00
2.653205969420453503e+00
2.734958464308603343e+00
2.734958464308603343e+00
2.614204779198583850e+00
2.614204779198583850e+00
2.614204779198583850e+00
2.751083956419568377e+00
2.751083956419568377e+00
2.879900387585070387e+00
2.879900387585070387e+00
2.297882625812555535e+00
2.297882625812555535e+00
1.859681752983184388e+00
1.859681752983184388e+00
1.935621570482497722e+00
1.935621570482497722e+00
2.093688894314401416e+00
2.093688894314401416e+00
2.054312692648091243e+00
2.054312692648091243e+00
1.897370403149510221e+00
1.897370403149510221e+00
1.897370403149510221e+00
1.616861842707602248e+00
1.616861842707602248e+00
1.685676442762535476e+00
1.685676442762535476e+00
2.019436628315073090e+00
2.019436628315073090e+00
2.474513016144291644e+00
2.474513016144291644e+00
3.115407574694051718e+00
3.115407574694051718e+00
3.307225928525650893e+00
3.307225928525650893e+00
2.965590502639851245e+00
2.965590502639851245e+00
2.700832422864467564e+00
2.700832422864467564e+00
2.700832422864467564e+00
2.315883175145725836e+00
2.315883175145725836e+00
2.171691274758141166e+00
2.171691274758141166e+00
1.918746055482650315e+00
1.918746055482650315e+00
1.662988250373851784e+00
1.662988250373851784e+00
1.995248390148625317e+00
1.995248390148625317e+00
2.421636402478102745e+00
2.421636402478102745e+00
2.317570726645710621e+00
2.317570726645710621e+00
2.157628345591601438e+00
2.157628345591601438e+00
2.103626697592089645e+00
2.103626697592089645e+00
2.103626697592089645e+00
2.132690084536271069e+00
2.132690084536271069e+00
2.315883175145725836e+00
2.315883175145725836e+00
2.542202581865901756e+00
2.542202581865901756e+00
2.418448805200354101e+00
2.418448805200354101e+00
2.218755211035493335e+00
2.218755211035493335e+00
2.135690176091799675e+00
2.135690176091799675e+00
1.900933011871700273e+00
1.900933011871700273e+00
1.813930356761375817e+00
1.813930356761375817e+00
2.040249763481551515e+00
2.040249763481551515e+00
2.040249763481551515e+00
2.677581713309121980e+00
2.677581713309121980e+00
3.122345286416211785e+00
3.122345286416211785e+00
3.126095400860621876e+00
3.126095400860621876e+00
2.896775902584917795e+00
2.896775902584917795e+00
2.598641804254280263e+00
2.598641804254280263e+00
2.173003814813684542e+00
2.173003814813684542e+00
1.920058595538193913e+00
1.920058595538193913e+00
1.758991180150761391e+00
1.758991180150761391e+00
2.062187932981353278e+00
2.062187932981353278e+00
2.062187932981353278e+00
2.430261665700247153e+00
2.430261665700247153e+00
2.932777001251258842e+00
2.932777001251258842e+00
3.020529679250465449e+00
3.020529679250465449e+00
2.582141300698873820e+00
2.582141300698873820e+00
2.123877315591906623e+00
2.123877315591906623e+00
1.916870998260445047e+00
1.916870998260445047e+00
2.054687704092532208e+00
2.054687704092532208e+00
2.100814111758781966e+00
2.100814111758781966e+00
2.100814111758781966e+00
2.072125736259041062e+00
2.072125736259041062e+00
2.207317361980041248e+00
2.207317361980041248e+00
2.377385052034058699e+00
2.377385052034058699e+00
2.258131412701803509e+00
2.258131412701803509e+00
2.315133152256843907e+00
2.315133152256843907e+00
2.637455488753929433e+00
2.637455488753929433e+00
2.524952055421613384e+00
2.524952055421613384e+00
2.152378185369426600e+00
2.152378185369426600e+00
1.847118869594408963e+00
1.847118869594408963e+00
1.847118869594408963e+00
1.713989806817835193e+00
1.713989806817835193e+00
2.110189397869807859e+00
2.110189397869807859e+00
2.437761894589068223e+00
2.437761894589068223e+00
2.619267433698538206e+00
2.619267433698538206e+00
2.839211645863215949e+00
2.839211645863215949e+00
2.675706656086916713e+00
2.675706656086916713e+00
2.376447523422955843e+00
2.376447523422955843e+00
2.330508621478927012e+00
2.330508621478927012e+00
2.330508621478927012e+00
2.072313241981261545e+00
2.072313241981261545e+00
1.761053743095187363e+00
1.761053743095187363e+00
1.766866420484023648e+00
1.766866420484023648e+00
1.744365733817560216e+00
1.744365733817560216e+00
2.113752006591998356e+00
2.113752006591998356e+00
2.622830042420728258e+00
2.622830042420728258e+00
2.626205145420697828e+00
2.626205145420697828e+00
2.728395764030884685e+00
2.728395764030884685e+00
2.697457319864497993e+00
2.697457319864497993e+00
2.697457319864497993e+00
2.759709219641712785e+00
2.759709219641712785e+00
3.070781212805566707e+00
3.070781212805566707e+00
2.872962675862910764e+00
2.872962675862910764e+00
2.533389812921536866e+00
2.533389812921536866e+00
2.465887752922147680e+00
2.465887752922147680e+00
2.456699972533341381e+00
2.456699972533341381e+00
2.281007110812707683e+00
2.281007110812707683e+00
2.022061708426160731e+00
2.022061708426160731e+00
2.022061708426160731e+00
1.888182622760704366e+00
1.888182622760704366e+00
1.946496902371288140e+00
1.946496902371288140e+00
1.848993926816614453e+00
1.848993926816614453e+00
1.911620838038270209e+00
1.911620838038270209e+00
2.121814752647480873e+00
2.121814752647480873e+00
2.330883632923367976e+00
2.330883632923367976e+00
2.515389263588366120e+00
2.515389263588366120e+00
2.517451826532791870e+00
2.517451826532791870e+00
2.348696676534318240e+00
2.348696676534318240e+00
2.348696676534318240e+00
2.257006378368480615e+00
2.257006378368480615e+00
2.260381481368449741e+00
2.260381481368449741e+00
2.295445051423688376e+00
2.295445051423688376e+00
2.158940885647145258e+00
2.158940885647145258e+00
1.793679738761558839e+00
1.793679738761558839e+00
1.703489486373485517e+00
1.703489486373485517e+00
1.835868526261177580e+00
1.835868526261177580e+00
1.815055391094698933e+00
1.815055391094698933e+00
1.815055391094698933e+00
1.902808069093905319e+00
1.902808069093905319e+00
2.467762810144352947e+00
2.467762810144352947e+00
2.988466200750755419e+00
2.988466200750755419e+00
3.255286843470564850e+00
3.255286843470564850e+00
3.240286385692923155e+00
3.240286385692923155e+00
2.732520889919736184e+00
2.732520889919736184e+00
2.453699880977813219e+00
2.453699880977813219e+00
2.349446699423200169e+00
2.349446699423200169e+00
2.349446699423200169e+00
2.337633838923307117e+00
2.337633838923307117e+00
2.550640339365825238e+00
2.550640339365825238e+00
2.317570726645710621e+00
2.317570726645710621e+00
2.093313882869960452e+00
2.093313882869960452e+00
1.883682485427411901e+00
1.883682485427411901e+00
1.786742027039399439e+00
1.786742027039399439e+00
1.791054658650471643e+00
1.791054658650471643e+00
2.016436536759544484e+00
2.016436536759544484e+00
2.016436536759544484e+00
1.997685964537492032e+00
1.997685964537492032e+00
1.904308114871669622e+00
1.904308114871669622e+00
2.257381389812921579e+00
2.257381389812921579e+00
2.539389996032593633e+00
2.539389996032593633e+00
2.519889400921659028e+00
2.519889400921659028e+00
2.777897274697104013e+00
2.777897274697104013e+00
3.296538102359080735e+00
3.296538102359080735e+00
3.376228034302804826e+00
3.376228034302804826e+00
3.376228034302804826e+00
2.964090456862086942e+00
2.964090456862086942e+00
2.413948667867061193e+00
2.413948667867061193e+00
1.938996673482467070e+00
1.938996673482467070e+00
1.671988525040437157e+00
1.671988525040437157e+00
1.840181157872249562e+00
1.840181157872249562e+00
1.987748161259804025e+00
1.987748161259804025e+00
2.002748619037446165e+00
2.002748619037446165e+00
2.090313791314432290e+00
2.090313791314432290e+00
2.130252510147404355e+00
2.130252510147404355e+00
2.381322672200689716e+00
2.381322672200689716e+00
2.381322672200689716e+00
2.386947843867305519e+00
2.386947843867305519e+00
2.077188390758995418e+00
2.077188390758995418e+00
2.007623767815180038e+00
2.007623767815180038e+00
2.440199468977935382e+00
2.440199468977935382e+00
2.626392651142918311e+00
2.626392651142918311e+00
2.618892422254097241e+00
2.618892422254097241e+00
2.390697958311716054e+00
2.390697958311716054e+00
2.197754570146794428e+00
2.197754570146794428e+00
2.252881252479629115e+00
2.252881252479629115e+00
2.252881252479629115e+00
2.092188848536637558e+00
2.092188848536637558e+00
1.973497726371044036e+00
1.973497726371044036e+00
1.971060151982177322e+00
1.971060151982177322e+00
1.982685506759849892e+00
1.982685506759849892e+00
2.070438184759056277e+00
2.070438184759056277e+00
2.509576586199530279e+00
2.509576586199530279e+00
2.938402172917874644e+00
2.938402172917874644e+00
3.396291146580400877e+00
3.396291146580400877e+00
3.396291146580400877e+00
3.329539109469893621e+00
3.329539109469893621e+00
2.967653065584276995e+00
2.967653065584276995e+00
2.451262306588946061e+00
2.451262306588946061e+00
2.019436628315073090e+00
2.019436628315073090e+00
1.787117038483840403e+00
1.787117038483840403e+00
1.762553788872951444e+00
1.762553788872951444e+00
1.810742759483626729e+00
1.810742759483626729e+00
1.852931546983245470e+00
1.852931546983245470e+00
1.935621570482497722e+00
1.935621570482497722e+00
1.935621570482497722e+00
2.284944730979339145e+00
2.284944730979339145e+00
2.590391552476577264e+00
2.590391552476577264e+00
2.583453840754417641e+00
2.583453840754417641e+00
2.397823175756096159e+00
2.397823175756096159e+00
2.162503494369335311e+00
2.162503494369335311e+00
2.151253151036103706e+00
2.151253151036103706e+00
2.507326517532883603e+00
2.507326517532883603e+00
2.586266426587725320e+00
2.586266426587725320e+00
2.586266426587725320e+00
2.420511368144779851e+00
2.420511368144779851e+00
2.553640430921353843e+00
2.553640430921353843e+00
2.526077089754936722e+00
2.526077089754936722e+00
2.227380474257637299e+00
2.227380474257637299e+00
2.230568071535386387e+00
2.230568071535386387e+00
2.265631641590625023e+00
2.265631641590625023e+00
2.267694204535050773e+00
2.267694204535050773e+00
2.225880428479872997e+00
2.225880428479872997e+00
2.225880428479872997e+00
2.111689443647572162e+00
2.111689443647572162e+00
2.177691457869197489e+00
2.177691457869197489e+00
2.331821161534470832e+00
2.331821161534470832e+00
2.140752830591753586e+00
2.140752830591753586e+00
2.042687337870418673e+00
2.042687337870418673e+00
1.788617084261604706e+00
1.788617084261604706e+00
1.771554063539536816e+00
1.771554063539536816e+00
1.729177770317697815e+00
1.729177770317697815e+00
1.729177770317697815e+00
1.756928617206335641e+00
1.756928617206335641e+00
1.974247749259926188e+00
1.974247749259926188e+00
2.548765282143620414e+00
2.548765282143620414e+00
3.116532609027375056e+00
3.116532609027375056e+00
3.258099429303872974e+00
3.258099429303872974e+00
3.112970000305185447e+00
3.112970000305185447e+00
2.740583635975218701e+00
2.740583635975218701e+00
2.237505783257545566e+00
2.237505783257545566e+00
2.237505783257545566e+00
1.930183904538102402e+00
1.930183904538102402e+00
2.180316537980285130e+00
2.180316537980285130e+00
2.389010406811731269e+00
2.389010406811731269e+00
2.620204962309641061e+00
2.620204962309641061e+00
2.788022583697012280e+00
2.788022583697012280e+00
2.752959013641773645e+00
2.752959013641773645e+00
2.644580706198309095e+00
2.644580706198309095e+00
2.542202581865901756e+00
2.542202581865901756e+00
2.542202581865901756e+00
2.426699056978057101e+00
2.426699056978057101e+00
2.299382671590319838e+00
2.299382671590319838e+00
2.150878139591662741e+00
2.150878139591662741e+00
1.995060884426404613e+00
1.995060884426404613e+00
1.957747245704519745e+00
1.957747245704519745e+00
1.898120426038392372e+00
1.898120426038392372e+00
1.936559099093600356e+00
1.936559099093600356e+00
2.318320749534592551e+00
2.318320749534592551e+00
2.318320749534592551e+00
2.425011505478072316e+00
2.425011505478072316e+00
2.369697317423017147e+00
2.369697317423017147e+00
2.418823816644795066e+00
2.418823816644795066e+00
2.413761162144840711e+00
2.413761162144840711e+00
2.292632465590380253e+00
2.292632465590380253e+00
2.031436994537187068e+00
2.031436994537187068e+00
1.946309396649067658e+00
1.946309396649067658e+00
1.993935850093081497e+00
1.993935850093081497e+00
2.117689626758628929e+00
2.117689626758628929e+00
2.262069032868434526e+00
2.262069032868434526e+00
2.262069032868434526e+00
2.486138370921964214e+00
2.486138370921964214e+00
2.501138828699606353e+00
2.501138828699606353e+00
2.159878414258247670e+00
2.159878414258247670e+00
2.088626239814447505e+00
2.088626239814447505e+00
1.990185735648670962e+00
1.990185735648670962e+00
1.695989257484664448e+00
1.695989257484664448e+00
1.997873470259712514e+00
1.997873470259712514e+00
2.676269173253578604e+00
2.676269173253578604e+00
2.676269173253578604e+00
2.995216406750694560e+00
2.995216406750694560e+00
3.267474715414898867e+00
3.267474715414898867e+00
3.151783684804834174e+00
3.151783684804834174e+00
2.778647297585985942e+00
2.778647297585985942e+00
2.420698873867000778e+00
2.420698873867000778e+00
2.209192419202246516e+00
2.209192419202246516e+00
2.214067567979979945e+00
2.214067567979979945e+00
2.085251136814477935e+00
2.085251136814477935e+00
2.085251136814477935e+00
1.974622760704367153e+00
1.974622760704367153e+00
2.032562028870509963e+00
2.032562028870509963e+00
2.233943174535355514e+00
2.233943174535355514e+00
2.527764641254921063e+00
2.527764641254921063e+00
2.436824365977965812e+00
2.436824365977965812e+00
2.281382122257148648e+00
2.281382122257148648e+00
2.410386059144871140e+00
2.410386059144871140e+00
2.491576036866359534e+00
2.491576036866359534e+00
2.491576036866359534e+00
2.472825464644306859e+00
2.472825464644306859e+00
2.527952146977141545e+00
2.527952146977141545e+00
2.540890041810357936e+00
2.540890041810357936e+00
2.403448347422711961e+00
2.403448347422711961e+00
2.460825098422192880e+00
2.460825098422192880e+00
2.252506241035188150e+00
2.252506241035188150e+00
1.998060975981932996e+00
1.998060975981932996e+00
1.838306100650044295e+00
1.838306100650044295e+00
1.838306100650044295e+00
1.621736991485335899e+00
1.621736991485335899e+00
1.587048432874538451e+00
1.587048432874538451e+00
1.609361613818780956e+00
1.609361613818780956e+00
1.774179143650624013e+00
1.774179143650624013e+00
2.148253059480575100e+00
2.148253059480575100e+00
2.456512466811120898e+00
2.456512466811120898e+00
2.748646382030701663e+00
2.748646382030701663e+00
3.012466933194982932e+00
3.012466933194982932e+00
2.964652974028748389e+00
2.964652974028748389e+00
2.964652974028748389e+00
2.794397778252510456e+00
2.794397778252510456e+00
2.766084414197210517e+00
2.766084414197210517e+00
2.544265144810327506e+00
2.544265144810327506e+00
2.126689901425214746e+00
2.126689901425214746e+00
1.927558824427014983e+00
1.927558824427014983e+00
1.758241157261879239e+00
1.758241157261879239e+00
1.916870998260445047e+00
1.916870998260445047e+00
2.067813104647969080e+00
2.067813104647969080e+00
2.067813104647969080e+00
2.383197729422894984e+00
2.383197729422894984e+00
2.556453016754661967e+00
2.556453016754661967e+00
2.445637134922330258e+00
2.445637134922330258e+00
2.511451643421735547e+00
2.511451643421735547e+00
2.769084505752739123e+00
2.769084505752739123e+00
2.783897457808160780e+00
2.783897457808160780e+00
2.522889492477187634e+00
2.522889492477187634e+00
2.322070863979003530e+00
2.322070863979003530e+00
2.322070863979003530e+00
2.217630176702169997e+00
2.217630176702169997e+00
2.196254524369030126e+00
2.196254524369030126e+00
2.317758232367931104e+00
2.317758232367931104e+00
2.451262306588946061e+00
2.451262306588946061e+00
2.465137730033265306e+00
2.465137730033265306e+00
2.222505325479903426e+00
2.222505325479903426e+00
1.958122257148960932e+00
1.958122257148960932e+00
1.836993560594500696e+00
1.836993560594500696e+00
1.836993560594500696e+00
1.863431867427594923e+00
1.863431867427594923e+00
2.085063631092257452e+00
2.085063631092257452e+00
2.259256447035126847e+00
2.259256447035126847e+00
2.445262123477889293e+00
2.445262123477889293e+00
2.509014069032868388e+00
2.509014069032868388e+00
2.558703085421308199e+00
2.558703085421308199e+00
2.609704641865290942e+00
2.609704641865290942e+00
2.503576403088473068e+00
2.503576403088473068e+00
2.503576403088473068e+00
2.309320474868007622e+00
2.309320474868007622e+00
2.198129581591235393e+00
2.198129581591235393e+00
2.189691824091311467e+00
2.189691824091311467e+00
2.151065645313883223e+00
2.151065645313883223e+00
2.095751457258827610e+00
2.095751457258827610e+00
2.117877132480849411e+00
2.117877132480849411e+00
2.185941709646900932e+00
2.185941709646900932e+00
2.302007751701407035e+00
2.302007751701407035e+00
2.251381206701864812e+00
2.251381206701864812e+00
2.251381206701864812e+00
2.359572008423108880e+00
2.359572008423108880e+00
2.642893154698324754e+00
2.642893154698324754e+00
2.707020111697744813e+00
2.707020111697744813e+00
2.800397961363566779e+00
2.800397961363566779e+00
2.728583269753105167e+00
2.728583269753105167e+00
2.432136722922452865e+00
2.432136722922452865e+00
2.356384411145359792e+00
2.356384411145359792e+00
2.240130863368633207e+00
2.240130863368633207e+00
2.240130863368633207e+00
2.138502761925107798e+00
2.138502761925107798e+00
2.158940885647145258e+00
2.158940885647145258e+00
2.158565874202703849e+00
2.158565874202703849e+00
2.376822534867396808e+00
2.376822534867396808e+00
2.578391186254463285e+00
2.578391186254463285e+00
2.555515488143559111e+00
2.555515488143559111e+00
2.455387432477798004e+00
2.455387432477798004e+00
2.363884640034180418e+00
2.363884640034180418e+00
2.363884640034180418e+00
2.314383129367961978e+00
2.314383129367961978e+00
2.274819421979430434e+00
2.274819421979430434e+00
2.136815210425123013e+00
2.136815210425123013e+00
2.054687704092532208e+00
2.054687704092532208e+00
2.146565507980590315e+00
2.146565507980590315e+00
2.095563951536606684e+00
2.095563951536606684e+00
2.234880703146458369e+00
2.234880703146458369e+00
2.322070863979003530e+00
2.322070863979003530e+00
2.289257362590411127e+00
2.289257362590411127e+00
2.289257362590411127e+00
2.346259102145451525e+00
2.346259102145451525e+00
2.416386242255928352e+00
2.416386242255928352e+00
2.458575029755546648e+00
2.458575029755546648e+00
2.501326334421826836e+00
2.501326334421826836e+00
2.492701071199682428e+00
2.492701071199682428e+00
2.348321665089877275e+00
2.348321665089877275e+00
2.185754203924680450e+00
2.185754203924680450e+00
2.140377819147312621e+00
2.140377819147312621e+00
2.104001709036531054e+00
2.104001709036531054e+00
2.104001709036531054e+00
2.125002349925229961e+00
2.125002349925229961e+00
2.099689077425458628e+00
2.099689077425458628e+00
2.130627521591845319e+00
2.130627521591845319e+00
2.232255623035371173e+00
2.232255623035371173e+00
2.299195165868098911e+00
2.299195165868098911e+00
2.486138370921964214e+00
2.486138370921964214e+00
2.563015717032380181e+00
2.563015717032380181e+00
2.466075258644368162e+00
2.466075258644368162e+00
2.466075258644368162e+00
2.540140018921475562e+00
2.540140018921475562e+00
2.522889492477187634e+00
2.522889492477187634e+00
2.415823725089266905e+00
2.415823725089266905e+00
2.330321115756706529e+00
2.330321115756706529e+00
2.219692739646595747e+00
2.219692739646595747e+00
2.046062440870388244e+00
2.046062440870388244e+00
1.913683400982696181e+00
1.913683400982696181e+00
1.987373149815363060e+00
1.987373149815363060e+00
1.987373149815363060e+00
2.150878139591662741e+00
2.150878139591662741e+00
2.378697592089602519e+00
2.378697592089602519e+00
2.341758964812158617e+00
2.341758964812158617e+00
2.337071321756645670e+00
2.337071321756645670e+00
2.597141758476516404e+00
2.597141758476516404e+00
2.727270729697561347e+00
2.727270729697561347e+00
2.866962492751853997e+00
2.866962492751853997e+00
2.791210180974761368e+00
2.791210180974761368e+00
2.791210180974761368e+00
2.617017365031891973e+00
2.617017365031891973e+00
2.493826105533005766e+00
2.493826105533005766e+00
2.308945463423566213e+00
2.308945463423566213e+00
2.170941251869258792e+00
2.170941251869258792e+00
2.013061433759574914e+00
2.013061433759574914e+00
1.984373058259834677e+00
1.984373058259834677e+00
2.015686513870662555e+00
2.015686513870662555e+00
2.115814569536424106e+00
2.115814569536424106e+00
2.115814569536424106e+00
2.296570085757011714e+00
2.296570085757011714e+00
2.503951414532914033e+00
2.503951414532914033e+00
2.604641987365337030e+00
2.604641987365337030e+00
2.713770317697683954e+00
2.713770317697683954e+00
2.674394116031373336e+00
2.674394116031373336e+00
2.464575212866603859e+00
2.464575212866603859e+00
2.337258827478866152e+00
2.337258827478866152e+00
2.176003906369212704e+00
2.176003906369212704e+00
2.176003906369212704e+00
2.121627246925260390e+00
2.121627246925260390e+00
2.158378368480483367e+00
2.158378368480483367e+00
2.155753288369396170e+00
2.155753288369396170e+00
2.237505783257545566e+00
2.237505783257545566e+00
2.280819605090487201e+00
2.280819605090487201e+00
2.217255165257729033e+00
2.217255165257729033e+00
2.270319284646137969e+00
2.270319284646137969e+00
2.351696768089846401e+00
2.351696768089846401e+00
2.269194250312814631e+00
2.269194250312814631e+00
2.282882168034912951e+00
2.282882168034912951e+00
2.282882168034912951e+00
2.182191595202490397e+00
2.182191595202490397e+00
2.183691640980254700e+00
2.183691640980254700e+00
2.243505966368602778e+00
2.243505966368602778e+00
2.273131870479445649e+00
2.273131870479445649e+00
2.309882992034669069e+00
2.309882992034669069e+00
2.435886837366862956e+00
2.435886837366862956e+00
2.401198278756065729e+00
2.401198278756065729e+00
2.337446333201086635e+00
2.337446333201086635e+00
2.337446333201086635e+00
2.345321573534348669e+00
2.345321573534348669e+00
2.388822901089510786e+00
2.388822901089510786e+00
2.410198553422650658e+00
2.410198553422650658e+00
2.248943632312997654e+00
2.248943632312997654e+00
2.192879421369060555e+00
2.192879421369060555e+00
2.291319925534837321e+00
2.291319925534837321e+00
2.245193517868587563e+00
2.245193517868587563e+00
2.192504409924619146e+00
2.192504409924619146e+00
2.288694845423749680e+00
2.288694845423749680e+00
2.420886379589221260e+00
2.420886379589221260e+00
2.420886379589221260e+00
2.545765190588091809e+00
2.545765190588091809e+00
2.611579699087496653e+00
2.611579699087496653e+00
2.596391735587634031e+00
2.596391735587634031e+00
2.552515396588030505e+00
2.552515396588030505e+00
2.516326792199468976e+00
2.516326792199468976e+00
2.466075258644368162e+00
2.466075258644368162e+00
2.399135715811639535e+00
2.399135715811639535e+00
2.212005005035553751e+00
2.212005005035553751e+00
2.212005005035553751e+00
2.163816034424878687e+00
2.163816034424878687e+00
2.206379833368938392e+00
2.206379833368938392e+00
2.149003082369457029e+00
2.149003082369457029e+00
2.220067751091036712e+00
2.220067751091036712e+00
2.195316995757927270e+00
2.195316995757927270e+00
2.126127384258552855e+00
2.126127384258552855e+00
2.239755851924192243e+00
2.239755851924192243e+00
2.276694479201635701e+00
2.276694479201635701e+00
2.276694479201635701e+00
2.294695028534806447e+00
2.294695028534806447e+00
2.328633564256721744e+00
2.328633564256721744e+00
2.274256904812768987e+00
2.274256904812768987e+00
2.208442396313364142e+00
2.208442396313364142e+00
2.345884090701010116e+00
2.345884090701010116e+00
2.406073427533799602e+00
2.406073427533799602e+00
2.532827295754875419e+00
2.532827295754875419e+00
2.463450178533280521e+00
2.463450178533280521e+00
2.463450178533280521e+00
2.411511093478194478e+00
2.411511093478194478e+00
2.474325510422071162e+00
2.474325510422071162e+00
2.358634479812006024e+00
2.358634479812006024e+00
2.313070589312418157e+00
2.313070589312418157e+00
2.381510177922910199e+00
2.381510177922910199e+00
2.390885464033936536e+00
2.390885464033936536e+00
2.438699423200171079e+00
2.438699423200171079e+00
2.439074434644612044e+00
2.439074434644612044e+00
2.439074434644612044e+00
2.396323129978331856e+00
2.396323129978331856e+00
2.423886471144749422e+00
2.423886471144749422e+00
2.364259651478621826e+00
2.364259651478621826e+00
2.313820612201300086e+00
2.313820612201300086e+00
2.376635029145176325e+00
2.376635029145176325e+00
2.218942716757713818e+00
2.218942716757713818e+00
2.100251594592120075e+00
2.100251594592120075e+00
2.072313241981261545e+00
2.072313241981261545e+00
2.072313241981261545e+00
1.996373424481948211e+00
1.996373424481948211e+00
2.022436719870601696e+00
2.022436719870601696e+00
2.123127292703024249e+00
2.123127292703024249e+00
2.157628345591601438e+00
2.157628345591601438e+00
2.324133426923429280e+00
2.324133426923429280e+00
2.465700247199926753e+00
2.465700247199926753e+00
2.555140476699118146e+00
2.555140476699118146e+00
2.600141850032044566e+00
2.600141850032044566e+00
2.600141850032044566e+00
2.502638874477370656e+00
2.502638874477370656e+00
2.457449995422223310e+00
2.457449995422223310e+00
2.495326151310770069e+00
2.495326151310770069e+00
2.314758140812402942e+00
2.314758140812402942e+00
2.204317270424512643e+00
2.204317270424512643e+00
2.157815851313821920e+00
2.157815851313821920e+00
2.080000976592303541e+00
2.080000976592303541e+00
2.038187200537125765e+00
2.038187200537125765e+00
2.038187200537125765e+00
2.022436719870601696e+00
2.022436719870601696e+00
2.081501022370067400e+00
2.081501022370067400e+00
2.221380291146580532e+00
2.221380291146580532e+00
2.300320200201422249e+00
2.300320200201422249e+00
2.429511642811365224e+00
2.429511642811365224e+00
2.573891048921170377e+00
2.573891048921170377e+00
2.600516861476485531e+00
2.600516861476485531e+00
2.632767845698416043e+00
2.632767845698416043e+00
2.652830957976012538e+00
2.652830957976012538e+00
2.540702536088137453e+00
2.540702536088137453e+00
2.540702536088137453e+00
2.418636310922574584e+00
2.418636310922574584e+00
2.257943906979583026e+00
2.257943906979583026e+00
2.121439741203039464e+00
2.121439741203039464e+00
2.032187017426068998e+00
2.032187017426068998e+00
1.952497085482345129e+00
1.952497085482345129e+00
1.998623493148594665e+00
1.998623493148594665e+00
2.141502853480635959e+00
2.141502853480635959e+00
2.241630909146397510e+00
2.241630909146397510e+00
2.241630909146397510e+00
2.379260109256263966e+00
2.379260109256263966e+00
2.574266060365611786e+00
2.574266060365611786e+00
2.656768578142643555e+00
2.656768578142643555e+00
2.735708487197485272e+00
2.735708487197485272e+00
2.623767571031830670e+00
2.623767571031830670e+00
2.447887203588976490e+00
2.447887203588976490e+00
2.344196539201025331e+00
2.344196539201025331e+00
2.212755027924436124e+00
2.212755027924436124e+00
2.157628345591601438e+00
2.157628345591601438e+00
2.157628345591601438e+00
2.193629444257942485e+00
2.193629444257942485e+00
2.213692556535538980e+00
2.213692556535538980e+00
2.307445417645802355e+00
2.307445417645802355e+00
2.349259193700979687e+00
2.349259193700979687e+00
2.347571642200994901e+00
2.347571642200994901e+00
2.396323129978331856e+00
2.396323129978331856e+00
2.354696859645375007e+00
2.354696859645375007e+00
2.293757499923703591e+00
2.293757499923703591e+00
2.339696401867732423e+00
2.339696401867732423e+00
2.208629902035584625e+00
2.208629902035584625e+00
2.208629902035584625e+00
2.119752189703054679e+00
2.119752189703054679e+00
2.007623767815180038e+00
2.007623767815180038e+00
1.943121799371318792e+00
1.943121799371318792e+00
2.030499465926084213e+00
2.030499465926084213e+00
2.167003631702627775e+00
2.167003631702627775e+00
2.299382671590319838e+00
2.299382671590319838e+00
2.440386974700155864e+00
2.440386974700155864e+00
2.394823084200567997e+00
2.394823084200567997e+00
2.407010956144902014e+00
2.407010956144902014e+00
2.555702993865779593e+00
2.555702993865779593e+00
2.555702993865779593e+00
2.550452833643604755e+00
2.550452833643604755e+00
2.561140659810174913e+00
2.561140659810174913e+00
2.561890682699057287e+00
2.561890682699057287e+00
2.365384685811944721e+00
2.365384685811944721e+00
2.272194341868343237e+00
2.272194341868343237e+00
2.213317545091097571e+00
2.213317545091097571e+00
2.170753746147038310e+00
2.170753746147038310e+00
2.229630542924283532e+00
2.229630542924283532e+00
2.229630542924283532e+00
2.231318094424268317e+00
2.231318094424268317e+00
2.249318643757439062e+00
2.249318643757439062e+00
2.320383312479018745e+00
2.320383312479018745e+00
2.353009308145390222e+00
2.353009308145390222e+00
2.417511276589251690e+00
2.417511276589251690e+00
2.426886562700277583e+00
2.426886562700277583e+00
2.347946653645436310e+00
2.347946653645436310e+00
2.348134159367656792e+00
2.348134159367656792e+00
2.348134159367656792e+00
2.318133243812372069e+00
2.318133243812372069e+00
2.216130130924405695e+00
2.216130130924405695e+00
2.207692373424482213e+00
2.207692373424482213e+00
2.141127842036194995e+00
2.141127842036194995e+00
2.090126285592211808e+00
2.090126285592211808e+00
2.160253425702688634e+00
2.160253425702688634e+00
2.250068666646320992e+00
2.250068666646320992e+00
2.345134067812128187e+00
2.345134067812128187e+00
2.374197454756310055e+00
2.374197454756310055e+00
2.374197454756310055e+00
2.338571367534409973e+00
2.338571367534409973e+00
2.374197454756310055e+00
2.374197454756310055e+00
2.377385052034058699e+00
2.377385052034058699e+00
2.331633655812249906e+00
2.331633655812249906e+00
2.387510361033966966e+00
2.387510361033966966e+00
2.320945829645680192e+00
2.320945829645680192e+00
2.271069307535019899e+00
2.271069307535019899e+00
2.290194891201513983e+00
2.290194891201513983e+00
2.290194891201513983e+00
2.264131595812860720e+00
2.264131595812860720e+00
2.301257728812525105e+00
2.301257728812525105e+00
2.406823450422681532e+00
2.406823450422681532e+00
2.429511642811365224e+00
2.429511642811365224e+00
2.441699514755699685e+00
2.441699514755699685e+00
2.437386883144627259e+00
2.437386883144627259e+00
2.435511825922421991e+00
2.435511825922421991e+00
2.491201025421918569e+00
2.491201025421918569e+00
2.438886928922391562e+00
2.438886928922391562e+00
2.401385784478286212e+00
2.401385784478286212e+00
2.401385784478286212e+00
2.425761528366954689e+00
2.425761528366954689e+00
2.279882076479384789e+00
2.279882076479384789e+00
2.211067476424451339e+00
2.211067476424451339e+00
2.150690633869442259e+00
2.150690633869442259e+00
2.021124179815057875e+00
2.021124179815057875e+00
2.035937131870479533e+00
2.035937131870479533e+00
2.092001342814417075e+00
2.092001342814417075e+00
2.167378643147068740e+00
2.167378643147068740e+00
2.167378643147068740e+00
2.285507248146000592e+00
2.285507248146000592e+00
2.309320474868007622e+00
2.309320474868007622e+00
2.327133518478957885e+00
2.327133518478957885e+00
2.366322214423047576e+00
2.366322214423047576e+00
2.314195623645741495e+00
2.314195623645741495e+00
2.340633930478835278e+00
2.340633930478835278e+00
2.359196996978667915e+00
2.359196996978667915e+00
2.262631550035096417e+00
2.262631550035096417e+00
2.262631550035096417e+00
2.238818323313089387e+00
2.238818323313089387e+00
2.234880703146458369e+00
2.234880703146458369e+00
2.292257454145939732e+00
2.292257454145939732e+00
2.429324137089144742e+00
2.429324137089144742e+00
2.453512375255592737e+00
2.453512375255592737e+00
2.448262215033417899e+00
2.448262215033417899e+00
2.444324594866786882e+00
2.444324594866786882e+00
2.415823725089266905e+00
2.415823725089266905e+00
2.449574755088961275e+00
2.449574755088961275e+00
2.449574755088961275e+00
2.434761803033539618e+00
2.434761803033539618e+00
2.357321939756462204e+00
2.357321939756462204e+00
2.392948026978362286e+00
2.392948026978362286e+00
2.319633289590136371e+00
2.319633289590136371e+00
2.219505233924375265e+00
2.219505233924375265e+00
2.206754844813379357e+00
2.206754844813379357e+00
2.159315897091586223e+00
2.159315897091586223e+00
2.111126926480910715e+00
2.111126926480910715e+00
2.111126926480910715e+00
2.149190588091677956e+00
2.149190588091677956e+00
2.179941526535844165e+00
2.179941526535844165e+00
2.260756492812891150e+00
2.260756492812891150e+00
2.337821344645527599e+00
2.337821344645527599e+00
2.365009674367503756e+00
2.365009674367503756e+00
2.443012054811243061e+00
2.443012054811243061e+00
2.453699880977813219e+00
2.453699880977813219e+00
2.403073335978270997e+00
2.403073335978270997e+00
2.461575121311075254e+00
2.461575121311075254e+00
2.461575121311075254e+00
2.353009308145390222e+00
2.353009308145390222e+00
2.277256996368297592e+00
2.277256996368297592e+00
2.253443769646290562e+00
2.253443769646290562e+00
2.160440931424909561e+00
2.160440931424909561e+00
2.140752830591753586e+00
2.140752830591753586e+00
2.149753105258339403e+00
2.149753105258339403e+00
2.129502487258521981e+00
2.129502487258521981e+00
2.123689809869686140e+00
2.123689809869686140e+00
2.120314706869716570e+00
2.120314706869716570e+00
2.120314706869716570e+00
2.152940702536088047e+00
2.152940702536088047e+00
2.260943998535111632e+00
2.260943998535111632e+00
2.302195257423627517e+00
2.302195257423627517e+00
2.397635670033875677e+00
2.397635670033875677e+00
2.525514572588274831e+00
2.525514572588274831e+00
2.459887569811090469e+00
2.459887569811090469e+00
2.510514114810632691e+00
2.510514114810632691e+00
2.459137546922208095e+00
2.459137546922208095e+00
2.459137546922208095e+00
2.380010132145145896e+00
2.380010132145145896e+00
2.414698690755943566e+00
2.414698690755943566e+00
2.394635578478347071e+00
2.394635578478347071e+00
2.341008941923276243e+00
2.341008941923276243e+00
2.252693746757408633e+00
2.252693746757408633e+00
2.176003906369212704e+00
2.176003906369212704e+00
2.218567705313272853e+00
2.218567705313272853e+00
2.260568987090670667e+00
2.260568987090670667e+00
2.260568987090670667e+00
2.238255806146427940e+00
2.238255806146427940e+00
2.328258552812280335e+00
2.328258552812280335e+00
2.383385235145115466e+00
2.383385235145115466e+00
2.374197454756310055e+00
2.374197454756310055e+00
2.454824915311136557e+00
2.454824915311136557e+00
2.439074434644612044e+00
2.439074434644612044e+00
2.342508987701040546e+00
2.342508987701040546e+00
2.289257362590411127e+00
2.289257362590411127e+00
2.227567979979857782e+00
2.227567979979857782e+00
2.227567979979857782e+00
2.257193884090700653e+00
2.257193884090700653e+00
2.316633198034607766e+00
2.316633198034607766e+00
2.332008667256691314e+00
2.332008667256691314e+00
2.378135074922940628e+00
2.378135074922940628e+00
2.364634662923062791e+00
2.364634662923062791e+00
2.317383220923490139e+00
2.317383220923490139e+00
2.406448438978240567e+00
2.406448438978240567e+00
2.338758873256630455e+00
2.338758873256630455e+00
2.249318643757439062e+00
2.249318643757439062e+00
2.249318643757439062e+00
2.234505691702016961e+00
2.234505691702016961e+00
2.185754203924680450e+00
2.185754203924680450e+00
2.189129306924649576e+00
2.189129306924649576e+00
2.244631000701926116e+00
2.244631000701926116e+00
2.263569078646198829e+00
2.263569078646198829e+00
2.312133060701315301e+00
2.312133060701315301e+00
2.335383770256660885e+00
2.335383770256660885e+00
2.339508896145511940e+00
2.339508896145511940e+00
2.339508896145511940e+00
2.396698141422773265e+00
2.396698141422773265e+00
2.367072237311929506e+00
2.367072237311929506e+00
2.341946470534379099e+00
2.341946470534379099e+00
2.404573381756035300e+00
2.404573381756035300e+00
2.290382396923734465e+00
2.290382396923734465e+00
2.239943357646412725e+00
2.239943357646412725e+00
2.224192876979888212e+00
2.224192876979888212e+00
2.161003448591571008e+00
2.161003448591571008e+00
2.161003448591571008e+00
2.176003906369212704e+00
2.176003906369212704e+00
2.203192236091189304e+00
2.203192236091189304e+00
2.241443403424177028e+00
2.241443403424177028e+00
2.327508529923398850e+00
2.327508529923398850e+00
2.355634388256477418e+00
2.355634388256477418e+00
2.388635395367290304e+00
2.388635395367290304e+00
2.431574205755790974e+00
2.431574205755790974e+00
2.374009949034089573e+00
2.374009949034089573e+00
2.368572283089693808e+00
2.368572283089693808e+00
2.368572283089693808e+00
2.358259468367565059e+00
2.358259468367565059e+00
2.214255073702200427e+00
2.214255073702200427e+00
2.184629169591357556e+00
2.184629169591357556e+00
2.161190954313791490e+00
2.161190954313791490e+00
2.143565416425061709e+00
2.143565416425061709e+00
2.200567155980101663e+00
2.200567155980101663e+00
2.219317728202154782e+00
2.219317728202154782e+00
2.257568895535142062e+00
2.257568895535142062e+00
2.257568895535142062e+00
2.299382671590319838e+00
2.299382671590319838e+00
2.314758140812402942e+00
2.314758140812402942e+00
2.390885464033936536e+00
2.390885464033936536e+00
2.421636402478102745e+00
2.421636402478102745e+00
2.376635029145176325e+00
2.376635029145176325e+00
2.454637409588916075e+00
2.454637409588916075e+00
2.451262306588946061e+00
2.451262306588946061e+00
2.365947202978606612e+00
2.365947202978606612e+00
2.375322489089632505e+00
2.375322489089632505e+00
2.375322489089632505e+00
2.323945921201208797e+00
2.323945921201208797e+00
2.283257179479354360e+00
2.283257179479354360e+00
2.300320200201422249e+00
2.300320200201422249e+00
2.270319284646137969e+00
2.270319284646137969e+00
2.313258095034638639e+00
2.313258095034638639e+00
2.349821710867641578e+00
2.349821710867641578e+00
2.348696676534318240e+00
2.348696676534318240e+00
2.396135624256111374e+00
2.396135624256111374e+00
2.396135624256111374e+00
2.377010040589617734e+00
2.377010040589617734e+00
2.329383587145603673e+00
2.329383587145603673e+00
2.377572557756279181e+00
2.377572557756279181e+00
2.285694753868221074e+00
2.285694753868221074e+00
2.222880336924344391e+00
2.222880336924344391e+00
2.207504867702261730e+00
2.207504867702261730e+00
2.150690633869442259e+00
2.150690633869442259e+00
2.148253059480575100e+00
2.148253059480575100e+00
2.148253059480575100e+00
2.168503677480392078e+00
2.168503677480392078e+00
2.171878780480361648e+00
2.171878780480361648e+00
2.244255989257484707e+00
2.244255989257484707e+00
2.311195532090212890e+00
2.311195532090212890e+00
2.359384502700888397e+00
2.359384502700888397e+00
2.439261940366832526e+00
2.439261940366832526e+00
2.420323862422559369e+00
2.420323862422559369e+00
2.439449446089053009e+00
2.439449446089053009e+00
2.439449446089053009e+00
2.500201300088503942e+00
2.500201300088503942e+00
2.401385784478286212e+00
2.401385784478286212e+00
2.335383770256660885e+00
2.335383770256660885e+00
2.255318826868495830e+00
2.255318826868495830e+00
2.183316629535813735e+00
2.183316629535813735e+00
2.179003997924741309e+00
2.179003997924741309e+00
2.190629352702413879e+00
2.190629352702413879e+00
2.239943357646412725e+00
2.239943357646412725e+00
2.239943357646412725e+00
2.318883266701254442e+00
2.318883266701254442e+00
2.345134067812128187e+00
2.345134067812128187e+00
2.397448164311655194e+00
2.397448164311655194e+00
2.439261940366832526e+00
2.439261940366832526e+00
2.373447431867427682e+00
2.373447431867427682e+00
2.401198278756065729e+00
2.401198278756065729e+00
2.385447798089541660e+00
2.385447798089541660e+00
2.262444044312875935e+00
2.262444044312875935e+00
2.238068300424207457e+00
2.238068300424207457e+00
2.183316629535813735e+00
2.183316629535813735e+00
2.183316629535813735e+00
2.155378276924954761e+00
2.155378276924954761e+00
2.208067384868923178e+00
2.208067384868923178e+00
2.227192968535416817e+00
2.227192968535416817e+00
2.286632282479323930e+00
2.286632282479323930e+00
2.356009399700918827e+00
2.356009399700918827e+00
2.363509628589739453e+00
2.363509628589739453e+00
2.418823816644795066e+00
2.418823816644795066e+00
2.414323679311502602e+00
2.414323679311502602e+00
2.414323679311502602e+00
2.347759147923215384e+00
2.347759147923215384e+00
2.405885921811578676e+00
2.405885921811578676e+00
2.327508529923398850e+00
2.327508529923398850e+00
2.224192876979888212e+00
2.224192876979888212e+00
2.207317361980041248e+00
2.207317361980041248e+00
2.154628254036072832e+00
2.154628254036072832e+00
2.156878322702719064e+00
2.156878322702719064e+00
2.209004913480026033e+00
2.209004913480026033e+00
2.209004913480026033e+00
2.227755485702078264e+00
2.227755485702078264e+00
2.292819971312600735e+00
2.292819971312600735e+00
2.350196722312082542e+00
2.350196722312082542e+00
2.374197454756310055e+00
2.374197454756310055e+00
2.429324137089144742e+00
2.429324137089144742e+00
2.402510818811609106e+00
2.402510818811609106e+00
2.373634937589648164e+00
2.373634937589648164e+00
2.441324503311258276e+00
2.441324503311258276e+00
2.335008758812219920e+00
2.335008758812219920e+00
2.335008758812219920e+00
2.256068849757378203e+00
2.256068849757378203e+00
2.219317728202154782e+00
2.219317728202154782e+00
2.154440748313852350e+00
2.154440748313852350e+00
2.145440473647266977e+00
2.145440473647266977e+00
2.154815759758293314e+00
2.154815759758293314e+00
2.192691915646840073e+00
2.192691915646840073e+00
2.267694204535050773e+00
2.267694204535050773e+00
2.282319650868251504e+00
2.282319650868251504e+00
2.319070772423474924e+00
2.319070772423474924e+00
2.319070772423474924e+00
2.401573290200506694e+00
2.401573290200506694e+00
2.392573015533921321e+00
2.392573015533921321e+00
2.454074892422254184e+00
2.454074892422254184e+00
2.489138462477492819e+00
2.489138462477492819e+00
2.362759605700857524e+00
2.362759605700857524e+00
2.319633289590136371e+00
2.319633289590136371e+00
2.266381664479506952e+00
2.266381664479506952e+00
2.215755119479964730e+00
2.215755119479964730e+00
2.215755119479964730e+00
2.241068391979735619e+00
2.241068391979735619e+00
2.231505600146489243e+00
2.231505600146489243e+00
2.263569078646198829e+00
2.263569078646198829e+00
2.334446241645558029e+00
2.334446241645558029e+00
2.363322122867518971e+00
