2.385072786645100695e+00
2.385072786645100695e+00
2.385072786645100695e+00
2.365759697256386129e+00
2.365759697256386129e+00
2.365759697256386129e+00
2.277256996368297592e+00
2.277256996368297592e+00
2.277256996368297592e+00
2.277256996368297592e+00
2.258318918424023991e+00
2.258318918424023991e+00
2.258318918424023991e+00
2.225317911313211550e+00
2.225317911313211550e+00
2.225317911313211550e+00
2.204317270424512643e+00
2.204317270424512643e+00
2.204317270424512643e+00
2.204317270424512643e+00
2.233380657368694511e+00
2.233380657368694511e+00
2.233380657368694511e+00
2.241255897701956545e+00
2.241255897701956545e+00
2.241255897701956545e+00
2.289257362590411127e+00
2.289257362590411127e+00
2.289257362590411127e+00
2.289257362590411127e+00
2.328446058534500818e+00
2.328446058534500818e+00
2.328446058534500818e+00
2.338196356089969008e+00
2.338196356089969008e+00
2.338196356089969008e+00
2.338196356089969008e+00
2.392385509811700839e+00
2.392385509811700839e+00
2.392385509811700839e+00
2.396135624256111374e+00
2.396135624256111374e+00
2.396135624256111374e+00
2.362572099978637485e+00
2.362572099978637485e+00
2.362572099978637485e+00
2.362572099978637485e+00
2.401385784478286212e+00
2.401385784478286212e+00
2.401385784478286212e+00
2.335758781701101849e+00
2.335758781701101849e+00
2.335758781701101849e+00
2.264319101535081202e+00
2.264319101535081202e+00
2.264319101535081202e+00
2.264319101535081202e+00
2.254193792535172935e+00
2.254193792535172935e+00
2.254193792535172935e+00
2.218755211035493335e+00
2.218755211035493335e+00
2.218755211035493335e+00
2.220817773979919085e+00
2.220817773979919085e+00
2.220817773979919085e+00
2.220817773979919085e+00
2.246693563646351421e+00
2.246693563646351421e+00
2.246693563646351421e+00
2.250256172368541474e+00
2.250256172368541474e+00
2.250256172368541474e+00
2.250256172368541474e+00
2.313258095034638639e+00
2.313258095034638639e+00
2.313258095034638639e+00
2.357509445478682686e+00
2.357509445478682686e+00
2.357509445478682686e+00
2.372134891811884305e+00
2.372134891811884305e+00
2.372134891811884305e+00
2.372134891811884305e+00
2.416948759422589799e+00
2.416948759422589799e+00
2.416948759422589799e+00
2.392010498367259874e+00
2.392010498367259874e+00
2.392010498367259874e+00
2.366697225867488541e+00
2.366697225867488541e+00
2.366697225867488541e+00
2.366697225867488541e+00
2.395760612811670409e+00
2.395760612811670409e+00
2.395760612811670409e+00
2.314758140812402942e+00
2.314758140812402942e+00
2.314758140812402942e+00
2.314758140812402942e+00
2.265631641590625023e+00
2.265631641590625023e+00
2.265631641590625023e+00
2.235818231757560781e+00
2.235818231757560781e+00
2.235818231757560781e+00
2.182754112369151844e+00
2.182754112369151844e+00
2.182754112369151844e+00
2.182754112369151844e+00
2.209004913480026033e+00
2.209004913480026033e+00
2.209004913480026033e+00
2.227005462813196335e+00
2.227005462813196335e+00
2.227005462813196335e+00
2.257006378368480615e+00
2.257006378368480615e+00
2.257006378368480615e+00
2.257006378368480615e+00
2.317383220923490139e+00
2.317383220923490139e+00
2.344384044923245813e+00
2.344384044923245813e+00
2.344384044923245813e+00
2.344384044923245813e+00
2.376822534867396808e+00
2.376822534867396808e+00
2.376822534867396808e+00
2.410948576311533031e+00
2.410948576311533031e+00
2.410948576311533031e+00
2.370822351756340485e+00
2.370822351756340485e+00
2.370822351756340485e+00
2.381135166478469234e+00
2.381135166478469234e+00
2.381135166478469234e+00
2.383572740867336393e+00
2.383572740867336393e+00
2.383572740867336393e+00
2.383572740867336393e+00
2.293194982757042144e+00
2.293194982757042144e+00
2.293194982757042144e+00
2.268069215979491737e+00
2.268069215979491737e+00
2.268069215979491737e+00
2.232443128757591655e+00
2.232443128757591655e+00
2.232443128757591655e+00
2.206192327646717910e+00
2.206192327646717910e+00
2.206192327646717910e+00
2.206192327646717910e+00
2.242755943479720404e+00
2.242755943479720404e+00
2.242755943479720404e+00
2.245381023590808045e+00
2.245381023590808045e+00
2.245381023590808045e+00
2.245381023590808045e+00
2.281944639423810539e+00
2.281944639423810539e+00
2.281944639423810539e+00
2.333883724478896582e+00
2.333883724478896582e+00
2.333883724478896582e+00
2.345321573534348669e+00
2.345321573534348669e+00
2.345321573534348669e+00
2.392198004089480357e+00
2.392198004089480357e+00
2.392198004089480357e+00
2.392198004089480357e+00
2.404948393200476264e+00
2.404948393200476264e+00
2.404948393200476264e+00
2.362197088534196077e+00
2.362197088534196077e+00
2.362197088534196077e+00
2.362197088534196077e+00
2.392385509811700839e+00
2.392385509811700839e+00
2.392385509811700839e+00
2.349071687978759204e+00
2.349071687978759204e+00
2.349071687978759204e+00
2.266381664479506952e+00
2.266381664479506952e+00
2.266381664479506952e+00
2.266381664479506952e+00
2.243693472090823260e+00
2.243693472090823260e+00
2.243693472090823260e+00
2.203004730368968822e+00
2.203004730368968822e+00
2.203004730368968822e+00
2.198879604480116878e+00
2.198879604480116878e+00
2.198879604480116878e+00
2.198879604480116878e+00
2.238255806146427940e+00
2.238255806146427940e+00
2.238255806146427940e+00
2.254943815424054865e+00
2.254943815424054865e+00
2.254943815424054865e+00
2.302195257423627517e+00
2.302195257423627517e+00
2.302195257423627517e+00
2.302195257423627517e+00
2.338008850367748082e+00
2.338008850367748082e+00
2.338008850367748082e+00
2.349259193700979687e+00
2.349259193700979687e+00
2.349259193700979687e+00
2.394260567033906106e+00
2.394260567033906106e+00
2.394260567033906106e+00
2.394260567033906106e+00
2.393510544145024177e+00
2.393510544145024177e+00
2.393510544145024177e+00
2.370259834589678594e+00
2.370259834589678594e+00
2.370259834589678594e+00
2.400823267311624321e+00
2.400823267311624321e+00
2.400823267311624321e+00
2.400823267311624321e+00
2.328821069978942226e+00
2.328821069978942226e+00
2.328821069978942226e+00
2.284194708090456771e+00
2.284194708090456771e+00
2.284194708090456771e+00
2.267319193090609808e+00
2.267319193090609808e+00
2.267319193090609808e+00
2.267319193090609808e+00
2.211817499313333268e+00
2.211817499313333268e+00
2.211817499313333268e+00
2.211254982146671821e+00
2.211254982146671821e+00
2.211254982146671821e+00
2.234130680257575996e+00
2.234130680257575996e+00
2.234130680257575996e+00
2.234130680257575996e+00
2.254381298257393418e+00
2.254381298257393418e+00
2.254381298257393418e+00
2.307820429090243319e+00
2.307820429090243319e+00
2.307820429090243319e+00
2.332008667256691314e+00
2.332008667256691314e+00
2.332008667256691314e+00
2.332008667256691314e+00
2.358071962645344577e+00
2.358071962645344577e+00
2.358071962645344577e+00
2.407573473311563461e+00
2.407573473311563461e+00
2.407573473311563461e+00
2.386385326700643628e+00
2.386385326700643628e+00
2.386385326700643628e+00
2.386385326700643628e+00
2.379447614978484449e+00
2.379447614978484449e+00
2.379447614978484449e+00
2.387885372478407930e+00
2.387885372478407930e+00
2.387885372478407930e+00
2.294320017090365038e+00
2.294320017090365038e+00
2.294320017090365038e+00
2.263381572923978347e+00
2.263381572923978347e+00
2.263381572923978347e+00
2.263381572923978347e+00
2.233005645924253102e+00
2.233005645924253102e+00
2.233005645924253102e+00
2.195129490035706787e+00
2.195129490035706787e+00
2.195129490035706787e+00
2.219130222479934300e+00
2.219130222479934300e+00
2.219130222479934300e+00
2.219130222479934300e+00
2.239380840479750834e+00
2.239380840479750834e+00
2.239380840479750834e+00
2.272756859035004684e+00
2.272756859035004684e+00
2.272756859035004684e+00
2.327321024201178368e+00
2.327321024201178368e+00
2.327321024201178368e+00
2.327321024201178368e+00
2.348509170812097757e+00
2.348509170812097757e+00
2.348509170812097757e+00
2.387885372478407930e+00
2.387885372478407930e+00
2.387885372478407930e+00
2.387885372478407930e+00
2.408511001922666317e+00
2.408511001922666317e+00
2.408511001922666317e+00
2.374197454756310055e+00
2.374197454756310055e+00
2.374197454756310055e+00
2.395198095645008962e+00
2.395198095645008962e+00
2.395198095645008962e+00
2.395198095645008962e+00
2.367822260200811879e+00
2.367822260200811879e+00
2.367822260200811879e+00
2.282694662312692468e+00
2.282694662312692468e+00
2.282694662312692468e+00
2.254006286812952009e+00
2.254006286812952009e+00
2.254006286812952009e+00
2.254006286812952009e+00
2.215942625202185212e+00
2.215942625202185212e+00
2.215942625202185212e+00
2.206004821924497428e+00
2.206004821924497428e+00
2.206004821924497428e+00
2.236005737479781263e+00
2.236005737479781263e+00
2.236005737479781263e+00
2.236005737479781263e+00
2.249693655201880027e+00
2.249693655201880027e+00
2.249693655201880027e+00
2.287382305368205859e+00
2.287382305368205859e+00
2.287382305368205859e+00
2.328446058534500818e+00
2.328446058534500818e+00
2.328446058534500818e+00
2.328446058534500818e+00
2.342508987701040546e+00
2.342508987701040546e+00
2.342508987701040546e+00
2.401010773033844803e+00
2.401010773033844803e+00
2.401010773033844803e+00
2.406823450422681532e+00
2.406823450422681532e+00
2.406823450422681532e+00
2.406823450422681532e+00
2.368572283089693808e+00
2.368572283089693808e+00
2.368572283089693808e+00
2.409261024811548246e+00
2.409261024811548246e+00
2.409261024811548246e+00
2.339321390423291458e+00
2.339321390423291458e+00
2.339321390423291458e+00
2.339321390423291458e+00
2.267131687368389326e+00
2.267131687368389326e+00
2.267131687368389326e+00
2.247443586535233351e+00
2.247443586535233351e+00
2.247443586535233351e+00
2.202442213202307375e+00
2.202442213202307375e+00
2.202442213202307375e+00
2.202442213202307375e+00
2.202442213202307375e+00
2.202442213202307375e+00
2.202442213202307375e+00
2.239755851924192243e+00
2.239755851924192243e+00
2.239755851924192243e+00
2.254381298257393418e+00
2.254381298257393418e+00
2.254381298257393418e+00
2.254381298257393418e+00
2.311758049256874337e+00
2.311758049256874337e+00
2.311758049256874337e+00
2.342508987701040546e+00
2.342508987701040546e+00
2.342508987701040546e+00
2.359196996978667915e+00
2.359196996978667915e+00
2.359196996978667915e+00
2.359196996978667915e+00
2.400448255867183356e+00
2.400448255867183356e+00
2.400448255867183356e+00
2.370447340311899076e+00
2.370447340311899076e+00
2.370447340311899076e+00
2.352634296700948813e+00
2.352634296700948813e+00
2.352634296700948813e+00
2.352634296700948813e+00
2.389947935422834124e+00
2.389947935422834124e+00
2.389947935422834124e+00
2.298632648701437464e+00
2.298632648701437464e+00
2.298632648701437464e+00
2.262631550035096417e+00
2.262631550035096417e+00
2.262631550035096417e+00
2.262631550035096417e+00
2.242380932035279439e+00
2.242380932035279439e+00
2.242380932035279439e+00
2.215005096591082356e+00
2.215005096591082356e+00
2.215005096591082356e+00
2.235443220313119816e+00
2.235443220313119816e+00
2.235443220313119816e+00
2.250443678090761956e+00
2.250443678090761956e+00
2.250443678090761956e+00
2.250443678090761956e+00
2.270881801812799416e+00
2.270881801812799416e+00
2.270881801812799416e+00
2.326383495590075512e+00
2.326383495590075512e+00
2.326383495590075512e+00
2.347384136478774419e+00
2.347384136478774419e+00
2.347384136478774419e+00
2.347384136478774419e+00
2.380197637867366822e+00
2.380197637867366822e+00
2.380197637867366822e+00
2.408323496200445835e+00
2.408323496200445835e+00
2.408323496200445835e+00
2.368197271645252844e+00
2.368197271645252844e+00
2.368197271645252844e+00
2.368197271645252844e+00
2.373072420422986717e+00
2.373072420422986717e+00
2.373072420422986717e+00
2.371009857478560967e+00
2.371009857478560967e+00
2.371009857478560967e+00
2.287194799645985377e+00
2.287194799645985377e+00
2.287194799645985377e+00
2.287194799645985377e+00
2.272944364757225166e+00
2.272944364757225166e+00
2.272944364757225166e+00
2.237505783257545566e+00
2.237505783257545566e+00
2.237505783257545566e+00
2.204879787591174090e+00
2.204879787591174090e+00
2.204879787591174090e+00
2.204879787591174090e+00
2.226067934202093479e+00
2.226067934202093479e+00
2.226067934202093479e+00
2.241443403424177028e+00
2.241443403424177028e+00
2.241443403424177028e+00
2.279507065034943825e+00
2.279507065034943825e+00
2.279507065034943825e+00
2.279507065034943825e+00
2.330133610034486047e+00
2.330133610034486047e+00
2.330133610034486047e+00
2.341196447645496725e+00
2.341196447645496725e+00
2.341196447645496725e+00
2.388072878200628413e+00
2.388072878200628413e+00
2.388072878200628413e+00
2.388072878200628413e+00
2.394448072756126589e+00
2.394448072756126589e+00
2.394448072756126589e+00
2.358446974089785542e+00
2.358446974089785542e+00
2.358446974089785542e+00
2.407948484756004870e+00
2.407948484756004870e+00
2.407948484756004870e+00
2.407948484756004870e+00
2.370072328867458111e+00
2.370072328867458111e+00
2.370072328867458111e+00
2.293194982757042144e+00
2.293194982757042144e+00
2.293194982757042144e+00
2.293194982757042144e+00
2.263381572923978347e+00
2.263381572923978347e+00
2.263381572923978347e+00
2.212380016479995160e+00
2.212380016479995160e+00
2.212380016479995160e+00
2.208817407757805107e+00
2.208817407757805107e+00
2.208817407757805107e+00
2.208817407757805107e+00
2.241818414868617992e+00
2.241818414868617992e+00
2.241818414868617992e+00
2.246318552201910457e+00
2.246318552201910457e+00
2.246318552201910457e+00
2.294132511368144556e+00
2.294132511368144556e+00
2.294132511368144556e+00
2.294132511368144556e+00
2.334071230201117064e+00
2.334071230201117064e+00
2.334071230201117064e+00
2.348696676534318240e+00
2.348696676534318240e+00
2.348696676534318240e+00
2.400635761589403838e+00
2.400635761589403838e+00
2.400635761589403838e+00
2.400635761589403838e+00
2.385260292367321178e+00
2.385260292367321178e+00
2.385260292367321178e+00
2.366509720145268059e+00
2.366509720145268059e+00
2.366509720145268059e+00
2.408698507644886799e+00
2.408698507644886799e+00
2.408698507644886799e+00
2.408698507644886799e+00
2.331258644367808941e+00
2.331258644367808941e+00
2.331258644367808941e+00
2.273506881923887057e+00
2.273506881923887057e+00
2.273506881923887057e+00
2.257943906979583026e+00
2.257943906979583026e+00
2.257943906979583026e+00
2.257943906979583026e+00
2.204879787591174090e+00
2.204879787591174090e+00
2.204879787591174090e+00
2.250443678090761956e+00
2.250443678090761956e+00
2.250443678090761956e+00
2.221942808313242423e+00
2.221942808313242423e+00
2.221942808313242423e+00
2.221942808313242423e+00
2.246693563646351421e+00
2.246693563646351421e+00
2.246693563646351421e+00
2.303882808923612302e+00
2.303882808923612302e+00
2.303882808923612302e+00
2.303882808923612302e+00
2.338196356089969008e+00
2.338196356089969008e+00
2.338196356089969008e+00
2.364447157200842309e+00
2.364447157200842309e+00
2.364447157200842309e+00
2.408698507644886799e+00
2.408698507644886799e+00
2.408698507644886799e+00
2.408698507644886799e+00
2.374947477645191540e+00
2.374947477645191540e+00
2.374947477645191540e+00
2.377572557756279181e+00
2.377572557756279181e+00
2.377572557756279181e+00
2.395948118533890892e+00
2.395948118533890892e+00
2.395948118533890892e+00
2.395948118533890892e+00
2.305007843256935196e+00
2.305007843256935196e+00
2.305007843256935196e+00
2.271631824701681346e+00
2.271631824701681346e+00
2.271631824701681346e+00
2.236380748924222672e+00
2.236380748924222672e+00
2.236380748924222672e+00
2.236380748924222672e+00
2.195316995757927270e+00
2.195316995757927270e+00
2.195316995757927270e+00
2.219130222479934300e+00
2.219130222479934300e+00
2.219130222479934300e+00
2.236193243202001746e+00
2.236193243202001746e+00
2.236193243202001746e+00
2.236193243202001746e+00
2.266944181646168399e+00
2.266944181646168399e+00
2.266944181646168399e+00
2.315695669423505798e+00
2.315695669423505798e+00
2.315695669423505798e+00
2.330321115756706529e+00
2.330321115756706529e+00
2.330321115756706529e+00
2.330321115756706529e+00
2.371759880367442896e+00
2.371759880367442896e+00
2.371759880367442896e+00
2.395010589922788480e+00
2.395010589922788480e+00
2.395010589922788480e+00
2.395010589922788480e+00
2.356009399700918827e+00
2.356009399700918827e+00
2.356009399700918827e+00
2.379260109256263966e+00
2.379260109256263966e+00
2.379260109256263966e+00
2.371572374645222414e+00
2.371572374645222414e+00
2.371572374645222414e+00
2.371572374645222414e+00
2.290944914090395912e+00
2.290944914090395912e+00
2.290944914090395912e+00
2.272944364757225166e+00
2.272944364757225166e+00
2.272944364757225166e+00
2.220067751091036712e+00
2.220067751091036712e+00
2.220067751091036712e+00
2.220067751091036712e+00
2.210317453535568966e+00
2.210317453535568966e+00
2.210317453535568966e+00
2.239193334757530351e+00
2.239193334757530351e+00
2.239193334757530351e+00
2.239943357646412725e+00
2.239943357646412725e+00
2.239943357646412725e+00
2.239943357646412725e+00
2.290757408368175430e+00
2.290757408368175430e+00
2.290757408368175430e+00
2.344759056367687222e+00
2.344759056367687222e+00
2.344759056367687222e+00
2.361072054200873183e+00
2.361072054200873183e+00
2.361072054200873183e+00
2.361072054200873183e+00
2.417698782311472172e+00
2.417698782311472172e+00
2.417698782311472172e+00
2.408511001922666317e+00
2.408511001922666317e+00
2.408511001922666317e+00
2.369697317423017147e+00
2.369697317423017147e+00
2.369697317423017147e+00
2.369697317423017147e+00
2.406823450422681532e+00
2.406823450422681532e+00
2.406823450422681532e+00
2.336508804589983779e+00
2.336508804589983779e+00
2.336508804589983779e+00
2.267131687368389326e+00
2.267131687368389326e+00
2.267131687368389326e+00
2.267131687368389326e+00
2.242943449201941331e+00
2.242943449201941331e+00
2.242943449201941331e+00
2.192316904202398664e+00
2.192316904202398664e+00
2.192316904202398664e+00
2.197567064424573946e+00
2.197567064424573946e+00
2.197567064424573946e+00
2.233943174535355514e+00
2.233943174535355514e+00
2.233943174535355514e+00
2.233943174535355514e+00
2.250256172368541474e+00
2.250256172368541474e+00
2.250256172368541474e+00
2.311195532090212890e+00
2.311195532090212890e+00
2.311195532090212890e+00
2.345509079256569152e+00
2.345509079256569152e+00
2.345509079256569152e+00
2.345509079256569152e+00
2.364259651478621826e+00
2.364259651478621826e+00
2.364259651478621826e+00
2.402885830256050514e+00
2.402885830256050514e+00
2.402885830256050514e+00
2.402885830256050514e+00
2.383385235145115466e+00
2.383385235145115466e+00
2.383385235145115466e+00
2.363884640034180418e+00
2.363884640034180418e+00
2.363884640034180418e+00
2.395760612811670409e+00
2.395760612811670409e+00
2.395760612811670409e+00
2.395760612811670409e+00
2.310820520645771925e+00
2.310820520645771925e+00
2.310820520645771925e+00
2.262819055757316900e+00
2.262819055757316900e+00
2.262819055757316900e+00
2.236193243202001746e+00
2.236193243202001746e+00
2.236193243202001746e+00
2.236193243202001746e+00
2.191191869869075770e+00
2.191191869869075770e+00
2.191191869869075770e+00
2.210129947813348927e+00
2.210129947813348927e+00
2.210129947813348927e+00
2.232818140202032620e+00
2.232818140202032620e+00
2.232818140202032620e+00
2.232818140202032620e+00
2.264881618701742649e+00
2.264881618701742649e+00
2.264881618701742649e+00
2.339133884701071420e+00
2.339133884701071420e+00
2.339133884701071420e+00
2.371009857478560967e+00
2.371009857478560967e+00
2.371009857478560967e+00
2.371009857478560967e+00
2.394635578478347071e+00
2.394635578478347071e+00
2.394635578478347071e+00
2.416386242255928352e+00
2.416386242255928352e+00
2.416386242255928352e+00
2.377760063478499664e+00
2.377760063478499664e+00
2.377760063478499664e+00
2.377760063478499664e+00
2.391260475478377501e+00
2.391260475478377501e+00
2.391260475478377501e+00
2.381135166478469234e+00
2.381135166478469234e+00
2.381135166478469234e+00
2.285319742423780109e+00
2.285319742423780109e+00
2.285319742423780109e+00
2.285319742423780109e+00
2.259443952757347329e+00
2.259443952757347329e+00
2.259443952757347329e+00
2.219505233924375265e+00
2.219505233924375265e+00
2.219505233924375265e+00
2.219505233924375265e+00
2.198504593035676358e+00
2.198504593035676358e+00
2.198504593035676358e+00
2.233005645924253102e+00
2.233005645924253102e+00
2.233005645924253102e+00
2.241068391979735619e+00
2.241068391979735619e+00
2.241068391979735619e+00
2.241068391979735619e+00
2.281757133701590057e+00
2.281757133701590057e+00
2.281757133701590057e+00
2.325258461256752618e+00
2.325258461256752618e+00
2.325258461256752618e+00
2.342321481978820064e+00
2.342321481978820064e+00
2.342321481978820064e+00
2.342321481978820064e+00
2.392010498367259874e+00
2.392010498367259874e+00
2.392010498367259874e+00
2.402510818811609106e+00
2.402510818811609106e+00
2.402510818811609106e+00
2.364822168645283273e+00
2.364822168645283273e+00
2.364822168645283273e+00
2.364822168645283273e+00
2.396885647144993747e+00
2.396885647144993747e+00
2.396885647144993747e+00
2.342883999145481511e+00
2.342883999145481511e+00
2.342883999145481511e+00
2.272569353312784202e+00
2.272569353312784202e+00
2.272569353312784202e+00
2.272569353312784202e+00
2.253256263924070080e+00
2.253256263924070080e+00
2.253256263924070080e+00
2.204317270424512643e+00
2.204317270424512643e+00
2.204317270424512643e+00
2.195316995757927270e+00
2.195316995757927270e+00
2.195316995757927270e+00
2.195316995757927270e+00
2.221942808313242423e+00
2.221942808313242423e+00
2.221942808313242423e+00
2.243880977813043742e+00
2.243880977813043742e+00
2.243880977813043742e+00
2.299382671590319838e+00
2.299382671590319838e+00
2.299382671590319838e+00
2.299382671590319838e+00
2.341383953367717208e+00
2.341383953367717208e+00
2.341383953367717208e+00
2.358446974089785542e+00
2.358446974089785542e+00
2.358446974089785542e+00
2.406260933256020085e+00
2.406260933256020085e+00
2.406260933256020085e+00
2.406260933256020085e+00
2.388260383922848895e+00
2.388260383922848895e+00
2.388260383922848895e+00
2.359572008423108880e+00
2.359572008423108880e+00
2.359572008423108880e+00
2.359572008423108880e+00
2.401385784478286212e+00
2.401385784478286212e+00
2.401385784478286212e+00
2.320008301034577336e+00
2.320008301034577336e+00
2.320008301034577336e+00
2.262444044312875935e+00
2.262444044312875935e+00
2.262444044312875935e+00
2.262444044312875935e+00
2.240693380535294654e+00
2.240693380535294654e+00
2.240693380535294654e+00
2.198692098757896396e+00
2.198692098757896396e+00
2.198692098757896396e+00
2.213692556535538980e+00
2.213692556535538980e+00
2.213692556535538980e+00
2.213692556535538980e+00
2.243505966368602778e+00
2.243505966368602778e+00
2.243505966368602778e+00
2.265631641590625023e+00
2.265631641590625023e+00
2.265631641590625023e+00
2.330508621478927012e+00
2.330508621478927012e+00
2.330508621478927012e+00
2.330508621478927012e+00
2.357321939756462204e+00
2.357321939756462204e+00
2.357321939756462204e+00
2.383760246589556875e+00
2.383760246589556875e+00
2.383760246589556875e+00
2.419948850978118404e+00
2.419948850978118404e+00
2.419948850978118404e+00
2.419948850978118404e+00
2.375134983367412023e+00
2.375134983367412023e+00
2.375134983367412023e+00
2.378135074922940628e+00
2.378135074922940628e+00
2.378135074922940628e+00
2.398948210089419053e+00
2.398948210089419053e+00
2.398948210089419053e+00
2.398948210089419053e+00
2.301820245979186552e+00
2.301820245979186552e+00
2.301820245979186552e+00
2.262069032868434526e+00
2.262069032868434526e+00
2.262069032868434526e+00
2.226817957090975852e+00
2.226817957090975852e+00
2.226817957090975852e+00
2.226817957090975852e+00
2.187254249702444309e+00
2.187254249702444309e+00
2.187254249702444309e+00
2.215192602313302839e+00
2.215192602313302839e+00
2.215192602313302839e+00
2.233193151646474028e+00
2.233193151646474028e+00
2.233193151646474028e+00
2.233193151646474028e+00
2.270506790368358452e+00
2.270506790368358452e+00
2.270506790368358452e+00
2.324883449812311209e+00
2.324883449812311209e+00
2.324883449812311209e+00
2.339696401867732423e+00
2.339696401867732423e+00
2.339696401867732423e+00
2.339696401867732423e+00
2.389760429700613198e+00
2.389760429700613198e+00
2.389760429700613198e+00
2.409261024811548246e+00
2.409261024811548246e+00
2.409261024811548246e+00
2.359196996978667915e+00
2.359196996978667915e+00
2.359196996978667915e+00
2.359196996978667915e+00
2.383010223700674501e+00
2.383010223700674501e+00
2.383010223700674501e+00
2.353946836756492633e+00
2.353946836756492633e+00
2.353946836756492633e+00
2.272756859035004684e+00
2.272756859035004684e+00
2.272756859035004684e+00
2.254943815424054865e+00
2.254943815424054865e+00
2.254943815424054865e+00
2.254943815424054865e+00
2.206004821924497428e+00
2.206004821924497428e+00
2.206004821924497428e+00
2.195129490035706787e+00
2.195129490035706787e+00
2.195129490035706787e+00
2.242568437757499922e+00
2.242568437757499922e+00
2.242568437757499922e+00
2.242568437757499922e+00
2.266944181646168399e+00
2.266944181646168399e+00
2.266944181646168399e+00
2.323570909756767389e+00
2.323570909756767389e+00
2.323570909756767389e+00
2.359196996978667915e+00
2.359196996978667915e+00
2.359196996978667915e+00
2.359196996978667915e+00
2.362759605700857524e+00
2.362759605700857524e+00
2.362759605700857524e+00
2.403635853144932444e+00
2.403635853144932444e+00
2.403635853144932444e+00
2.394073061311685624e+00
2.394073061311685624e+00
2.394073061311685624e+00
2.394073061311685624e+00
2.360322031311990809e+00
2.360322031311990809e+00
2.360322031311990809e+00
2.402885830256050514e+00
2.402885830256050514e+00
2.402885830256050514e+00
2.333696218756676100e+00
2.333696218756676100e+00
2.333696218756676100e+00
2.333696218756676100e+00
2.263569078646198829e+00
2.263569078646198829e+00
2.263569078646198829e+00
2.252506241035188150e+00
2.252506241035188150e+00
2.252506241035188150e+00
2.202442213202307375e+00
2.202442213202307375e+00
2.202442213202307375e+00
2.202442213202307375e+00
2.203567247535630269e+00
2.203567247535630269e+00
2.203567247535630269e+00
2.235443220313119816e+00
2.235443220313119816e+00
2.235443220313119816e+00
2.246131046479689974e+00
2.246131046479689974e+00
2.246131046479689974e+00
2.246131046479689974e+00
2.301445234534745587e+00
2.301445234534745587e+00
2.301445234534745587e+00
2.330883632923367976e+00
2.330883632923367976e+00
2.330883632923367976e+00
2.350196722312082542e+00
2.350196722312082542e+00
2.350196722312082542e+00
2.350196722312082542e+00
2.407198461867122496e+00
2.407198461867122496e+00
2.407198461867122496e+00
2.384322763756218322e+00
2.384322763756218322e+00
2.384322763756218322e+00
2.371947386089663379e+00
2.371947386089663379e+00
2.371947386089663379e+00
2.371947386089663379e+00
2.396323129978331856e+00
2.396323129978331856e+00
2.396323129978331856e+00
2.304632831812494231e+00
2.304632831812494231e+00
2.304632831812494231e+00
2.304632831812494231e+00
2.273506881923887057e+00
2.273506881923887057e+00
2.273506881923887057e+00
2.248568620868556689e+00
2.248568620868556689e+00
2.248568620868556689e+00
2.197004547257912055e+00
2.197004547257912055e+00
2.197004547257912055e+00
2.197004547257912055e+00
2.209754936368907963e+00
2.209754936368907963e+00
2.209754936368907963e+00
2.220067751091036712e+00
2.220067751091036712e+00
2.220067751091036712e+00
2.256631366924039650e+00
2.256631366924039650e+00
2.256631366924039650e+00
2.315883175145725836e+00
2.315883175145725836e+00
2.315883175145725836e+00
2.315883175145725836e+00
2.347196630756553937e+00
2.347196630756553937e+00
2.347196630756553937e+00
2.379635120700704931e+00
2.379635120700704931e+00
2.379635120700704931e+00
2.414323679311502602e+00
2.414323679311502602e+00
2.414323679311502602e+00
2.414323679311502602e+00
2.369697317423017147e+00
2.369697317423017147e+00
2.369697317423017147e+00
2.385260292367321178e+00
2.385260292367321178e+00
2.385260292367321178e+00
2.385260292367321178e+00
2.393510544145024177e+00
2.393510544145024177e+00
2.393510544145024177e+00
2.302945280312509890e+00
2.302945280312509890e+00
2.302945280312509890e+00
2.276131962034974254e+00
2.276131962034974254e+00
2.276131962034974254e+00
2.228880520035401602e+00
2.228880520035401602e+00
2.228880520035401602e+00
2.228880520035401602e+00
2.196067018646809643e+00
2.196067018646809643e+00
2.196067018646809643e+00
2.219880245368816230e+00
2.219880245368816230e+00
2.219880245368816230e+00
2.231318094424268317e+00
2.231318094424268317e+00
2.231318094424268317e+00
2.231318094424268317e+00
2.281569627979369130e+00
2.281569627979369130e+00
2.281569627979369130e+00
2.335946287423322332e+00
2.335946287423322332e+00
2.335946287423322332e+00
2.335946287423322332e+00
2.344009033478804849e+00
2.344009033478804849e+00
2.344009033478804849e+00
2.392760521256141804e+00
2.392760521256141804e+00
2.392760521256141804e+00
2.404760887478255782e+00
2.404760887478255782e+00
2.404760887478255782e+00
2.404760887478255782e+00
2.364072145756401344e+00
2.364072145756401344e+00
2.364072145756401344e+00
2.399698232978301426e+00
2.399698232978301426e+00
2.399698232978301426e+00
2.347196630756553937e+00
2.347196630756553937e+00
2.347196630756553937e+00
2.347196630756553937e+00
2.268819238868374111e+00
2.268819238868374111e+00
2.268819238868374111e+00
2.263944090090640238e+00
2.263944090090640238e+00
2.263944090090640238e+00
2.218942716757713818e+00
2.218942716757713818e+00
2.218942716757713818e+00
2.218942716757713818e+00
2.209379924924466998e+00
2.209379924924466998e+00
2.209379924924466998e+00
2.229443037202063049e+00
2.229443037202063049e+00
2.229443037202063049e+00
2.247068575090792386e+00
2.247068575090792386e+00
2.247068575090792386e+00
2.247068575090792386e+00
2.296195074312570750e+00
2.296195074312570750e+00
2.296195074312570750e+00
2.335571275978881367e+00
2.335571275978881367e+00
2.335571275978881367e+00
2.353384319589831186e+00
2.353384319589831186e+00
2.353384319589831186e+00
2.353384319589831186e+00
2.401948301644947659e+00
2.401948301644947659e+00
2.401948301644947659e+00
2.383947752311777357e+00
2.383947752311777357e+00
2.383947752311777357e+00
2.361259559923093665e+00
2.361259559923093665e+00
2.361259559923093665e+00
2.361259559923093665e+00
2.397448164311655194e+00
2.397448164311655194e+00
2.397448164311655194e+00
2.329571092867824156e+00
2.329571092867824156e+00
2.329571092867824156e+00
2.291319925534837321e+00
2.291319925534837321e+00
2.291319925534837321e+00
2.291319925534837321e+00
2.266194158757286470e+00
2.266194158757286470e+00
2.266194158757286470e+00
2.218942716757713818e+00
2.218942716757713818e+00
2.218942716757713818e+00
2.228693014313181120e+00
2.228693014313181120e+00
2.228693014313181120e+00
2.228693014313181120e+00
2.250443678090761956e+00
2.250443678090761956e+00
2.250443678090761956e+00
2.263194067201757864e+00
2.263194067201757864e+00
2.263194067201757864e+00
2.323945921201208797e+00
2.323945921201208797e+00
2.323945921201208797e+00
2.323945921201208797e+00
2.353009308145390222e+00
2.353009308145390222e+00
2.353009308145390222e+00
2.374572466200750576e+00
2.374572466200750576e+00
2.374572466200750576e+00
2.418261299478133619e+00
2.418261299478133619e+00
2.418261299478133619e+00
2.418261299478133619e+00
2.392760521256141804e+00
2.392760521256141804e+00
2.392760521256141804e+00
2.388822901089510786e+00
2.388822901089510786e+00
2.388822901089510786e+00
2.394823084200567997e+00
2.394823084200567997e+00
2.394823084200567997e+00
2.394823084200567997e+00
2.296007568590349823e+00
2.296007568590349823e+00
2.296007568590349823e+00
2.259068941312906365e+00
2.259068941312906365e+00
2.259068941312906365e+00
2.222317819757682944e+00
2.222317819757682944e+00
2.222317819757682944e+00
2.222317819757682944e+00
2.193441938535722002e+00
2.193441938535722002e+00
2.193441938535722002e+00
2.218192693868831444e+00
2.218192693868831444e+00
2.218192693868831444e+00
2.226442945646534444e+00
2.226442945646534444e+00
2.226442945646534444e+00
2.226442945646534444e+00
2.256443861201819168e+00
2.256443861201819168e+00
2.256443861201819168e+00
2.308757957701345731e+00
2.308757957701345731e+00
2.308757957701345731e+00
2.320570818201239227e+00
2.320570818201239227e+00
2.320570818201239227e+00
2.320570818201239227e+00
2.368572283089693808e+00
2.368572283089693808e+00
2.368572283089693808e+00
2.383385235145115466e+00
2.383385235145115466e+00
2.383385235145115466e+00
2.349634205145421095e+00
2.349634205145421095e+00
2.349634205145421095e+00
2.349634205145421095e+00
2.372509903256325270e+00
2.372509903256325270e+00
2.372509903256325270e+00
2.338008850367748082e+00
2.338008850367748082e+00
2.338008850367748082e+00
2.262444044312875935e+00
2.262444044312875935e+00
2.262444044312875935e+00
2.262444044312875935e+00
2.268256721701712220e+00
2.268256721701712220e+00
2.268256721701712220e+00
2.237505783257545566e+00
2.237505783257545566e+00
2.237505783257545566e+00
2.227755485702078264e+00
2.227755485702078264e+00
2.227755485702078264e+00
2.227755485702078264e+00
2.264881618701742649e+00
2.264881618701742649e+00
2.264881618701742649e+00
2.263569078646198829e+00
2.263569078646198829e+00
2.263569078646198829e+00
2.307257911923581428e+00
2.307257911923581428e+00
2.307257911923581428e+00
2.307257911923581428e+00
2.351884273812066883e+00
2.351884273812066883e+00
2.351884273812066883e+00
2.365947202978606612e+00
2.365947202978606612e+00
2.365947202978606612e+00
2.407010956144902014e+00
2.407010956144902014e+00
2.407010956144902014e+00
2.407010956144902014e+00
2.391822992645039392e+00
2.391822992645039392e+00
2.391822992645039392e+00
2.359572008423108880e+00
2.359572008423108880e+00
2.359572008423108880e+00
2.401198278756065729e+00
2.401198278756065729e+00
2.401198278756065729e+00
2.401198278756065729e+00
2.332758690145573244e+00
2.332758690145573244e+00
2.332758690145573244e+00
2.262819055757316900e+00
2.262819055757316900e+00
2.262819055757316900e+00
2.246318552201910457e+00
2.246318552201910457e+00
2.246318552201910457e+00
2.246318552201910457e+00
2.202817224646748340e+00
2.202817224646748340e+00
2.202817224646748340e+00
2.208067384868923178e+00
2.208067384868923178e+00
2.208067384868923178e+00
2.208067384868923178e+00
2.228880520035401602e+00
2.228880520035401602e+00
2.228880520035401602e+00
2.242943449201941331e+00
2.242943449201941331e+00
2.242943449201941331e+00
2.301820245979186552e+00
2.301820245979186552e+00
2.301820245979186552e+00
2.301820245979186552e+00
2.339133884701071420e+00
2.339133884701071420e+00
2.339133884701071420e+00
2.354884365367595489e+00
2.354884365367595489e+00
2.354884365367595489e+00
2.395573107089449927e+00
2.395573107089449927e+00
2.395573107089449927e+00
2.395573107089449927e+00
2.364822168645283273e+00
2.364822168645283273e+00
2.364822168645283273e+00
2.360697042756431774e+00
2.360697042756431774e+00
2.360697042756431774e+00
2.389947935422834124e+00
2.389947935422834124e+00
2.389947935422834124e+00
2.389947935422834124e+00
2.308007934812463802e+00
2.308007934812463802e+00
2.308007934812463802e+00
2.272569353312784202e+00
2.272569353312784202e+00
2.272569353312784202e+00
2.251006195257423848e+00
2.251006195257423848e+00
2.251006195257423848e+00
2.251006195257423848e+00
2.218755211035493335e+00
2.218755211035493335e+00
2.218755211035493335e+00
2.234880703146458369e+00
2.234880703146458369e+00
2.234880703146458369e+00
2.250443678090761956e+00
2.250443678090761956e+00
2.250443678090761956e+00
2.250443678090761956e+00
2.275756950590533290e+00
2.275756950590533290e+00
2.275756950590533290e+00
2.330133610034486047e+00
2.330133610034486047e+00
2.330133610034486047e+00
2.345134067812128187e+00
2.345134067812128187e+00
2.345134067812128187e+00
2.345134067812128187e+00
2.377947569200720146e+00
2.377947569200720146e+00
2.377947569200720146e+00
2.399510727256080500e+00
2.399510727256080500e+00
2.399510727256080500e+00
2.364259651478621826e+00
2.364259651478621826e+00
2.364259651478621826e+00
2.364259651478621826e+00
2.377947569200720146e+00
2.377947569200720146e+00
2.377947569200720146e+00
2.364072145756401344e+00
2.364072145756401344e+00
2.364072145756401344e+00
2.277819513534959039e+00
2.277819513534959039e+00
2.277819513534959039e+00
2.277819513534959039e+00
2.256256355479598685e+00
2.256256355479598685e+00
2.256256355479598685e+00
2.214630085146641392e+00
2.214630085146641392e+00
2.214630085146641392e+00
2.198317087313455875e+00
2.198317087313455875e+00
2.198317087313455875e+00
2.198317087313455875e+00
2.225130405590991067e+00
2.225130405590991067e+00
2.225130405590991067e+00
2.246693563646351421e+00
2.246693563646351421e+00
2.246693563646351421e+00
2.285507248146000592e+00
2.285507248146000592e+00
2.285507248146000592e+00
2.285507248146000592e+00
2.328633564256721744e+00
2.328633564256721744e+00
2.328633564256721744e+00
2.340446424756614796e+00
2.340446424756614796e+00
2.340446424756614796e+00
2.386572832422864110e+00
2.386572832422864110e+00
2.386572832422864110e+00
2.386572832422864110e+00
2.390885464033936536e+00
2.390885464033936536e+00
2.390885464033936536e+00
2.352071779534287366e+00
2.352071779534287366e+00
2.352071779534287366e+00
2.401198278756065729e+00
2.401198278756065729e+00
2.401198278756065729e+00
2.401198278756065729e+00
2.365947202978606612e+00
2.365947202978606612e+00
2.365947202978606612e+00
2.289632374034852091e+00
2.289632374034852091e+00
2.289632374034852091e+00
2.289632374034852091e+00
2.278382030701620931e+00
2.278382030701620931e+00
2.278382030701620931e+00
2.224005371257667729e+00
2.224005371257667729e+00
2.224005371257667729e+00
2.214067567979979945e+00
2.214067567979979945e+00
2.214067567979979945e+00
2.214067567979979945e+00
2.245193517868587563e+00
2.245193517868587563e+00
2.245193517868587563e+00
2.245756035035248566e+00
2.245756035035248566e+00
2.245756035035248566e+00
2.294320017090365038e+00
2.294320017090365038e+00
2.294320017090365038e+00
2.294320017090365038e+00
2.324695944090090727e+00
2.324695944090090727e+00
2.324695944090090727e+00
2.343259010589922919e+00
2.343259010589922919e+00
2.343259010589922919e+00
2.396323129978331856e+00
2.396323129978331856e+00
2.396323129978331856e+00
2.396323129978331856e+00
2.382822717978454019e+00
2.382822717978454019e+00
2.382822717978454019e+00
2.366697225867488541e+00
2.366697225867488541e+00
2.366697225867488541e+00
2.407573473311563461e+00
2.407573473311563461e+00
2.407573473311563461e+00
2.407573473311563461e+00
2.324320932645649762e+00
2.324320932645649762e+00
2.324320932645649762e+00
2.272194341868343237e+00
2.272194341868343237e+00
2.272194341868343237e+00
2.240505874813074172e+00
2.240505874813074172e+00
2.240505874813074172e+00
2.240505874813074172e+00
2.206754844813379357e+00
2.206754844813379357e+00
2.206754844813379357e+00
2.227755485702078264e+00
2.227755485702078264e+00
2.227755485702078264e+00
2.252318735312967224e+00
2.252318735312967224e+00
2.252318735312967224e+00
2.272194341868343237e+00
2.272194341868343237e+00
2.272194341868343237e+00
2.272194341868343237e+00
2.325070955534531691e+00
2.325070955534531691e+00
2.325070955534531691e+00
2.344384044923245813e+00
2.344384044923245813e+00
2.344384044923245813e+00
2.344384044923245813e+00
2.368384777367473326e+00
2.368384777367473326e+00
2.368384777367473326e+00
2.403073335978270997e+00
2.403073335978270997e+00
2.403073335978270997e+00
2.366509720145268059e+00
2.366509720145268059e+00
2.366509720145268059e+00
2.366509720145268059e+00
2.372322397534104788e+00
2.372322397534104788e+00
2.372322397534104788e+00
2.389572923978392716e+00
2.389572923978392716e+00
2.389572923978392716e+00
2.290194891201513983e+00
2.290194891201513983e+00
2.290194891201513983e+00
2.290194891201513983e+00
2.258881435590685438e+00
2.258881435590685438e+00
2.258881435590685438e+00
2.223255348368785356e+00
2.223255348368785356e+00
2.223255348368785356e+00
2.198129581591235393e+00
2.198129581591235393e+00
2.198129581591235393e+00
2.198129581591235393e+00
2.228318002868740155e+00
2.228318002868740155e+00
2.228318002868740155e+00
2.241255897701956545e+00
2.241255897701956545e+00
2.241255897701956545e+00
2.272381847590563719e+00
2.272381847590563719e+00
2.272381847590563719e+00
2.272381847590563719e+00
2.327696035645618888e+00
2.327696035645618888e+00
2.327696035645618888e+00
2.343821527756584366e+00
2.343821527756584366e+00
2.343821527756584366e+00
2.384697775200659287e+00
2.384697775200659287e+00
2.384697775200659287e+00
2.384697775200659287e+00
2.404385876033814373e+00
2.404385876033814373e+00
2.404385876033814373e+00
2.362947111423078006e+00
2.362947111423078006e+00
2.362947111423078006e+00
2.400260750144962874e+00
2.400260750144962874e+00
2.400260750144962874e+00
2.400260750144962874e+00
2.368197271645252844e+00
2.368197271645252844e+00
2.368197271645252844e+00
2.282694662312692468e+00
2.282694662312692468e+00
2.282694662312692468e+00
2.263944090090640238e+00
2.263944090090640238e+00
2.263944090090640238e+00
2.263944090090640238e+00
2.216130130924405695e+00
2.216130130924405695e+00
2.216130130924405695e+00
2.194004455702383449e+00
2.194004455702383449e+00
2.194004455702383449e+00
2.224755394146549659e+00
2.224755394146549659e+00
2.224755394146549659e+00
2.224755394146549659e+00
2.244818506424146598e+00
2.244818506424146598e+00
2.244818506424146598e+00
2.287382305368205859e+00
2.287382305368205859e+00
2.287382305368205859e+00
2.287382305368205859e+00
2.332008667256691314e+00
2.332008667256691314e+00
2.332008667256691314e+00
2.339133884701071420e+00
2.339133884701071420e+00
2.339133884701071420e+00
2.390885464033936536e+00
2.390885464033936536e+00
2.390885464033936536e+00
2.390885464033936536e+00
2.393510544145024177e+00
2.393510544145024177e+00
2.393510544145024177e+00
2.365009674367503756e+00
2.365009674367503756e+00
2.365009674367503756e+00
2.413011139255958781e+00
2.413011139255958781e+00
2.413011139255958781e+00
2.413011139255958781e+00
2.344196539201025331e+00
2.344196539201025331e+00
2.344196539201025331e+00
2.272569353312784202e+00
2.272569353312784202e+00
2.272569353312784202e+00
2.259631458479567812e+00
2.259631458479567812e+00
2.259631458479567812e+00
2.225880428479872997e+00
2.225880428479872997e+00
2.225880428479872997e+00
2.225880428479872997e+00
2.218380199591051927e+00
2.218380199591051927e+00
2.218380199591051927e+00
2.240130863368633207e+00
2.240130863368633207e+00
2.240130863368633207e+00
2.251943723868526259e+00
2.251943723868526259e+00
2.251943723868526259e+00
2.251943723868526259e+00
2.311008026367992407e+00
2.311008026367992407e+00
2.340071413312173831e+00
2.340071413312173831e+00
2.363134617145298488e+00
2.363134617145298488e+00
2.400635761589403838e+00
2.400635761589403838e+00
2.360884548478652700e+00
2.360884548478652700e+00
2.356946928312021239e+00
2.356946928312021239e+00
2.397823175756096159e+00
2.397823175756096159e+00
2.397823175756096159e+00
2.321508346812341639e+00
2.321508346812341639e+00
2.272756859035004684e+00
2.272756859035004684e+00
2.230755577257606870e+00
2.230755577257606870e+00
2.193441938535722002e+00
2.193441938535722002e+00
2.213130039368877089e+00
2.213130039368877089e+00
2.238443311868648422e+00
2.238443311868648422e+00
2.261131504257332114e+00
2.261131504257332114e+00
2.316445692312387283e+00
2.316445692312387283e+00
2.349634205145421095e+00
2.349634205145421095e+00
2.349634205145421095e+00
2.393135532700583212e+00
2.393135532700583212e+00
2.422386425366985119e+00
2.422386425366985119e+00
2.370447340311899076e+00
2.370447340311899076e+00
2.381322672200689716e+00
2.381322672200689716e+00
2.368384777367473326e+00
2.368384777367473326e+00
2.287944822534867306e+00
2.287944822534867306e+00
2.272569353312784202e+00
2.272569353312784202e+00
2.229630542924283532e+00
2.229630542924283532e+00
2.229630542924283532e+00
2.202442213202307375e+00
2.202442213202307375e+00
2.233193151646474028e+00
2.233193151646474028e+00
2.251756218146305777e+00
2.251756218146305777e+00
2.283819696646015807e+00
2.283819696646015807e+00
2.327133518478957885e+00
2.327133518478957885e+00
2.340071413312173831e+00
2.340071413312173831e+00
2.393698049867244659e+00
2.393698049867244659e+00
2.402698324533829588e+00
2.402698324533829588e+00
2.402698324533829588e+00
2.359759514145329362e+00
2.359759514145329362e+00
2.391260475478377501e+00
2.391260475478377501e+00
2.332008667256691314e+00
2.332008667256691314e+00
2.270694296090578934e+00
2.270694296090578934e+00
2.257756401257362544e+00
2.257756401257362544e+00
2.208442396313364142e+00
2.208442396313364142e+00
2.193066927091281038e+00
2.193066927091281038e+00
2.221942808313242423e+00
2.221942808313242423e+00
2.231880611590930208e+00
2.231880611590930208e+00
2.294320017090365038e+00
2.294320017090365038e+00
2.342883999145481511e+00
2.342883999145481511e+00
2.357509445478682686e+00
2.357509445478682686e+00
2.408323496200445835e+00
2.408323496200445835e+00
2.400073244422742391e+00
2.400073244422742391e+00
2.400073244422742391e+00
2.374947477645191540e+00
2.374947477645191540e+00
2.416761253700369316e+00
2.416761253700369316e+00
2.335383770256660885e+00
2.335383770256660885e+00
2.275944456312753772e+00
2.275944456312753772e+00
2.245568529313028083e+00
2.245568529313028083e+00
2.198692098757896396e+00
2.198692098757896396e+00
2.201504684591204519e+00
2.201504684591204519e+00
2.221192785424360050e+00
2.221192785424360050e+00
2.221192785424360050e+00
2.240693380535294654e+00
2.240693380535294654e+00
2.300507705923642732e+00
2.300507705923642732e+00
2.329946104312265120e+00
2.329946104312265120e+00
2.361072054200873183e+00
2.361072054200873183e+00
2.398198187200537124e+00
2.398198187200537124e+00
2.365384685811944721e+00
2.365384685811944721e+00
2.372509903256325270e+00
2.372509903256325270e+00
2.378322580645161111e+00
2.378322580645161111e+00
2.286632282479323930e+00
2.286632282479323930e+00
2.286632282479323930e+00
2.268069215979491737e+00
2.268069215979491737e+00
2.231693105868709726e+00
2.231693105868709726e+00
2.202817224646748340e+00
2.202817224646748340e+00
2.221192785424360050e+00
2.221192785424360050e+00
2.233943174535355514e+00
2.233943174535355514e+00
2.270694296090578934e+00
2.270694296090578934e+00
2.325070955534531691e+00
2.325070955534531691e+00
2.333883724478896582e+00
2.333883724478896582e+00
2.374947477645191540e+00
2.374947477645191540e+00
2.374947477645191540e+00
2.401385784478286212e+00
2.401385784478286212e+00
2.361072054200873183e+00
2.361072054200873183e+00
2.393510544145024177e+00
2.393510544145024177e+00
2.348321665089877275e+00
2.348321665089877275e+00
2.277444502090518075e+00
2.277444502090518075e+00
2.255506332590716312e+00
2.255506332590716312e+00
2.201504684591204519e+00
2.201504684591204519e+00
2.192879421369060555e+00
2.192879421369060555e+00
2.227005462813196335e+00
2.227005462813196335e+00
2.227005462813196335e+00
2.248193609424115724e+00
2.248193609424115724e+00
2.301632740256966070e+00
2.301632740256966070e+00
2.332571184423352761e+00
2.332571184423352761e+00
2.342508987701040546e+00
2.342508987701040546e+00
2.393698049867244659e+00
2.393698049867244659e+00
2.394073061311685624e+00
2.394073061311685624e+00
2.365759697256386129e+00
2.365759697256386129e+00
2.401948301644947659e+00
2.401948301644947659e+00
2.327883541367839371e+00
2.327883541367839371e+00
2.327883541367839371e+00
2.265631641590625023e+00
2.265631641590625023e+00
2.231318094424268317e+00
2.231318094424268317e+00
2.173941343424787398e+00
2.173941343424787398e+00
2.172253791924802613e+00
2.172253791924802613e+00
2.200567155980101663e+00
2.200567155980101663e+00
2.227942991424298746e+00
2.227942991424298746e+00
2.304257820368053267e+00
2.304257820368053267e+00
2.352634296700948813e+00
2.352634296700948813e+00
2.352634296700948813e+00
2.378322580645161111e+00
2.378322580645161111e+00
2.414136173589282119e+00
2.414136173589282119e+00
2.380197637867366822e+00
2.380197637867366822e+00
2.387885372478407930e+00
2.387885372478407930e+00
2.400260750144962874e+00
2.400260750144962874e+00
2.319633289590136371e+00
2.319633289590136371e+00
2.261131504257332114e+00
2.261131504257332114e+00
2.201879696035645484e+00
2.201879696035645484e+00
2.201879696035645484e+00
2.134940153202917745e+00
2.134940153202917745e+00
2.141690359202856442e+00
2.141690359202856442e+00
2.167191137424848257e+00
2.167191137424848257e+00
2.219130222479934300e+00
2.219130222479934300e+00
2.285507248146000592e+00
2.285507248146000592e+00
2.314195623645741495e+00
2.314195623645741495e+00
2.371572374645222414e+00
2.371572374645222414e+00
2.422761436811426083e+00
2.422761436811426083e+00
2.422761436811426083e+00
2.409823541978209693e+00
2.409823541978209693e+00
2.424636494033631351e+00
2.424636494033631351e+00
2.393885555589465142e+00
2.393885555589465142e+00
2.298070131534776017e+00
2.298070131534776017e+00
2.288694845423749680e+00
2.288694845423749680e+00
2.257756401257362544e+00
2.257756401257362544e+00
2.239005829035309869e+00
2.239005829035309869e+00
2.281194616534928166e+00
2.281194616534928166e+00
2.291507431257057803e+00
2.291507431257057803e+00
2.325633472701193583e+00
2.325633472701193583e+00
2.332383678701132279e+00
2.332383678701132279e+00
2.332383678701132279e+00
2.310820520645771925e+00
2.310820520645771925e+00
2.341196447645496725e+00
2.341196447645496725e+00
2.315320657979064389e+00
2.315320657979064389e+00
2.269569261757255596e+00
2.269569261757255596e+00
2.327133518478957885e+00
2.327133518478957885e+00
2.300507705923642732e+00
2.300507705923642732e+00
2.260943998535111632e+00
2.260943998535111632e+00
2.262631550035096417e+00
2.262631550035096417e+00
2.219317728202154782e+00
2.219317728202154782e+00
2.219317728202154782e+00
2.203192236091189304e+00
2.203192236091189304e+00
2.253631275368511044e+00
2.253631275368511044e+00
2.267506698812830290e+00
2.267506698812830290e+00
2.350009216589862060e+00
2.350009216589862060e+00
2.415636219367045978e+00
2.415636219367045978e+00
2.408135990478225352e+00
2.408135990478225352e+00
2.426324045533616136e+00
2.426324045533616136e+00
2.432324228644673347e+00
2.432324228644673347e+00
2.432324228644673347e+00
2.376260017700735361e+00
2.376260017700735361e+00
2.342321481978820064e+00
2.342321481978820064e+00
2.215942625202185212e+00
2.215942625202185212e+00
2.164941068758201581e+00
2.164941068758201581e+00
2.164003540147099169e+00
2.164003540147099169e+00
2.164941068758201581e+00
2.164941068758201581e+00
2.215942625202185212e+00
2.215942625202185212e+00
2.221005279702139568e+00
2.221005279702139568e+00
2.221005279702139568e+00
2.223067842646564873e+00
2.223067842646564873e+00
2.303320291756950855e+00
2.303320291756950855e+00
2.362197088534196077e+00
2.362197088534196077e+00
2.397635670033875677e+00
2.397635670033875677e+00
2.421073885311441742e+00
2.421073885311441742e+00
2.369322305978576182e+00
2.369322305978576182e+00
2.360697042756431774e+00
2.360697042756431774e+00
2.372884914700766235e+00
2.372884914700766235e+00
2.372884914700766235e+00
2.281944639423810539e+00
2.281944639423810539e+00
2.255881344035157721e+00
2.255881344035157721e+00
2.288507339701529197e+00
2.288507339701529197e+00
2.287194799645985377e+00
2.287194799645985377e+00
2.300507705923642732e+00
2.300507705923642732e+00
2.274444410534989469e+00
2.274444410534989469e+00
2.277444502090518075e+00
2.277444502090518075e+00
2.315133152256843907e+00
2.315133152256843907e+00
2.302007751701407035e+00
2.302007751701407035e+00
2.302007751701407035e+00
2.347946653645436310e+00
2.347946653645436310e+00
2.386572832422864110e+00
2.386572832422864110e+00
2.365759697256386129e+00
2.365759697256386129e+00
2.407010956144902014e+00
2.407010956144902014e+00
2.353571825312051669e+00
2.353571825312051669e+00
2.288507339701529197e+00
2.288507339701529197e+00
2.302570268868068482e+00
2.302570268868068482e+00
2.265069124423963132e+00
2.265069124423963132e+00
2.265069124423963132e+00
2.224192876979888212e+00
2.224192876979888212e+00
2.234880703146458369e+00
2.234880703146458369e+00
2.217442670979949515e+00
2.217442670979949515e+00
2.256631366924039650e+00
2.256631366924039650e+00
2.312883083590197675e+00
2.312883083590197675e+00
2.344946562089907705e+00
2.344946562089907705e+00
2.395760612811670409e+00
2.395760612811670409e+00
2.421261391033662225e+00
2.421261391033662225e+00
2.421261391033662225e+00
2.410573564867091623e+00
2.410573564867091623e+00
2.450699789422284613e+00
2.450699789422284613e+00
2.376072511978514878e+00
2.376072511978514878e+00
2.325258461256752618e+00
2.325258461256752618e+00
2.295632557145908859e+00
2.295632557145908859e+00
2.222130314035462462e+00
2.222130314035462462e+00
2.191566881313516735e+00
2.191566881313516735e+00
2.191566881313516735e+00
2.191566881313516735e+00
2.182754112369151844e+00
2.182754112369151844e+00
2.182754112369151844e+00
2.208442396313364142e+00
2.208442396313364142e+00
2.235818231757560781e+00
2.235818231757560781e+00
2.278007019257179522e+00
2.278007019257179522e+00
2.344384044923245813e+00
2.344384044923245813e+00
2.344946562089907705e+00
2.344946562089907705e+00
2.389572923978392716e+00
2.389572923978392716e+00
2.446949674977874079e+00
2.446949674977874079e+00
2.387697866756187448e+00
2.387697866756187448e+00
2.387697866756187448e+00
2.346821619312112972e+00
2.346821619312112972e+00
2.284944730979339145e+00
2.284944730979339145e+00
2.166066103091524919e+00
2.166066103091524919e+00
2.170753746147038310e+00
2.170753746147038310e+00
2.221755302591021497e+00
2.221755302591021497e+00
2.199254615924558287e+00
2.199254615924558287e+00
2.213130039368877089e+00
2.213130039368877089e+00
2.246318552201910457e+00
2.246318552201910457e+00
2.356384411145359792e+00
2.356384411145359792e+00
2.411698599200414961e+00
2.411698599200414961e+00
2.379072603534043484e+00
2.379072603534043484e+00
2.379072603534043484e+00
2.369134800256355700e+00
2.369134800256355700e+00
2.352821802423169739e+00
2.352821802423169739e+00
2.293194982757042144e+00
2.293194982757042144e+00
2.298632648701437464e+00
2.298632648701437464e+00
2.274256904812768987e+00
2.274256904812768987e+00
2.203754753257850751e+00
2.203754753257850751e+00
2.189316812646870059e+00
2.189316812646870059e+00
2.207317361980041248e+00
2.207317361980041248e+00
2.207317361980041248e+00
2.257006378368480615e+00
2.257006378368480615e+00
2.332571184423352761e+00
2.332571184423352761e+00
2.336321298867763296e+00
2.336321298867763296e+00
2.370822351756340485e+00
2.370822351756340485e+00
2.341571459089938134e+00
2.341571459089938134e+00
2.287007293923764895e+00
2.287007293923764895e+00
2.320008301034577336e+00
2.320008301034577336e+00
2.310445509201330516e+00
2.310445509201330516e+00
2.310445509201330516e+00
2.306132877590258534e+00
2.306132877590258534e+00
2.343071504867702437e+00
2.343071504867702437e+00
2.351134250923184954e+00
2.351134250923184954e+00
2.353759331034272151e+00
2.353759331034272151e+00
2.350571733756523507e+00
2.350571733756523507e+00
2.276131962034974254e+00
2.276131962034974254e+00
2.252881252479629115e+00
2.252881252479629115e+00
2.257568895535142062e+00
2.257568895535142062e+00
2.257568895535142062e+00
2.281944639423810539e+00
2.281944639423810539e+00
2.355634388256477418e+00
2.355634388256477418e+00
2.362009582811975594e+00
2.362009582811975594e+00
2.342321481978820064e+00
2.342321481978820064e+00
2.370072328867458111e+00
2.370072328867458111e+00
2.311008026367992407e+00
2.311008026367992407e+00
2.235443220313119816e+00
2.235443220313119816e+00
2.194379467146824858e+00
2.194379467146824858e+00
2.121814752647480873e+00
2.121814752647480873e+00
2.121814752647480873e+00
2.128939970091860534e+00
2.128939970091860534e+00
2.208254890591143660e+00
2.208254890591143660e+00
2.319258278145695407e+00
2.319258278145695407e+00
2.482763267921994643e+00
2.482763267921994643e+00
2.570328440198980768e+00
2.570328440198980768e+00
2.459512558366649504e+00
2.459512558366649504e+00
2.374009949034089573e+00
2.374009949034089573e+00
2.325820978423414065e+00
2.325820978423414065e+00
2.367072237311929506e+00
2.367072237311929506e+00
2.367072237311929506e+00
2.373822443311869090e+00
2.373822443311869090e+00
2.264881618701742649e+00
2.264881618701742649e+00
2.208067384868923178e+00
2.208067384868923178e+00
2.114127018036439321e+00
2.114127018036439321e+00
2.043437360759300603e+00
2.043437360759300603e+00
2.066875576036866669e+00
2.066875576036866669e+00
2.095938962981048093e+00
2.095938962981048093e+00
2.188004272591326682e+00
2.188004272591326682e+00
2.188004272591326682e+00
2.301820245979186552e+00
2.301820245979186552e+00
2.390135441145054607e+00
2.390135441145054607e+00
2.494388622699667213e+00
2.494388622699667213e+00
2.530389721366008260e+00
2.530389721366008260e+00
2.436449354533524403e+00
2.436449354533524403e+00
2.430636677144688562e+00
2.430636677144688562e+00
2.327508529923398850e+00
2.327508529923398850e+00
2.198129581591235393e+00
2.198129581591235393e+00
2.095188940092165719e+00
2.095188940092165719e+00
2.095188940092165719e+00
2.005373699148533806e+00
2.005373699148533806e+00
2.008561296426282894e+00
2.008561296426282894e+00
2.114314523758659803e+00
2.114314523758659803e+00
2.255318826868495830e+00
2.255318826868495830e+00
2.406448438978240567e+00
2.406448438978240567e+00
2.398573198644978088e+00
2.398573198644978088e+00
2.337633838923307117e+00
2.337633838923307117e+00
2.401760795922727176e+00
2.401760795922727176e+00
2.401760795922727176e+00
2.410198553422650658e+00
2.410198553422650658e+00
2.407010956144902014e+00
2.407010956144902014e+00
2.392198004089480357e+00
2.392198004089480357e+00
2.233755668813135031e+00
2.233755668813135031e+00
2.180691549424726094e+00
2.180691549424726094e+00
2.210129947813348927e+00
2.210129947813348927e+00
2.229443037202063049e+00
2.229443037202063049e+00
2.241630909146397510e+00
2.241630909146397510e+00
2.241630909146397510e+00
2.347009125034333454e+00
2.347009125034333454e+00
2.378697592089602519e+00
2.378697592089602519e+00
2.432511734366893830e+00
2.432511734366893830e+00
2.437761894589068223e+00
2.437761894589068223e+00
2.396698141422773265e+00
2.396698141422773265e+00
2.419573839533677440e+00
2.419573839533677440e+00
2.422948942533646566e+00
2.422948942533646566e+00
2.377010040589617734e+00
2.377010040589617734e+00
2.324133426923429280e+00
2.324133426923429280e+00
2.151253151036103706e+00
2.151253151036103706e+00
2.099876583147679110e+00
2.099876583147679110e+00
2.099876583147679110e+00
2.110939420758690233e+00
2.110939420758690233e+00
2.088438734092227023e+00
2.088438734092227023e+00
2.123689809869686140e+00
2.123689809869686140e+00
2.215192602313302839e+00
2.215192602313302839e+00
2.383197729422894984e+00
2.383197729422894984e+00
2.556453016754661967e+00
2.556453016754661967e+00
2.574453566087832268e+00
2.574453566087832268e+00
2.458200018311105683e+00
2.458200018311105683e+00
2.458200018311105683e+00
2.274631916257209951e+00
2.274631916257209951e+00
2.112064455092013571e+00
2.112064455092013571e+00
2.044562395092623941e+00
2.044562395092623941e+00
1.932996490371410303e+00
1.932996490371410303e+00
1.841868709372234347e+00
1.841868709372234347e+00
1.928683858760338099e+00
1.928683858760338099e+00
2.031812005981628033e+00
2.031812005981628033e+00
2.167753654591509704e+00
2.167753654591509704e+00
2.167753654591509704e+00
2.305945371868038052e+00
2.305945371868038052e+00
2.285694753868221074e+00
2.285694753868221074e+00
2.250631183812982439e+00
2.250631183812982439e+00
2.225130405590991067e+00
2.225130405590991067e+00
2.188941801202429094e+00
2.188941801202429094e+00
2.263756584368419311e+00
2.263756584368419311e+00
2.284194708090456771e+00
2.284194708090456771e+00
2.376822534867396808e+00
2.376822534867396808e+00
2.593954161198767316e+00
2.593954161198767316e+00
2.593954161198767316e+00
2.684331919309061121e+00
2.684331919309061121e+00
2.654893520920438288e+00
2.654893520920438288e+00
2.258318918424023991e+00
2.258318918424023991e+00
1.930933927426984553e+00
1.930933927426984553e+00
1.836993560594500696e+00
1.836993560594500696e+00
1.948934476760155077e+00
1.948934476760155077e+00
2.151253151036103706e+00
2.151253151036103706e+00
2.330133610034486047e+00
2.330133610034486047e+00
2.447512192144535526e+00
2.447512192144535526e+00
2.447512192144535526e+00
2.446012146366771223e+00
2.446012146366771223e+00
2.538639973143711703e+00
2.538639973143711703e+00
2.552890408032471470e+00
2.552890408032471470e+00
2.558515579699087716e+00
2.558515579699087716e+00
2.641955626087221898e+00
2.641955626087221898e+00
2.515764275032807085e+00
2.515764275032807085e+00
2.385260292367321178e+00
2.385260292367321178e+00
2.214817590868861874e+00
2.214817590868861874e+00
2.214817590868861874e+00
1.968810083315530868e+00
1.968810083315530868e+00
1.909745780816064942e+00
1.909745780816064942e+00
1.964872463148899850e+00
1.964872463148899850e+00
2.006686239204077182e+00
2.006686239204077182e+00
2.129877498702963390e+00
2.129877498702963390e+00
2.098564043092135289e+00
2.098564043092135289e+00
2.133815118869594407e+00
2.133815118869594407e+00
2.313258095034638639e+00
2.313258095034638639e+00
2.313258095034638639e+00
2.428199102755821404e+00
2.428199102755821404e+00
2.659956175420392643e+00
2.659956175420392643e+00
2.638955534531693736e+00
2.638955534531693736e+00
2.417698782311472172e+00
2.417698782311472172e+00
2.274444410534989469e+00
2.274444410534989469e+00
2.080938505203405953e+00
2.080938505203405953e+00
1.978372875148777910e+00
1.978372875148777910e+00
2.022436719870601696e+00
2.022436719870601696e+00
2.126314889980773337e+00
2.126314889980773337e+00
2.126314889980773337e+00
2.148253059480575100e+00
2.148253059480575100e+00
2.275194433423871843e+00
2.275194433423871843e+00
2.383197729422894984e+00
2.383197729422894984e+00
2.292819971312600735e+00
2.292819971312600735e+00
2.149753105258339403e+00
2.149753105258339403e+00
2.171878780480361648e+00
2.171878780480361648e+00
2.409073519089327764e+00
2.409073519089327764e+00
2.502076357310709209e+00
2.502076357310709209e+00
2.502076357310709209e+00
2.296007568590349823e+00
2.296007568590349823e+00
2.140565324869533104e+00
2.140565324869533104e+00
2.017749076815088305e+00
2.017749076815088305e+00
1.974997772148808339e+00
1.974997772148808339e+00
1.959809808648945717e+00
1.959809808648945717e+00
1.988685689870906881e+00
1.988685689870906881e+00
2.108126834925382109e+00
2.108126834925382109e+00
2.259818964201788294e+00
2.259818964201788294e+00
2.169816217535935454e+00
2.169816217535935454e+00
2.155190771202734279e+00
2.155190771202734279e+00
2.103064180425428198e+00
2.103064180425428198e+00
2.113001983703115982e+00
2.113001983703115982e+00
2.339133884701071420e+00
2.339133884701071420e+00
2.483888302255317981e+00
2.483888302255317981e+00
2.483888302255317981e+00
2.683206884975737783e+00
2.683206884975737783e+00
2.647205786309396736e+00
2.647205786309396736e+00
2.452012329477828434e+00
2.452012329477828434e+00
2.369884823145237629e+00
2.369884823145237629e+00
2.246693563646351421e+00
2.246693563646351421e+00
2.131190038758506766e+00
2.131190038758506766e+00
2.021311685537278358e+00
2.021311685537278358e+00
2.001436078981902345e+00
2.001436078981902345e+00
2.001436078981902345e+00
2.068000610370189563e+00
2.068000610370189563e+00
2.200567155980101663e+00
2.200567155980101663e+00
2.316445692312387283e+00
2.316445692312387283e+00
2.199817133091219734e+00
2.199817133091219734e+00
2.024124271370586037e+00
2.024124271370586037e+00
1.823680654316843119e+00
1.823680654316843119e+00
1.861181798760948691e+00
1.861181798760948691e+00
1.956059694204534960e+00
1.956059694204534960e+00
1.956059694204534960e+00
2.075500839259010633e+00
2.075500839259010633e+00
2.290382396923734465e+00
2.290382396923734465e+00
2.507326517532883603e+00
2.507326517532883603e+00
2.647205786309396736e+00
2.647205786309396736e+00
2.753709036530656018e+00
2.753709036530656018e+00
2.791585192419202333e+00
2.791585192419202333e+00
2.744896267586291128e+00
2.744896267586291128e+00
2.581953794976653338e+00
2.581953794976653338e+00
2.403448347422711961e+00
2.403448347422711961e+00
2.403448347422711961e+00
2.315695669423505798e+00
2.315695669423505798e+00
2.180504043702505612e+00
2.180504043702505612e+00
1.933183996093630785e+00
1.933183996093630785e+00
1.915933469649342413e+00
1.915933469649342413e+00
1.885370036927396464e+00
1.885370036927396464e+00
1.926058778649250680e+00
1.926058778649250680e+00
2.227380474257637299e+00
2.227380474257637299e+00
2.346446607867672007e+00
2.346446607867672007e+00
2.283819696646015807e+00
2.283819696646015807e+00
2.283819696646015807e+00
2.093313882869960452e+00
2.093313882869960452e+00
1.976122806482131455e+00
1.976122806482131455e+00
1.999748527481917781e+00
1.999748527481917781e+00
1.964497451704458886e+00
1.964497451704458886e+00
2.049625049592577852e+00
2.049625049592577852e+00
1.991873287148655747e+00
1.991873287148655747e+00
1.793679738761558839e+00
1.793679738761558839e+00
1.532109256263924246e+00
1.532109256263924246e+00
1.301664723654896827e+00
1.301664723654896827e+00
1.301664723654896827e+00
1.371416852320932689e+00
1.371416852320932689e+00
1.795742301705984811e+00
1.795742301705984811e+00
2.229068025757622085e+00
2.229068025757622085e+00
2.675331644642475748e+00
2.675331644642475748e+00
3.250036683248390457e+00
3.250036683248390457e+00
3.424041993469038925e+00
3.424041993469038925e+00
3.214598101748710857e+00
3.214598101748710857e+00
3.282850184636982416e+00
3.282850184636982416e+00
3.282850184636982416e+00
3.144658467360454068e+00
3.144658467360454068e+00
2.776209723197119228e+00
2.776209723197119228e+00
2.395010589922788480e+00
2.395010589922788480e+00
2.424261482589190386e+00
2.424261482589190386e+00
2.341383953367717208e+00
2.341383953367717208e+00
2.037437177648243392e+00
2.037437177648243392e+00
1.973310220648823554e+00
1.973310220648823554e+00
2.034812097537156195e+00
2.034812097537156195e+00
2.034812097537156195e+00
1.948934476760155077e+00
1.948934476760155077e+00
1.895870357371746140e+00
1.895870357371746140e+00
1.750178411206396500e+00
1.750178411206396500e+00
1.711927243873409221e+00
1.711927243873409221e+00
1.647612781151768679e+00
1.647612781151768679e+00
1.807555162205877863e+00
1.807555162205877863e+00
2.088063722647786058e+00
2.088063722647786058e+00
2.607642078920865636e+00
2.607642078920865636e+00
2.607642078920865636e+00
2.843524277474287931e+00
2.843524277474287931e+00
2.533764824365978274e+00
2.533764824365978274e+00
2.369884823145237629e+00
2.369884823145237629e+00
2.327883541367839371e+00
2.327883541367839371e+00
2.432511734366893830e+00
2.432511734366893830e+00
2.370822351756340485e+00
2.370822351756340485e+00
2.104751731925412539e+00
2.104751731925412539e+00
1.843368755149998650e+00
1.843368755149998650e+00
1.954934659871212066e+00
1.954934659871212066e+00
2.114689535203100768e+00
2.114689535203100768e+00
2.214067567979979945e+00
2.214067567979979945e+00
2.383197729422894984e+00
2.383197729422894984e+00
2.383197729422894984e+00
2.075125827814569668e+00
2.075125827814569668e+00
2.115627063814203623e+00
2.115627063814203623e+00
2.174316354869228363e+00
2.174316354869228363e+00
2.001061067537461380e+00
2.001061067537461380e+00
1.877869808038575394e+00
1.877869808038575394e+00
1.843931272316659875e+00
1.843931272316659875e+00
2.216692648091067142e+00
2.216692648091067142e+00
2.746396313364055430e+00
2.746396313364055430e+00
2.746396313364055430e+00
2.475638050477614982e+00
2.475638050477614982e+00
2.297132602923673161e+00
2.297132602923673161e+00
2.257193884090700653e+00
2.257193884090700653e+00
2.182004089480269915e+00
2.182004089480269915e+00
2.303882808923612302e+00
2.303882808923612302e+00
2.441512009033478758e+00
2.441512009033478758e+00
2.566578325754570233e+00
2.566578325754570233e+00
2.541452558977019383e+00
2.541452558977019383e+00
2.541452558977019383e+00
2.302757774590289408e+00
2.302757774590289408e+00
2.022061708426160731e+00
2.022061708426160731e+00
2.022249214148381213e+00
2.022249214148381213e+00
1.978747886593218652e+00
1.978747886593218652e+00
2.067063081759087151e+00
2.067063081759087151e+00
2.221380291146580532e+00
2.221380291146580532e+00
2.361072054200873183e+00
2.361072054200873183e+00
2.665768852809228928e+00
2.665768852809228928e+00
2.665768852809228928e+00
2.644018189031648092e+00
2.644018189031648092e+00
2.325633472701193583e+00
2.325633472701193583e+00
1.869994567705313360e+00
1.869994567705313360e+00
1.552547379985961484e+00
1.552547379985961484e+00
1.721865047151097006e+00
1.721865047151097006e+00
1.870932096316415993e+00
1.870932096316415993e+00
1.777741752372814288e+00
1.777741752372814288e+00
1.868119510483107870e+00
1.868119510483107870e+00
1.868119510483107870e+00
2.613642262031922403e+00
2.613642262031922403e+00
3.018092104861598735e+00
3.018092104861598735e+00
2.809023224585711187e+00
2.809023224585711187e+00
2.770397045808282943e+00
2.770397045808282943e+00
2.973465742973113279e+00
2.973465742973113279e+00
2.914588946195867614e+00
2.914588946195867614e+00
2.631455305642872666e+00
2.631455305642872666e+00
2.307632923368022837e+00
2.307632923368022837e+00
2.241068391979735619e+00
2.241068391979735619e+00
2.241068391979735619e+00
2.197004547257912055e+00
2.197004547257912055e+00
2.145440473647266977e+00
2.145440473647266977e+00
1.918933561204870797e+00
1.918933561204870797e+00
1.846181340983306329e+00
1.846181340983306329e+00
1.968060060426648716e+00
1.968060060426648716e+00
1.933559007538071750e+00
1.933559007538071750e+00
2.113189489425336465e+00
2.113189489425336465e+00
2.062000427259132795e+00
2.062000427259132795e+00
1.899620471816156453e+00
1.899620471816156453e+00
1.899620471816156453e+00
2.129877498702963390e+00
2.129877498702963390e+00
2.360884548478652700e+00
2.360884548478652700e+00
2.342133976256599581e+00
2.342133976256599581e+00
2.475450544755394056e+00
2.475450544755394056e+00
2.511826654866176511e+00
2.511826654866176511e+00
2.439636951811273491e+00
2.439636951811273491e+00
2.503388897366253030e+00
2.503388897366253030e+00
2.514264229255043226e+00
2.514264229255043226e+00
2.514264229255043226e+00
2.472262947477644968e+00
2.472262947477644968e+00
2.573703543198950339e+00
2.573703543198950339e+00
2.346821619312112972e+00
2.346821619312112972e+00
2.223067842646564873e+00
2.223067842646564873e+00
2.238818323313089387e+00
2.238818323313089387e+00
2.003686147648549021e+00
2.003686147648549021e+00
1.674801110873744836e+00
1.674801110873744836e+00
1.610299142429883590e+00
1.610299142429883590e+00
1.610299142429883590e+00
1.680613788262581121e+00
1.680613788262581121e+00
1.683988891262550913e+00
1.683988891262550913e+00
1.688676534318063860e+00
1.688676534318063860e+00
1.582923306985686951e+00
1.582923306985686951e+00
1.854431592761009551e+00
1.854431592761009551e+00
2.591891598254341122e+00
2.591891598254341122e+00
3.028592425305948410e+00
3.028592425305948410e+00
3.192472426526688611e+00
3.192472426526688611e+00
3.192472426526688611e+00
3.076031373027741544e+00
3.076031373027741544e+00
3.019779656361583076e+00
3.019779656361583076e+00
2.845399334696493199e+00
2.845399334696493199e+00
2.681331827753532515e+00
2.681331827753532515e+00
2.600891872920926495e+00
2.600891872920926495e+00
2.332946195867793726e+00
2.332946195867793726e+00
1.912558366649372843e+00
1.912558366649372843e+00
1.813930356761375817e+00
1.813930356761375817e+00
1.830993377483443707e+00
1.830993377483443707e+00
2.126314889980773337e+00
2.126314889980773337e+00
2.340446424756614796e+00
2.340446424756614796e+00
2.224005371257667729e+00
2.224005371257667729e+00
2.162315988647114828e+00
2.162315988647114828e+00
2.162315988647114828e+00
2.233755668813135031e+00
2.233755668813135031e+00
2.093313882869960452e+00
2.093313882869960452e+00
2.020186651203955464e+00
2.020186651203955464e+00
2.018124088259529714e+00
2.018124088259529714e+00
2.013061433759574914e+00
2.013061433759574914e+00
2.035749626148258606e+00
2.035749626148258606e+00
1.880869899594103778e+00
1.880869899594103778e+00
1.927746330149235465e+00
1.927746330149235465e+00
1.927746330149235465e+00
2.087688711203345093e+00
2.087688711203345093e+00
2.555140476699118146e+00
2.555140476699118146e+00
2.999904049806207507e+00
2.999904049806207507e+00
2.879337870418408496e+00
2.879337870418408496e+00
2.805835627307962543e+00
2.805835627307962543e+00
2.878025330362865120e+00
2.878025330362865120e+00
2.486700888088625661e+00
2.486700888088625661e+00
1.868682027649769539e+00
1.868682027649769539e+00
1.868682027649769539e+00
1.620236945707571818e+00
1.620236945707571818e+00
1.991310769981994078e+00
1.991310769981994078e+00
2.338758873256630455e+00
2.338758873256630455e+00
2.465137730033265306e+00
2.465137730033265306e+00
2.386760338145085036e+00
2.386760338145085036e+00
2.171878780480361648e+00
2.171878780480361648e+00
2.140940336313974068e+00
2.140940336313974068e+00
2.157065828424939546e+00
2.157065828424939546e+00
2.157065828424939546e+00
2.154628254036072832e+00
2.154628254036072832e+00
2.055250221259193655e+00
2.055250221259193655e+00
1.817492965483565870e+00
1.817492965483565870e+00
1.622299508651997346e+00
1.622299508651997346e+00
1.534171819208349774e+00
1.534171819208349774e+00
1.670488479262672854e+00
1.670488479262672854e+00
2.120689718314157535e+00
2.120689718314157535e+00
2.553077913754691952e+00
2.553077913754691952e+00
2.771147068697164872e+00
2.771147068697164872e+00
2.965778008362071727e+00
2.965778008362071727e+00
2.965778008362071727e+00
3.016779564806054914e+00
3.016779564806054914e+00
3.214035584582048966e+00
3.214035584582048966e+00
2.970465651417585118e+00
2.970465651417585118e+00
2.870900112918485014e+00
2.870900112918485014e+00
2.538077455977050256e+00
2.538077455977050256e+00
2.130627521591845319e+00
2.130627521591845319e+00
1.993560838648640532e+00
1.993560838648640532e+00
1.953247108371227281e+00
1.953247108371227281e+00
2.082063539536728847e+00
2.082063539536728847e+00
2.082063539536728847e+00
2.377010040589617734e+00
2.377010040589617734e+00
2.449012237922299828e+00
2.449012237922299828e+00
2.233755668813135031e+00
2.233755668813135031e+00
2.078125919370098273e+00
2.078125919370098273e+00
1.842056215094454830e+00
1.842056215094454830e+00
1.940309213538010891e+00
1.940309213538010891e+00
1.710052186651203954e+00
1.710052186651203954e+00
1.409293008209479225e+00
1.409293008209479225e+00
1.409293008209479225e+00
1.526484084597308444e+00
1.526484084597308444e+00
1.839056123538926224e+00
1.839056123538926224e+00
1.691864131595812726e+00
1.691864131595812726e+00
1.814680379650257747e+00
1.814680379650257747e+00
2.612704733420819547e+00
2.612704733420819547e+00
3.273474898525956078e+00
3.273474898525956078e+00
3.409791558580278714e+00
3.409791558580278714e+00
3.063093478194525154e+00
3.063093478194525154e+00
3.063093478194525154e+00
2.604454481643116548e+00
2.604454481643116548e+00
2.515389263588366120e+00
2.515389263588366120e+00
2.487825922421948999e+00
2.487825922421948999e+00
2.510889126255073656e+00
2.510889126255073656e+00
2.657518601031525485e+00
2.657518601031525485e+00
2.600516861476485531e+00
2.600516861476485531e+00
2.591704092532120640e+00
2.591704092532120640e+00
2.488388439588610446e+00
2.488388439588610446e+00
2.353196813867610704e+00
2.353196813867610704e+00
2.353196813867610704e+00
2.260756492812891150e+00
2.260756492812891150e+00
2.137002716147343495e+00
2.137002716147343495e+00
2.105689260536515395e+00
2.105689260536515395e+00
2.112064455092013571e+00
2.112064455092013571e+00
1.889495162816248186e+00
1.889495162816248186e+00
1.888745139927366035e+00
1.888745139927366035e+00
1.940121707815790408e+00
1.940121707815790408e+00
2.122002258369701355e+00
2.122002258369701355e+00
2.270694296090578934e+00
2.270694296090578934e+00
2.262819055757316900e+00
2.262819055757316900e+00
2.372509903256325270e+00
2.372509903256325270e+00
2.372509903256325270e+00
2.292819971312600735e+00
2.292819971312600735e+00
1.949309488204596263e+00
1.949309488204596263e+00
2.033874568926053783e+00
2.033874568926053783e+00
2.398573198644978088e+00
2.398573198644978088e+00
2.257756401257362544e+00
2.257756401257362544e+00
2.018311593981750196e+00
2.018311593981750196e+00
1.903370586260566988e+00
1.903370586260566988e+00
1.949309488204596263e+00
1.949309488204596263e+00
1.949309488204596263e+00
1.965622486037782002e+00
1.965622486037782002e+00
2.205817316202276945e+00
2.205817316202276945e+00
2.316258186590166801e+00
2.316258186590166801e+00
2.495513657032990551e+00
2.495513657032990551e+00
2.845211828974272716e+00
2.845211828974272716e+00
2.954902676473281087e+00
2.954902676473281087e+00
2.634642902920621310e+00
2.634642902920621310e+00
2.634267891476180345e+00
2.634267891476180345e+00
2.634267891476180345e+00
2.676456678975799086e+00
2.676456678975799086e+00
2.629017731254005508e+00
2.629017731254005508e+00
2.460262581255531433e+00
2.460262581255531433e+00
2.297132602923673161e+00
2.297132602923673161e+00
1.938621662038026106e+00
1.938621662038026106e+00
2.094813928647724754e+00
2.094813928647724754e+00
2.336321298867763296e+00
2.336321298867763296e+00
2.408135990478225352e+00
2.408135990478225352e+00
2.408135990478225352e+00
2.449012237922299828e+00
2.449012237922299828e+00
2.353196813867610704e+00
2.353196813867610704e+00
2.314008117923521013e+00
2.314008117923521013e+00
2.466075258644368162e+00
2.466075258644368162e+00
2.292444959868159771e+00
2.292444959868159771e+00
2.275194433423871843e+00
2.275194433423871843e+00
2.126502395702994264e+00
2.126502395702994264e+00
1.870369579149754324e+00
1.870369579149754324e+00
1.827618274483474137e+00
1.827618274483474137e+00
1.827618274483474137e+00
1.824430677205725271e+00
1.824430677205725271e+00
1.923433698538163483e+00
1.923433698538163483e+00
2.239005829035309869e+00
2.239005829035309869e+00
2.653205969420453503e+00
2.653205969420453503e+00
2.726520706808679417e+00
2.726520706808679417e+00
2.791772698141422815e+00
2.791772698141422815e+00
2.665206335642567481e+00
2.665206335642567481e+00
2.218380199591051927e+00
2.218380199591051927e+00
2.042687337870418673e+00
2.042687337870418673e+00
2.042687337870418673e+00
1.854806604205450737e+00
1.854806604205450737e+00
1.770804040650654665e+00
1.770804040650654665e+00
1.873932187871944377e+00
1.873932187871944377e+00
1.983998046815393712e+00
1.983998046815393712e+00
2.162503494369335311e+00
2.162503494369335311e+00
2.235068208868678852e+00
2.235068208868678852e+00
2.195504501480147752e+00
2.195504501480147752e+00
2.492326059755241463e+00
2.492326059755241463e+00
2.492326059755241463e+00
2.699894894253364708e+00
2.699894894253364708e+00
2.626205145420697828e+00
2.626205145420697828e+00
2.414886196478164049e+00
2.414886196478164049e+00
2.248193609424115724e+00
2.248193609424115724e+00
2.263006561479537382e+00
2.263006561479537382e+00
2.649268349253822485e+00
2.649268349253822485e+00
2.776584734641560193e+00
2.776584734641560193e+00
2.710020203253273419e+00
2.710020203253273419e+00
2.710020203253273419e+00
2.849524460585345143e+00
2.849524460585345143e+00
2.726520706808679417e+00
2.726520706808679417e+00
2.634830408642841792e+00
2.634830408642841792e+00
2.221380291146580532e+00
2.221380291146580532e+00
1.898120426038392372e+00
1.898120426038392372e+00
1.842056215094454830e+00
1.842056215094454830e+00
1.898682943205053819e+00
1.898682943205053819e+00
2.224192876979888212e+00
2.224192876979888212e+00
2.224192876979888212e+00
2.581578783532212373e+00
2.581578783532212373e+00
2.549890316476943308e+00
2.549890316476943308e+00
2.437199377422406776e+00
2.437199377422406776e+00
2.564515762810144484e+00
2.564515762810144484e+00
2.581578783532212373e+00
2.581578783532212373e+00
2.391635486922818910e+00
2.391635486922818910e+00
2.057500289925840331e+00
2.057500289925840331e+00
2.040062257759331033e+00
2.040062257759331033e+00
2.033312051759392336e+00
2.033312051759392336e+00
2.033312051759392336e+00
1.971997680593279956e+00
1.971997680593279956e+00
2.040999786370433888e+00
2.040999786370433888e+00
2.157440839869380955e+00
2.157440839869380955e+00
2.259443952757347329e+00
2.259443952757347329e+00
2.608204596087527527e+00
2.608204596087527527e+00
2.729520798364208023e+00
2.729520798364208023e+00
2.281569627979369130e+00
2.281569627979369130e+00
1.978372875148777910e+00
1.978372875148777910e+00
1.965434980315561520e+00
1.965434980315561520e+00
1.968435071871089903e+00
1.968435071871089903e+00
1.968435071871089903e+00
2.113564500869777874e+00
2.113564500869777874e+00
1.972560197759941625e+00
1.972560197759941625e+00
2.075313333536790150e+00
2.075313333536790150e+00
2.372134891811884305e+00
2.372134891811884305e+00
2.320570818201239227e+00
2.320570818201239227e+00
2.156690816980498582e+00
2.156690816980498582e+00
2.244443494979705633e+00
2.244443494979705633e+00
2.749583910641804518e+00
2.749583910641804518e+00
3.317351237525559160e+00
3.317351237525559160e+00
3.317351237525559160e+00
2.812023316141239793e+00
2.812023316141239793e+00
2.316258186590166801e+00
2.316258186590166801e+00
2.314945646534623425e+00
2.314945646534623425e+00
2.345509079256569152e+00
2.345509079256569152e+00
2.510514114810632691e+00
2.510514114810632691e+00
2.424448988311410869e+00
2.424448988311410869e+00
1.933746513260292454e+00
1.933746513260292454e+00
1.772304086428418968e+00
1.772304086428418968e+00
1.772304086428418968e+00
1.863056855983153737e+00
1.863056855983153737e+00
1.948559465315714112e+00
1.948559465315714112e+00
2.106251777703176842e+00
2.106251777703176842e+00
2.318883266701254442e+00
2.318883266701254442e+00
2.467762810144352947e+00
2.467762810144352947e+00
2.596766747032074996e+00
2.596766747032074996e+00
2.610454664754173315e+00
2.610454664754173315e+00
2.757084139530625588e+00
2.757084139530625588e+00
2.757084139530625588e+00
2.659018646809289788e+00
2.659018646809289788e+00
2.433824274422437206e+00
2.433824274422437206e+00
2.118252143925290376e+00
2.118252143925290376e+00
2.194379467146824858e+00
2.194379467146824858e+00
2.320570818201239227e+00
2.320570818201239227e+00
2.188941801202429094e+00
2.188941801202429094e+00
1.885932554094057911e+00
1.885932554094057911e+00
2.106064271980956359e+00
2.106064271980956359e+00
2.106064271980956359e+00
2.208442396313364142e+00
2.208442396313364142e+00
2.326946012756737403e+00
2.326946012756737403e+00
2.518201849421674243e+00
2.518201849421674243e+00
2.503576403088473068e+00
2.503576403088473068e+00
2.298257637256996500e+00
2.298257637256996500e+00
2.382447706534013054e+00
2.382447706534013054e+00
2.391260475478377501e+00
2.391260475478377501e+00
2.278194524979400004e+00
2.278194524979400004e+00
2.278194524979400004e+00
2.157253334147160473e+00
2.157253334147160473e+00
2.162503494369335311e+00
2.162503494369335311e+00
2.110939420758690233e+00
2.110939420758690233e+00
2.289632374034852091e+00
2.289632374034852091e+00
2.330696127201147494e+00
2.330696127201147494e+00
2.248006103701895242e+00
2.248006103701895242e+00
2.315320657979064389e+00
2.315320657979064389e+00
2.185379192480239485e+00
2.185379192480239485e+00
2.204504776146733125e+00
2.204504776146733125e+00
2.204504776146733125e+00
2.232818140202032620e+00
2.232818140202032620e+00
2.237130771813104602e+00
2.237130771813104602e+00
2.344009033478804849e+00
2.344009033478804849e+00
2.288694845423749680e+00
2.288694845423749680e+00
2.203379741813409787e+00
2.203379741813409787e+00
2.184816675313578038e+00
2.184816675313578038e+00
2.131752555925168657e+00
2.131752555925168657e+00
2.083563585314493150e+00
2.083563585314493150e+00
2.207129856257820322e+00
2.207129856257820322e+00
2.207129856257820322e+00
2.477325601977599767e+00
2.477325601977599767e+00
2.382447706534013054e+00
2.382447706534013054e+00
2.504326425977354997e+00
2.504326425977354997e+00
2.562828211310159254e+00
2.562828211310159254e+00
2.476388073366496911e+00
2.476388073366496911e+00
2.373447431867427682e+00
2.373447431867427682e+00
2.474325510422071162e+00
2.474325510422071162e+00
2.455574938200018487e+00
2.455574938200018487e+00
2.269194250312814631e+00
2.269194250312814631e+00
2.269194250312814631e+00
2.149940610980559885e+00
2.149940610980559885e+00
2.296945097201452679e+00
2.296945097201452679e+00
2.497951231421857266e+00
2.497951231421857266e+00
2.624892605365154008e+00
2.624892605365154008e+00
2.341008941923276243e+00
2.341008941923276243e+00
2.244818506424146598e+00
2.244818506424146598e+00
2.207879879146702695e+00
2.207879879146702695e+00
2.319445783867915889e+00
2.319445783867915889e+00
2.479763176366466482e+00
2.479763176366466482e+00
2.498513748588519157e+00
2.498513748588519157e+00
2.320383312479018745e+00
2.320383312479018745e+00
2.389947935422834124e+00
2.389947935422834124e+00
2.389947935422834124e+00
2.533952330088198757e+00
2.533952330088198757e+00
2.400635761589403838e+00
2.400635761589403838e+00
2.076250862147892562e+00
2.076250862147892562e+00
2.087313699758903685e+00
2.087313699758903685e+00
2.262256538590655452e+00
2.262256538590655452e+00
2.299570177312540320e+00
2.299570177312540320e+00
2.351509262367625919e+00
2.351509262367625919e+00
2.252506241035188150e+00
2.252506241035188150e+00
2.174316354869228363e+00
2.174316354869228363e+00
2.174316354869228363e+00
2.197567064424573946e+00
2.197567064424573946e+00
2.289444868312631609e+00
2.289444868312631609e+00
2.257568895535142062e+00
2.257568895535142062e+00
2.326195989867855030e+00
2.326195989867855030e+00
2.539765007477034597e+00
2.539765007477034597e+00
2.555140476699118146e+00
2.555140476699118146e+00
2.367447248756370914e+00
2.367447248756370914e+00
2.338571367534409973e+00
2.338571367534409973e+00
2.338571367534409973e+00
2.442824549089022579e+00
2.442824549089022579e+00
2.557015533921323414e+00
2.557015533921323414e+00
2.484075807977538464e+00
2.484075807977538464e+00
2.252881252479629115e+00
2.252881252479629115e+00
2.307632923368022837e+00
2.307632923368022837e+00
2.426699056978057101e+00
2.426699056978057101e+00
2.333508713034455617e+00
2.333508713034455617e+00
2.303132786034730373e+00
2.303132786034730373e+00
2.333321207312235135e+00
2.333321207312235135e+00
2.333321207312235135e+00
2.253443769646290562e+00
2.253443769646290562e+00
2.361259559923093665e+00
2.361259559923093665e+00
2.327696035645618888e+00
2.327696035645618888e+00
2.310820520645771925e+00
2.310820520645771925e+00
2.328071047090059853e+00
2.328071047090059853e+00
2.274256904812768987e+00
2.274256904812768987e+00
2.063312967314676172e+00
2.063312967314676172e+00
1.945934385204626693e+00
1.945934385204626693e+00
2.083563585314493150e+00
2.083563585314493150e+00
2.083563585314493150e+00
2.172628803369243577e+00
2.172628803369243577e+00
2.087688711203345093e+00
2.087688711203345093e+00
2.291882442701498768e+00
2.291882442701498768e+00
2.599391827143162192e+00
2.599391827143162192e+00
2.507514023255104085e+00
2.507514023255104085e+00
2.362759605700857524e+00
2.362759605700857524e+00
2.203004730368968822e+00
2.203004730368968822e+00
2.213692556535538980e+00
2.213692556535538980e+00
2.487825922421948999e+00
2.487825922421948999e+00
2.487825922421948999e+00
2.474888027588732609e+00
2.474888027588732609e+00
2.375697500534073914e+00
2.375697500534073914e+00
2.146190496536149350e+00
2.146190496536149350e+00
2.211629993591112786e+00
2.211629993591112786e+00
2.271631824701681346e+00
2.271631824701681346e+00
2.258318918424023991e+00
2.258318918424023991e+00
2.281757133701590057e+00
2.281757133701590057e+00
2.625080111087374490e+00
2.625080111087374490e+00
2.625080111087374490e+00
2.840524185918759770e+00
2.840524185918759770e+00
2.589454023865474408e+00
2.589454023865474408e+00
2.391822992645039392e+00
2.391822992645039392e+00
2.141502853480635959e+00
2.141502853480635959e+00
1.926246284371471162e+00
1.926246284371471162e+00
2.061812921536912313e+00
2.061812921536912313e+00
2.197567064424573946e+00
2.197567064424573946e+00
2.332758690145573244e+00
2.332758690145573244e+00
2.332758690145573244e+00
2.464762718588824342e+00
2.464762718588824342e+00
2.521951963866084778e+00
2.521951963866084778e+00
2.617579882198553420e+00
2.617579882198553420e+00
2.696519791253395137e+00
2.696519791253395137e+00
2.542577593310342721e+00
2.542577593310342721e+00
2.550827845088045720e+00
2.550827845088045720e+00
2.397635670033875677e+00
2.397635670033875677e+00
2.327133518478957885e+00
2.327133518478957885e+00
2.327133518478957885e+00
2.226630451368755370e+00
2.226630451368755370e+00
2.168691183202612560e+00
2.168691183202612560e+00
2.365197180089724238e+00
2.365197180089724238e+00
2.462512649922177665e+00
2.462512649922177665e+00
2.538827478865932186e+00
2.538827478865932186e+00
2.474513016144291644e+00
2.474513016144291644e+00
2.204879787591174090e+00
2.204879787591174090e+00
2.093126377147739969e+00
2.093126377147739969e+00
2.131190038758506766e+00
2.131190038758506766e+00
2.131190038758506766e+00
2.199817133091219734e+00
2.199817133091219734e+00
2.245193517868587563e+00
2.245193517868587563e+00
2.175066377758110736e+00
2.175066377758110736e+00
2.012123905148472502e+00
2.012123905148472502e+00
2.182566606646931362e+00
2.182566606646931362e+00
2.451074800866725578e+00
2.451074800866725578e+00
2.526077089754936722e+00
2.526077089754936722e+00
2.472637958922086376e+00
2.472637958922086376e+00
2.443762077700125435e+00
2.443762077700125435e+00
2.384135258033997840e+00
2.384135258033997840e+00
2.448449720755638381e+00
2.448449720755638381e+00
2.448449720755638381e+00
2.322633381145664977e+00
2.322633381145664977e+00
2.283632190923795324e+00
2.283632190923795324e+00
2.169816217535935454e+00
2.169816217535935454e+00
2.158378368480483367e+00
2.158378368480483367e+00
2.389572923978392716e+00
2.389572923978392716e+00
2.536389904477065471e+00
2.536389904477065471e+00
2.556640522476882449e+00
2.556640522476882449e+00
2.591891598254341122e+00
2.591891598254341122e+00
2.591891598254341122e+00
2.394260567033906106e+00
2.394260567033906106e+00
2.251381206701864812e+00
2.251381206701864812e+00
2.391447981200597983e+00
2.391447981200597983e+00
2.308007934812463802e+00
2.308007934812463802e+00
2.246131046479689974e+00
2.246131046479689974e+00
2.337258827478866152e+00
2.337258827478866152e+00
2.340071413312173831e+00
2.340071413312173831e+00
2.272194341868343237e+00
2.272194341868343237e+00
2.272194341868343237e+00
2.215942625202185212e+00
2.215942625202185212e+00
2.160440931424909561e+00
2.160440931424909561e+00
2.213130039368877089e+00
2.213130039368877089e+00
2.359572008423108880e+00
2.359572008423108880e+00
2.525139561143833866e+00
2.525139561143833866e+00
2.617954893642994829e+00
2.617954893642994829e+00
2.262069032868434526e+00
2.262069032868434526e+00
2.074563310647907777e+00
2.074563310647907777e+00
2.074563310647907777e+00
2.166816125980407293e+00
2.166816125980407293e+00
2.122752281258583285e+00
2.122752281258583285e+00
2.238818323313089387e+00
2.238818323313089387e+00
2.269194250312814631e+00
2.269194250312814631e+00
2.194004455702383449e+00
2.194004455702383449e+00
2.281382122257148648e+00
2.281382122257148648e+00
2.345321573534348669e+00
2.345321573534348669e+00
2.398760704367198571e+00
2.398760704367198571e+00
2.398760704367198571e+00
2.410198553422650658e+00
2.410198553422650658e+00
2.280257087923826198e+00
2.280257087923826198e+00
2.260568987090670667e+00
2.260568987090670667e+00
2.467012787255470574e+00
2.467012787255470574e+00
2.585328897976622908e+00
2.585328897976622908e+00
2.587391460921048658e+00
2.587391460921048658e+00
2.533202307199316383e+00
2.533202307199316383e+00
2.417136265144810281e+00
2.417136265144810281e+00
2.539014984588152668e+00
2.539014984588152668e+00
2.539014984588152668e+00
2.539014984588152668e+00
2.539014984588152668e+00
2.301632740256966070e+00
2.301632740256966070e+00
2.245193517868587563e+00
2.245193517868587563e+00
2.140002807702871657e+00
2.140002807702871657e+00
2.241068391979735619e+00
2.241068391979735619e+00
2.604454481643116548e+00
2.604454481643116548e+00
2.563953245643482592e+00
2.563953245643482592e+00
2.445074617755668811e+00
2.445074617755668811e+00
2.343821527756584366e+00
2.343821527756584366e+00
2.343821527756584366e+00
2.262069032868434526e+00
2.262069032868434526e+00
2.181629078035828950e+00
2.181629078035828950e+00
2.189879329813531950e+00
2.189879329813531950e+00
2.246693563646351421e+00
2.246693563646351421e+00
2.293757499923703591e+00
2.293757499923703591e+00
2.271256813257240381e+00
2.271256813257240381e+00
2.269756767479476078e+00
2.269756767479476078e+00
2.313070589312418157e+00
2.313070589312418157e+00
2.313070589312418157e+00
2.369884823145237629e+00
2.369884823145237629e+00
2.499826288644062977e+00
2.499826288644062977e+00
2.517264320810571387e+00
2.517264320810571387e+00
2.423136448255867048e+00
2.423136448255867048e+00
2.324883449812311209e+00
2.324883449812311209e+00
2.244631000701926116e+00
2.244631000701926116e+00
2.220817773979919085e+00
2.220817773979919085e+00
2.161565965758232455e+00
2.161565965758232455e+00
2.161565965758232455e+00
2.054125186925870761e+00
2.054125186925870761e+00
2.060500381481368493e+00
2.060500381481368493e+00
2.167566148869289222e+00
2.167566148869289222e+00
2.320570818201239227e+00
2.320570818201239227e+00
2.359384502700888397e+00
2.359384502700888397e+00
2.350571733756523507e+00
2.350571733756523507e+00
2.295820062868129341e+00
2.295820062868129341e+00
2.290007385479293500e+00
2.290007385479293500e+00
2.444137089144566399e+00
2.444137089144566399e+00
2.473387981810968306e+00
2.473387981810968306e+00
2.351509262367625919e+00
2.351509262367625919e+00
2.351509262367625919e+00
2.240693380535294654e+00
2.240693380535294654e+00
2.212755027924436124e+00
2.212755027924436124e+00
2.090876308481094181e+00
2.090876308481094181e+00
2.093501388592180934e+00
2.093501388592180934e+00
2.333696218756676100e+00
2.333696218756676100e+00
2.607829584643086118e+00
2.607829584643086118e+00
2.726895718253120382e+00
2.726895718253120382e+00
2.829086336863307682e+00
2.829086336863307682e+00
2.829086336863307682e+00
2.761021759697256606e+00
2.761021759697256606e+00
2.657518601031525485e+00
2.657518601031525485e+00
2.536389904477065471e+00
2.536389904477065471e+00
2.375134983367412023e+00
2.375134983367412023e+00
2.257193884090700653e+00
2.257193884090700653e+00
2.248193609424115724e+00
2.248193609424115724e+00
2.169441206091494490e+00
2.169441206091494490e+00
2.230005554368724940e+00
2.230005554368724940e+00
2.230005554368724940e+00
2.233943174535355514e+00
2.233943174535355514e+00
2.240693380535294654e+00
2.240693380535294654e+00
2.227755485702078264e+00
2.227755485702078264e+00
2.142065370647297406e+00
2.142065370647297406e+00
2.156128299813837135e+00
2.156128299813837135e+00
2.265069124423963132e+00
2.265069124423963132e+00
2.340258919034394314e+00
2.340258919034394314e+00
2.433636768700216724e+00
2.433636768700216724e+00
2.359759514145329362e+00
2.359759514145329362e+00
2.359759514145329362e+00
2.287569811090426342e+00
2.287569811090426342e+00
2.392760521256141804e+00
2.392760521256141804e+00
2.326946012756737403e+00
2.326946012756737403e+00
2.332758690145573244e+00
2.332758690145573244e+00
2.378510086367381593e+00
2.378510086367381593e+00
2.312883083590197675e+00
2.312883083590197675e+00
2.179003997924741309e+00
2.179003997924741309e+00
2.315883175145725836e+00
2.315883175145725836e+00
2.315883175145725836e+00
2.368384777367473326e+00
2.368384777367473326e+00
2.466450270088809127e+00
2.466450270088809127e+00
2.548765282143620414e+00
2.548765282143620414e+00
2.433074251533554833e+00
2.433074251533554833e+00
2.332758690145573244e+00
2.332758690145573244e+00
2.375134983367412023e+00
2.375134983367412023e+00
2.358634479812006024e+00
2.358634479812006024e+00
2.394260567033906106e+00
2.394260567033906106e+00
2.358446974089785542e+00
2.358446974089785542e+00
2.358446974089785542e+00
2.324883449812311209e+00
2.324883449812311209e+00
2.322258369701224012e+00
2.322258369701224012e+00
2.301820245979186552e+00
2.301820245979186552e+00
2.301070223090304623e+00
2.301070223090304623e+00
2.310258003479110034e+00
2.310258003479110034e+00
2.295632557145908859e+00
2.295632557145908859e+00
2.294882534257026929e+00
2.294882534257026929e+00
2.334446241645558029e+00
2.334446241645558029e+00
2.334446241645558029e+00
2.355259376812036454e+00
2.355259376812036454e+00
2.413948667867061193e+00
2.413948667867061193e+00
2.339883907589953349e+00
2.339883907589953349e+00
2.279132053590502860e+00
2.279132053590502860e+00
2.306507889034699499e+00
2.306507889034699499e+00
2.231505600146489243e+00
2.231505600146489243e+00
2.206379833368938392e+00
2.206379833368938392e+00
2.116752098147526517e+00
2.116752098147526517e+00
2.116752098147526517e+00
2.094438917203283790e+00
2.094438917203283790e+00
2.180129032258064647e+00
2.180129032258064647e+00
2.231318094424268317e+00
2.231318094424268317e+00
2.223630359813226764e+00
2.223630359813226764e+00
2.330133610034486047e+00
2.330133610034486047e+00
2.434011780144657688e+00
2.434011780144657688e+00
2.593204138309884943e+00
2.593204138309884943e+00
2.592829126865443978e+00
2.592829126865443978e+00
2.592829126865443978e+00
2.539952513199255080e+00
2.539952513199255080e+00
2.629955259865108363e+00
2.629955259865108363e+00
2.632580339976195560e+00
2.632580339976195560e+00
2.473575487533188788e+00
2.473575487533188788e+00
2.361072054200873183e+00
2.361072054200873183e+00
2.241255897701956545e+00
2.241255897701956545e+00
2.192879421369060555e+00
2.192879421369060555e+00
2.212005005035553751e+00
2.212005005035553751e+00
2.212005005035553751e+00
2.188191778313547164e+00
2.188191778313547164e+00
2.205817316202276945e+00
2.205817316202276945e+00
2.190441846980193397e+00
2.190441846980193397e+00
2.320945829645680192e+00
2.320945829645680192e+00
2.410573564867091623e+00
2.410573564867091623e+00
2.449574755088961275e+00
2.449574755088961275e+00
2.414511185033723084e+00
2.414511185033723084e+00
2.448449720755638381e+00
2.448449720755638381e+00
2.353759331034272151e+00
2.353759331034272151e+00
2.251756218146305777e+00
2.251756218146305777e+00
2.251756218146305777e+00
2.333321207312235135e+00
2.333321207312235135e+00
2.354696859645375007e+00
2.354696859645375007e+00
2.188004272591326682e+00
2.188004272591326682e+00
2.123877315591906623e+00
2.123877315591906623e+00
2.155190771202734279e+00
2.155190771202734279e+00
2.307070406201360946e+00
2.307070406201360946e+00
2.385072786645100695e+00
2.385072786645100695e+00
2.452012329477828434e+00
2.452012329477828434e+00
2.452012329477828434e+00
2.496076174199651998e+00
2.496076174199651998e+00
2.386760338145085036e+00
2.386760338145085036e+00
2.293382488479262626e+00
2.293382488479262626e+00
2.357134434034241721e+00
2.357134434034241721e+00
2.305570360423596643e+00
2.305570360423596643e+00
2.296570085757011714e+00
2.296570085757011714e+00
2.279694570757164307e+00
2.279694570757164307e+00
2.221192785424360050e+00
2.221192785424360050e+00
2.221192785424360050e+00
2.169253700369274007e+00
2.169253700369274007e+00
2.123502304147465658e+00
2.123502304147465658e+00
2.129502487258521981e+00
2.129502487258521981e+00
2.258318918424023991e+00
2.258318918424023991e+00
2.394448072756126589e+00
2.394448072756126589e+00
2.560015625476852019e+00
2.560015625476852019e+00
2.638580523087252327e+00
2.638580523087252327e+00
2.538264961699270739e+00
2.538264961699270739e+00
2.538264961699270739e+00
2.391260475478377501e+00
2.391260475478377501e+00
2.338758873256630455e+00
2.338758873256630455e+00
2.273506881923887057e+00
2.273506881923887057e+00
2.291319925534837321e+00
2.291319925534837321e+00
2.311945554979094819e+00
2.311945554979094819e+00
2.306320383312479017e+00
2.306320383312479017e+00
2.272569353312784202e+00
2.272569353312784202e+00
2.271631824701681346e+00
2.271631824701681346e+00
2.271631824701681346e+00
2.345321573534348669e+00
2.345321573534348669e+00
2.389760429700613198e+00
2.389760429700613198e+00
2.407010956144902014e+00
2.407010956144902014e+00
2.435136814477980582e+00
2.435136814477980582e+00
2.470575395977660182e+00
2.470575395977660182e+00
2.461950132755516218e+00
2.461950132755516218e+00
2.434761803033539618e+00
2.434761803033539618e+00
2.374759971922971058e+00
2.374759971922971058e+00
2.328633564256721744e+00
2.328633564256721744e+00
2.328633564256721744e+00
2.269569261757255596e+00
2.269569261757255596e+00
2.177503952146977007e+00
2.177503952146977007e+00
2.161378460036011973e+00
2.161378460036011973e+00
2.221567796868801015e+00
2.221567796868801015e+00
2.272381847590563719e+00
2.272381847590563719e+00
2.401948301644947659e+00
2.401948301644947659e+00
2.466450270088809127e+00
2.466450270088809127e+00
2.404385876033814373e+00
2.404385876033814373e+00
2.335008758812219920e+00
2.335008758812219920e+00
2.335008758812219920e+00
2.290007385479293500e+00
2.290007385479293500e+00
2.364447157200842309e+00
2.364447157200842309e+00
2.481450727866450823e+00
2.481450727866450823e+00
2.344759056367687222e+00
2.344759056367687222e+00
2.170003723258155937e+00
2.170003723258155937e+00
2.079250953703421168e+00
2.079250953703421168e+00
2.082251045258949329e+00
2.082251045258949329e+00
2.203379741813409787e+00
2.203379741813409787e+00
2.315133152256843907e+00
2.315133152256843907e+00
2.315133152256843907e+00
2.317008209479048730e+00
2.317008209479048730e+00
2.368197271645252844e+00
2.368197271645252844e+00
2.411698599200414961e+00
2.411698599200414961e+00
2.392573015533921321e+00
2.392573015533921321e+00
2.428574114200262368e+00
2.428574114200262368e+00
2.509201574755088870e+00
2.509201574755088870e+00
2.541265053254798900e+00
2.541265053254798900e+00
2.481450727866450823e+00
2.481450727866450823e+00
2.481450727866450823e+00
2.305195348979155678e+00
2.305195348979155678e+00
2.253818781090731527e+00
2.253818781090731527e+00
2.223817865535447247e+00
2.223817865535447247e+00
2.220817773979919085e+00
2.220817773979919085e+00
2.225317911313211550e+00
2.225317911313211550e+00
2.206004821924497428e+00
2.206004821924497428e+00
2.277256996368297592e+00
2.277256996368297592e+00
2.408886013367107282e+00
2.408886013367107282e+00
2.408886013367107282e+00
2.401198278756065729e+00
2.401198278756065729e+00
2.437199377422406776e+00
2.437199377422406776e+00
2.488200933866389963e+00
2.488200933866389963e+00
2.438511917477950597e+00
2.438511917477950597e+00
2.369884823145237629e+00
2.369884823145237629e+00
2.311945554979094819e+00
2.311945554979094819e+00
2.256443861201819168e+00
2.256443861201819168e+00
2.284569719534897736e+00
2.284569719534897736e+00
2.272569353312784202e+00
2.272569353312784202e+00
2.272569353312784202e+00
2.264319101535081202e+00
2.264319101535081202e+00
2.243693472090823260e+00
2.243693472090823260e+00
2.219505233924375265e+00
2.219505233924375265e+00
2.263381572923978347e+00
2.263381572923978347e+00
2.356384411145359792e+00
2.356384411145359792e+00
2.401198278756065729e+00
2.401198278756065729e+00
2.493076082644123392e+00
2.493076082644123392e+00
2.521951963866084778e+00
2.521951963866084778e+00
2.521951963866084778e+00
2.434761803033539618e+00
2.434761803033539618e+00
2.380947660756248752e+00
2.380947660756248752e+00
2.212380016479995160e+00
2.212380016479995160e+00
2.168128666035950669e+00
2.168128666035950669e+00
2.210504959257789892e+00
2.210504959257789892e+00
2.259818964201788294e+00
2.259818964201788294e+00
2.357509445478682686e+00
2.357509445478682686e+00
2.320383312479018745e+00
2.320383312479018745e+00
2.320383312479018745e+00
2.292069948423719250e+00
2.292069948423719250e+00
2.320383312479018745e+00
2.320383312479018745e+00
2.356571916867580274e+00
2.356571916867580274e+00
2.366884731589709023e+00
2.366884731589709023e+00
2.405135898922696747e+00
2.405135898922696747e+00
2.414136173589282119e+00
2.414136173589282119e+00
2.401760795922727176e+00
2.401760795922727176e+00
2.429699148533585706e+00
2.429699148533585706e+00
2.344759056367687222e+00
2.344759056367687222e+00
2.344759056367687222e+00
2.340071413312173831e+00
2.340071413312173831e+00
2.272006836146122755e+00
2.272006836146122755e+00
2.204317270424512643e+00
2.204317270424512643e+00
2.238818323313089387e+00
2.238818323313089387e+00
2.255318826868495830e+00
2.255318826868495830e+00
2.267506698812830290e+00
2.267506698812830290e+00
2.326008484145634547e+00
2.326008484145634547e+00
2.346821619312112972e+00
2.346821619312112972e+00
2.346821619312112972e+00
2.375885006256294396e+00
2.375885006256294396e+00
2.434574297311319135e+00
2.434574297311319135e+00
2.418636310922574584e+00
2.418636310922574584e+00
2.442449537644581614e+00
2.442449537644581614e+00
2.457825006866664719e+00
2.457825006866664719e+00
2.325258461256752618e+00
2.325258461256752618e+00
2.246318552201910457e+00
2.246318552201910457e+00
2.199067110202337361e+00
2.199067110202337361e+00
2.199067110202337361e+00
2.187254249702444309e+00
2.187254249702444309e+00
2.251006195257423848e+00
2.251006195257423848e+00
2.265069124423963132e+00
2.265069124423963132e+00
2.291694936979278285e+00
2.291694936979278285e+00
2.314570635090182460e+00
2.314570635090182460e+00
2.323570909756767389e+00
2.323570909756767389e+00
2.374759971922971058e+00
2.374759971922971058e+00
2.395948118533890892e+00
2.395948118533890892e+00
2.395948118533890892e+00
2.367822260200811879e+00
2.367822260200811879e+00
2.429136631366924259e+00
2.429136631366924259e+00
2.407010956144902014e+00
2.407010956144902014e+00
2.319820795312356854e+00
2.319820795312356854e+00
2.273694387646107540e+00
2.273694387646107540e+00
2.210317453535568966e+00
2.210317453535568966e+00
2.229630542924283532e+00
2.229630542924283532e+00
2.269756767479476078e+00
2.269756767479476078e+00
2.269756767479476078e+00
2.268069215979491737e+00
2.268069215979491737e+00
2.310820520645771925e+00
2.310820520645771925e+00
2.377197546311838217e+00
2.377197546311838217e+00
2.402135807367168141e+00
2.402135807367168141e+00
2.457262489700002828e+00
2.457262489700002828e+00
2.427074068422498510e+00
2.427074068422498510e+00
2.376072511978514878e+00
2.376072511978514878e+00
2.408698507644886799e+00
2.408698507644886799e+00
2.408698507644886799e+00
2.326195989867855030e+00
2.326195989867855030e+00
2.281194616534928166e+00
2.281194616534928166e+00
2.255318826868495830e+00
2.255318826868495830e+00
2.215567613757744247e+00
2.215567613757744247e+00
2.216505142368846659e+00
2.216505142368846659e+00
2.241255897701956545e+00
2.241255897701956545e+00
2.245943540757469048e+00
2.245943540757469048e+00
2.303695303201391820e+00
2.303695303201391820e+00
2.303695303201391820e+00
2.320383312479018745e+00
2.320383312479018745e+00
2.345321573534348669e+00
2.345321573534348669e+00
2.423886471144749422e+00
2.423886471144749422e+00
2.400260750144962874e+00
2.400260750144962874e+00
2.392573015533921321e+00
2.392573015533921321e+00
2.407948484756004870e+00
2.407948484756004870e+00
2.322633381145664977e+00
2.322633381145664977e+00
2.251381206701864812e+00
2.251381206701864812e+00
2.241818414868617992e+00
2.241818414868617992e+00
2.228693014313181120e+00
2.228693014313181120e+00
2.253631275368511044e+00
2.253631275368511044e+00
2.253631275368511044e+00
2.286444776757103448e+00
2.286444776757103448e+00
2.324508438367870244e+00
2.324508438367870244e+00
2.376072511978514878e+00
2.376072511978514878e+00
2.405323404644917229e+00
2.405323404644917229e+00
2.440949491866817311e+00
2.440949491866817311e+00
2.437386883144627259e+00
2.437386883144627259e+00
2.398198187200537124e+00
2.398198187200537124e+00
2.389197912533951751e+00
2.389197912533951751e+00
2.389197912533951751e+00
2.359759514145329362e+00
2.359759514145329362e+00
2.267881710257271255e+00
2.267881710257271255e+00
2.256631366924039650e+00
2.256631366924039650e+00
2.225505417035432032e+00
2.225505417035432032e+00
2.203942258980071234e+00
2.203942258980071234e+00
2.227380474257637299e+00
2.227380474257637299e+00
2.235443220313119816e+00
2.235443220313119816e+00
2.281194616534928166e+00
2.281194616534928166e+00
2.281194616534928166e+00
2.329008575701162709e+00
2.329008575701162709e+00
2.335758781701101849e+00
2.335758781701101849e+00
2.384135258033997840e+00
2.384135258033997840e+00
2.415073702200384531e+00
2.415073702200384531e+00
2.397260658589434712e+00
2.397260658589434712e+00
2.422011413922543710e+00
2.422011413922543710e+00
2.339321390423291458e+00
2.339321390423291458e+00
2.274256904812768987e+00
2.274256904812768987e+00
2.258506424146244473e+00
2.258506424146244473e+00
2.258506424146244473e+00
2.205817316202276945e+00
2.205817316202276945e+00
2.205442304757835537e+00
2.205442304757835537e+00
2.235630726035340299e+00
2.235630726035340299e+00
2.254193792535172935e+00
2.254193792535172935e+00
2.303695303201391820e+00
2.303695303201391820e+00
2.347009125034333454e+00
2.347009125034333454e+00
2.384885280922879769e+00
2.384885280922879769e+00
2.428574114200262368e+00
2.428574114200262368e+00
2.428574114200262368e+00
2.374759971922971058e+00
2.374759971922971058e+00
2.363884640034180418e+00
2.363884640034180418e+00
2.416948759422589799e+00
2.416948759422589799e+00
2.351134250923184954e+00
2.351134250923184954e+00
2.338008850367748082e+00
2.338008850367748082e+00
2.296757591479232197e+00
2.296757591479232197e+00
2.233568163090914993e+00
2.233568163090914993e+00
2.239380840479750834e+00
2.239380840479750834e+00
2.262256538590655452e+00
2.262256538590655452e+00
2.262256538590655452e+00
2.295257545701467894e+00
2.295257545701467894e+00
2.337071321756645670e+00
2.337071321756645670e+00
2.354134342478713116e+00
2.354134342478713116e+00
2.380197637867366822e+00
2.380197637867366822e+00
2.411886104922635443e+00
2.411886104922635443e+00
2.371009857478560967e+00
2.371009857478560967e+00
2.390322946867275089e+00
2.390322946867275089e+00
2.395760612811670409e+00
2.395760612811670409e+00
2.395760612811670409e+00
2.309132969145787140e+00
2.309132969145787140e+00
2.272006836146122755e+00
2.272006836146122755e+00
2.220067751091036712e+00
2.220067751091036712e+00
2.192504409924619146e+00
2.192504409924619146e+00
2.231880611590930208e+00
2.231880611590930208e+00
2.246506057924130939e+00
2.246506057924130939e+00
2.282132145146031021e+00
2.282132145146031021e+00
2.328446058534500818e+00
2.328446058534500818e+00
2.338946378978850937e+00
2.338946378978850937e+00
2.338946378978850937e+00
2.388822901089510786e+00
2.388822901089510786e+00
2.403635853144932444e+00
2.403635853144932444e+00
2.369884823145237629e+00
2.369884823145237629e+00
2.400635761589403838e+00
2.400635761589403838e+00
2.370447340311899076e+00
2.370447340311899076e+00
2.299570177312540320e+00
2.299570177312540320e+00
2.275756950590533290e+00
2.275756950590533290e+00
2.228318002868740155e+00
2.228318002868740155e+00
2.228318002868740155e+00
2.200192144535660699e+00
2.200192144535660699e+00
2.238818323313089387e+00
2.238818323313089387e+00
2.262069032868434526e+00
2.262069032868434526e+00
2.308382946256904766e+00
2.308382946256904766e+00
2.341758964812158617e+00
2.341758964812158617e+00
2.347946653645436310e+00
2.347946653645436310e+00
2.406073427533799602e+00
2.406073427533799602e+00
2.410011047700430176e+00
2.410011047700430176e+00
2.410011047700430176e+00
2.389947935422834124e+00
2.389947935422834124e+00
2.419386333811456957e+00
2.419386333811456957e+00
2.337446333201086635e+00
2.275194433423871843e+00
2.275194433423871843e+00
2.249131138035218136e+00
2.249131138035218136e+00
2.249131138035218136e+00
2.203942258980071234e+00
2.203942258980071234e+00
2.208629902035584625e+00
2.208629902035584625e+00
2.232630634479812137e+00
2.232630634479812137e+00
2.256818872646260132e+00
2.256818872646260132e+00
2.316070680867946319e+00
2.316070680867946319e+00
2.365947202978606612e+00
2.365947202978606612e+00
2.393323038422803695e+00
2.393323038422803695e+00
2.422386425366985119e+00
2.422386425366985119e+00
2.422386425366985119e+00
2.395010589922788480e+00
2.395010589922788480e+00
2.387135349589526001e+00
2.387135349589526001e+00
2.392385509811700839e+00
2.392385509811700839e+00
2.288882351145970162e+00
2.288882351145970162e+00
2.247631092257453833e+00
2.247631092257453833e+00
2.217630176702169997e+00
2.217630176702169997e+00
2.178441480758079862e+00
2.178441480758079862e+00
2.203754753257850751e+00
2.203754753257850751e+00
2.203754753257850751e+00
2.235630726035340299e+00
2.235630726035340299e+00
2.287382305368205859e+00
2.287382305368205859e+00
2.343259010589922919e+00
2.343259010589922919e+00
2.364259651478621826e+00
2.364259651478621826e+00
2.395573107089449927e+00
2.395573107089449927e+00
2.414698690755943566e+00
2.414698690755943566e+00
2.379822626422925413e+00
2.379822626422925413e+00
2.403823358867152926e+00
2.403823358867152926e+00
2.403823358867152926e+00
2.378510086367381593e+00
2.378510086367381593e+00
2.287382305368205859e+00
2.287382305368205859e+00
2.256256355479598685e+00
2.256256355479598685e+00
2.212942533646656607e+00
2.212942533646656607e+00
2.201317178868984037e+00
2.201317178868984037e+00
2.244443494979705633e+00
2.244443494979705633e+00
2.260006469924008776e+00
2.260006469924008776e+00
2.304070314645832784e+00
2.304070314645832784e+00
2.351321756645405436e+00
2.351321756645405436e+00
2.351321756645405436e+00
2.355821893978697901e+00
2.355821893978697901e+00
2.401948301644947659e+00
2.401948301644947659e+00
2.403635853144932444e+00
2.403635853144932444e+00
2.364822168645283273e+00
2.364822168645283273e+00
2.400260750144962874e+00
2.400260750144962874e+00
2.336133793145542814e+00
2.336133793145542814e+00
2.261694021423993561e+00
2.261694021423993561e+00
2.239193334757530351e+00
2.239193334757530351e+00
2.206004821924497428e+00
2.206004821924497428e+00
2.226630451368755370e+00
2.226630451368755370e+00
2.226630451368755370e+00
2.262819055757316900e+00
2.262819055757316900e+00
2.262819055757316900e+00
2.262819055757316900e+00
2.306132877590258534e+00
2.306132877590258534e+00
2.341758964812158617e+00
2.341758964812158617e+00
2.367634754478591397e+00
2.367634754478591397e+00
2.415073702200384531e+00
2.415073702200384531e+00
2.381697683645130681e+00
2.381697683645130681e+00
2.360884548478652700e+00
2.360884548478652700e+00
2.360884548478652700e+00
2.389010406811731269e+00
2.389010406811731269e+00
2.301632740256966070e+00
2.301632740256966070e+00
2.256818872646260132e+00
2.256818872646260132e+00
2.235630726035340299e+00
2.235630726035340299e+00
2.200004638813440216e+00
2.200004638813440216e+00
2.224005371257667729e+00
2.224005371257667729e+00
2.249131138035218136e+00
2.249131138035218136e+00
2.275381939146092325e+00
2.275381939146092325e+00
2.275381939146092325e+00
2.330321115756706529e+00
2.330321115756706529e+00
2.352259285256507848e+00
2.352259285256507848e+00
2.380760155034028269e+00
2.380760155034028269e+00
2.420323862422559369e+00
2.420323862422559369e+00
2.392385509811700839e+00
2.392385509811700839e+00
2.394635578478347071e+00
2.394635578478347071e+00
2.381697683645130681e+00
2.381697683645130681e+00
2.295820062868129341e+00
2.295820062868129341e+00
2.295820062868129341e+00
2.279507065034943825e+00
2.279507065034943825e+00
2.234130680257575996e+00
2.234130680257575996e+00
2.199817133091219734e+00
2.199817133091219734e+00
2.220817773979919085e+00
2.220817773979919085e+00
2.236193243202001746e+00
2.236193243202001746e+00
2.282319650868251504e+00
2.282319650868251504e+00
2.341008941923276243e+00
2.341008941923276243e+00
2.350009216589862060e+00
2.350009216589862060e+00
2.387697866756187448e+00
2.387697866756187448e+00
2.387697866756187448e+00
2.398948210089419053e+00
2.398948210089419053e+00
2.367447248756370914e+00
2.367447248756370914e+00
2.402885830256050514e+00
2.402885830256050514e+00
2.365572191534165203e+00
2.365572191534165203e+00
2.293945005645924073e+00
2.293945005645924073e+00
2.283069673757133433e+00
2.283069673757133433e+00
2.235255714590899334e+00
2.235255714590899334e+00
2.218005188146610962e+00
2.218005188146610962e+00
2.248943632312997654e+00
2.248943632312997654e+00
2.261881527146214044e+00
2.261881527146214044e+00
2.307820429090243319e+00
2.307820429090243319e+00
2.307820429090243319e+00
2.341946470534379099e+00
2.341946470534379099e+00
2.352634296700948813e+00
2.352634296700948813e+00
2.397448164311655194e+00
2.397448164311655194e+00
2.386385326700643628e+00
2.386385326700643628e+00
2.354509353923154524e+00
2.354509353923154524e+00
2.394073061311685624e+00
2.394073061311685624e+00
2.320570818201239227e+00
2.320570818201239227e+00
2.257381389812921579e+00
2.257381389812921579e+00
2.257381389812921579e+00
2.236943266090884119e+00
2.236943266090884119e+00
2.189879329813531950e+00
2.189879329813531950e+00
2.192691915646840073e+00
2.192691915646840073e+00
2.227192968535416817e+00
2.227192968535416817e+00
2.248381115146336207e+00
2.248381115146336207e+00
2.298070131534776017e+00
2.298070131534776017e+00
2.334446241645558029e+00
2.334446241645558029e+00
2.358634479812006024e+00
2.358634479812006024e+00
2.358634479812006024e+00
2.417323770867030763e+00
2.417323770867030763e+00
2.396698141422773265e+00
2.396698141422773265e+00
2.390135441145054607e+00
2.390135441145054607e+00
2.407010956144902014e+00
2.407010956144902014e+00
2.315320657979064389e+00
2.315320657979064389e+00
2.278007019257179522e+00
2.278007019257179522e+00
2.245568529313028083e+00
2.245568529313028083e+00
2.204504776146733125e+00
2.204504776146733125e+00
2.204504776146733125e+00
2.219505233924375265e+00
2.219505233924375265e+00
2.216692648091067142e+00
2.216692648091067142e+00
2.255693838312936794e+00
2.255693838312936794e+00
2.308570451979125249e+00
2.308570451979125249e+00
2.325070955534531691e+00
2.325070955534531691e+00
2.363509628589739453e+00
2.363509628589739453e+00
2.399698232978301426e+00
2.399698232978301426e+00
2.381510177922910199e+00
2.381510177922910199e+00
2.381510177922910199e+00
2.424448988311410869e+00
2.424448988311410869e+00
2.398198187200537124e+00
2.398198187200537124e+00
2.302007751701407035e+00
2.302007751701407035e+00
2.277256996368297592e+00
2.277256996368297592e+00
2.222692831202123909e+00
2.222692831202123909e+00
2.198879604480116878e+00
2.198879604480116878e+00
2.237505783257545566e+00
2.237505783257545566e+00
2.256631366924039650e+00
2.256631366924039650e+00
2.293757499923703591e+00
2.293757499923703591e+00
2.293757499923703591e+00
2.336508804589983779e+00
2.336508804589983779e+00
2.347759147923215384e+00
2.347759147923215384e+00
2.391635486922818910e+00
2.391635486922818910e+00
2.389572923978392716e+00
2.389572923978392716e+00
2.349634205145421095e+00
2.349634205145421095e+00
2.385260292367321178e+00
2.385260292367321178e+00
2.334633747367778511e+00
2.334633747367778511e+00
2.271256813257240381e+00
2.271256813257240381e+00
2.271256813257240381e+00
2.249131138035218136e+00
2.249131138035218136e+00
2.201504684591204519e+00
2.201504684591204519e+00
2.191191869869075770e+00
2.191191869869075770e+00
2.215005096591082356e+00
2.215005096591082356e+00
2.251381206701864812e+00
2.251381206701864812e+00
2.311758049256874337e+00
2.311758049256874337e+00
2.353946836756492633e+00
2.353946836756492633e+00
2.374572466200750576e+00
2.374572466200750576e+00
2.374572466200750576e+00
2.416761253700369316e+00
2.416761253700369316e+00
2.397448164311655194e+00
2.397448164311655194e+00
2.381322672200689716e+00
2.381322672200689716e+00
2.402698324533829588e+00
2.402698324533829588e+00
2.310820520645771925e+00
2.310820520645771925e+00
2.260193975646229259e+00
2.260193975646229259e+00
2.230568071535386387e+00
2.230568071535386387e+00
2.184816675313578038e+00
2.184816675313578038e+00
2.184816675313578038e+00
2.205442304757835537e+00
2.205442304757835537e+00
2.238255806146427940e+00
2.238255806146427940e+00
2.263381572923978347e+00
2.263381572923978347e+00
2.318508255256813033e+00
2.318508255256813033e+00
2.343821527756584366e+00
2.343821527756584366e+00
2.370447340311899076e+00
2.370447340311899076e+00
2.403448347422711961e+00
2.403448347422711961e+00
2.368384777367473326e+00
2.368384777367473326e+00
2.368384777367473326e+00
2.383197729422894984e+00
2.383197729422894984e+00
2.377385052034058699e+00
2.377385052034058699e+00
2.297320108645893644e+00
2.297320108645893644e+00
2.275756950590533290e+00
2.275756950590533290e+00
2.226630451368755370e+00
2.226630451368755370e+00
2.205067293313394572e+00
2.205067293313394572e+00
2.239380840479750834e+00
2.239380840479750834e+00
2.255506332590716312e+00
2.255506332590716312e+00
2.292069948423719250e+00
2.292069948423719250e+00
2.343071504867702437e+00
2.343071504867702437e+00
2.350384228034303025e+00
2.350384228034303025e+00
2.350384228034303025e+00
2.392385509811700839e+00
2.392385509811700839e+00
2.405323404644917229e+00
2.405323404644917229e+00
2.359384502700888397e+00
2.359384502700888397e+00
2.386010315256203107e+00
2.386010315256203107e+00
2.336883816034425188e+00
2.336883816034425188e+00
2.258131412701803509e+00
2.258131412701803509e+00
2.251381206701864812e+00
2.251381206701864812e+00
2.204129764702292160e+00
2.204129764702292160e+00
2.204129764702292160e+00
2.208629902035584625e+00
2.208629902035584625e+00
2.249131138035218136e+00
2.249131138035218136e+00
2.257568895535142062e+00
2.257568895535142062e+00
2.299195165868098911e+00
2.299195165868098911e+00
2.332946195867793726e+00
2.332946195867793726e+00
2.346446607867672007e+00
2.346446607867672007e+00
2.401948301644947659e+00
2.401948301644947659e+00
2.392573015533921321e+00
2.392573015533921321e+00
2.392573015533921321e+00
2.371947386089663379e+00
2.371947386089663379e+00
2.412448622089296890e+00
2.412448622089296890e+00
2.329383587145603673e+00
2.329383587145603673e+00
2.276694479201635701e+00
2.276694479201635701e+00
2.267694204535050773e+00
2.267694204535050773e+00
2.215380108035523765e+00
