2.404573381756035300e+00
2.404573381756035300e+00
2.379635120700704931e+00
2.379635120700704931e+00
2.379635120700704931e+00
2.369509811700796664e+00
2.369509811700796664e+00
2.369509811700796664e+00
2.393885555589465142e+00
2.393885555589465142e+00
2.393885555589465142e+00
2.393885555589465142e+00
2.299007660145878429e+00
2.299007660145878429e+00
2.299007660145878429e+00
2.257193884090700653e+00
2.257193884090700653e+00
2.257193884090700653e+00
2.229443037202063049e+00
2.229443037202063049e+00
2.229443037202063049e+00
2.229443037202063049e+00
2.186691732535783306e+00
2.186691732535783306e+00
2.186691732535783306e+00
2.200942167424543072e+00
2.200942167424543072e+00
2.200942167424543072e+00
2.222692831202123909e+00
2.222692831202123909e+00
2.222692831202123909e+00
2.222692831202123909e+00
2.262631550035096417e+00
2.262631550035096417e+00
2.262631550035096417e+00
2.325070955534531691e+00
2.325070955534531691e+00
2.325070955534531691e+00
2.325070955534531691e+00
2.346446607867672007e+00
2.346446607867672007e+00
2.346446607867672007e+00
2.388635395367290304e+00
2.388635395367290304e+00
2.388635395367290304e+00
2.414698690755943566e+00
2.414698690755943566e+00
2.414698690755943566e+00
2.414698690755943566e+00
2.378697592089602519e+00
2.378697592089602519e+00
2.378697592089602519e+00
2.408886013367107282e+00
2.408886013367107282e+00
2.408886013367107282e+00
2.366509720145268059e+00
2.366509720145268059e+00
2.366509720145268059e+00
2.366509720145268059e+00
2.278569536423841413e+00
2.278569536423841413e+00
2.278569536423841413e+00
2.257943906979583026e+00
2.257943906979583026e+00
2.257943906979583026e+00
2.207317361980041248e+00
2.207317361980041248e+00
2.207317361980041248e+00
2.207317361980041248e+00
2.181066560869167059e+00
2.181066560869167059e+00
2.181066560869167059e+00
2.209379924924466998e+00
2.209379924924466998e+00
2.209379924924466998e+00
2.219880245368816230e+00
2.219880245368816230e+00
2.219880245368816230e+00
2.219880245368816230e+00
2.265256630146183614e+00
2.265256630146183614e+00
2.265256630146183614e+00
2.317008209479048730e+00
2.317008209479048730e+00
2.317008209479048730e+00
2.333883724478896582e+00
2.333883724478896582e+00
2.333883724478896582e+00
2.390885464033936536e+00
2.390885464033936536e+00
2.390885464033936536e+00
2.390510452589495571e+00
2.390510452589495571e+00
2.390510452589495571e+00
2.348696676534318240e+00
2.348696676534318240e+00
2.348696676534318240e+00
2.382822717978454019e+00
2.382822717978454019e+00
2.382822717978454019e+00
2.382822717978454019e+00
2.332571184423352761e+00
2.332571184423352761e+00
2.332571184423352761e+00
2.269381756035035114e+00
2.269381756035035114e+00
2.269381756035035114e+00
2.260568987090670667e+00
2.260568987090670667e+00
2.260568987090670667e+00
2.260568987090670667e+00
2.222130314035462462e+00
2.222130314035462462e+00
2.222130314035462462e+00
2.207317361980041248e+00
2.207317361980041248e+00
2.207317361980041248e+00
2.237880794701986531e+00
2.237880794701986531e+00
2.237880794701986531e+00
2.258881435590685438e+00
2.258881435590685438e+00
2.258881435590685438e+00
2.258881435590685438e+00
2.308757957701345731e+00
2.308757957701345731e+00
2.308757957701345731e+00
2.353571825312051669e+00
2.353571825312051669e+00
2.353571825312051669e+00
2.370447340311899076e+00
2.370447340311899076e+00
2.370447340311899076e+00
2.413011139255958781e+00
2.413011139255958781e+00
2.413011139255958781e+00
2.413011139255958781e+00
2.392385509811700839e+00
2.392385509811700839e+00
2.392385509811700839e+00
2.367822260200811879e+00
2.367822260200811879e+00
2.367822260200811879e+00
2.393323038422803695e+00
2.393323038422803695e+00
2.393323038422803695e+00
2.312695577867977192e+00
2.312695577867977192e+00
2.312695577867977192e+00
2.312695577867977192e+00
2.238068300424207457e+00
2.238068300424207457e+00
2.238068300424207457e+00
2.205442304757835537e+00
2.205442304757835537e+00
2.205442304757835537e+00
2.191379375591296252e+00
2.191379375591296252e+00
2.191379375591296252e+00
2.191379375591296252e+00
2.199067110202337361e+00
2.199067110202337361e+00
2.199067110202337361e+00
2.214255073702200427e+00
2.214255073702200427e+00
2.214255073702200427e+00
2.251943723868526259e+00
2.251943723868526259e+00
2.251943723868526259e+00
2.251943723868526259e+00
2.319445783867915889e+00
2.319445783867915889e+00
2.319445783867915889e+00
2.343446516312143402e+00
2.343446516312143402e+00
2.343446516312143402e+00
2.376260017700735361e+00
2.376260017700735361e+00
2.376260017700735361e+00
2.376260017700735361e+00
2.414136173589282119e+00
2.414136173589282119e+00
2.414136173589282119e+00
2.380197637867366822e+00
2.380197637867366822e+00
2.380197637867366822e+00
2.382260200811792572e+00
2.382260200811792572e+00
2.382260200811792572e+00
2.382260200811792572e+00
2.383947752311777357e+00
2.383947752311777357e+00
2.383947752311777357e+00
2.284569719534897736e+00
2.284569719534897736e+00
2.284569719534897736e+00
2.249693655201880027e+00
2.249693655201880027e+00
2.249693655201880027e+00
2.249693655201880027e+00
2.215755119479964730e+00
2.215755119479964730e+00
2.215755119479964730e+00
2.181629078035828950e+00
2.181629078035828950e+00
2.181629078035828950e+00
2.214817590868861874e+00
2.214817590868861874e+00
2.214817590868861874e+00
2.214817590868861874e+00
2.231693105868709726e+00
2.231693105868709726e+00
2.231693105868709726e+00
2.268069215979491737e+00
2.268069215979491737e+00
2.268069215979491737e+00
2.330133610034486047e+00
2.330133610034486047e+00
2.330133610034486047e+00
2.330133610034486047e+00
2.349446699423200169e+00
2.349446699423200169e+00
2.349446699423200169e+00
2.397260658589434712e+00
2.397260658589434712e+00
2.397260658589434712e+00
2.406635944700461049e+00
2.406635944700461049e+00
2.406635944700461049e+00
2.406635944700461049e+00
2.363134617145298488e+00
2.363134617145298488e+00
2.363134617145298488e+00
2.393885555589465142e+00
2.393885555589465142e+00
2.393885555589465142e+00
2.365572191534165203e+00
2.365572191534165203e+00
2.365572191534165203e+00
2.283069673757133433e+00
2.283069673757133433e+00
2.283069673757133433e+00
2.283069673757133433e+00
2.266569170201727434e+00
2.266569170201727434e+00
2.266569170201727434e+00
2.215567613757744247e+00
2.215567613757744247e+00
2.215567613757744247e+00
2.199067110202337361e+00
2.199067110202337361e+00
2.199067110202337361e+00
2.199067110202337361e+00
2.234318185979796478e+00
2.234318185979796478e+00
2.234318185979796478e+00
2.242193426313058957e+00
2.242193426313058957e+00
2.242193426313058957e+00
2.298257637256996500e+00
2.298257637256996500e+00
2.298257637256996500e+00
2.298257637256996500e+00
2.351696768089846401e+00
2.351696768089846401e+00
2.351696768089846401e+00
2.367072237311929506e+00
2.367072237311929506e+00
2.367072237311929506e+00
2.422573931089205601e+00
2.422573931089205601e+00
2.422573931089205601e+00
2.422573931089205601e+00
2.407198461867122496e+00
2.407198461867122496e+00
2.407198461867122496e+00
2.367072237311929506e+00
2.367072237311929506e+00
2.367072237311929506e+00
2.398385692922757606e+00
2.398385692922757606e+00
2.398385692922757606e+00
2.398385692922757606e+00
2.322070863979003530e+00
2.322070863979003530e+00
2.322070863979003530e+00
2.246881069368571904e+00
2.246881069368571904e+00
2.246881069368571904e+00
2.237880794701986531e+00
2.237880794701986531e+00
2.237880794701986531e+00
2.237880794701986531e+00
2.184629169591357556e+00
2.184629169591357556e+00
2.184629169591357556e+00
2.184254158146916147e+00
2.184254158146916147e+00
2.184254158146916147e+00
2.215755119479964730e+00
2.215755119479964730e+00
2.215755119479964730e+00
2.215755119479964730e+00
2.244443494979705633e+00
2.244443494979705633e+00
2.244443494979705633e+00
2.296945097201452679e+00
2.296945097201452679e+00
2.296945097201452679e+00
2.332571184423352761e+00
2.332571184423352761e+00
2.332571184423352761e+00
2.332571184423352761e+00
2.344946562089907705e+00
2.344946562089907705e+00
2.344946562089907705e+00
2.393135532700583212e+00
2.393135532700583212e+00
2.393135532700583212e+00
2.373447431867427682e+00
2.373447431867427682e+00
2.373447431867427682e+00
2.373447431867427682e+00
2.362009582811975594e+00
2.362009582811975594e+00
2.362009582811975594e+00
2.393135532700583212e+00
2.393135532700583212e+00
2.393135532700583212e+00
2.393135532700583212e+00
2.296570085757011714e+00
2.296570085757011714e+00
2.296570085757011714e+00
2.247068575090792386e+00
2.247068575090792386e+00
2.247068575090792386e+00
2.233380657368694511e+00
2.233380657368694511e+00
2.233380657368694511e+00
2.233380657368694511e+00
2.186879238258003344e+00
2.186879238258003344e+00
2.186879238258003344e+00
2.205629810480056463e+00
2.205629810480056463e+00
2.205629810480056463e+00
2.224942899868770141e+00
2.224942899868770141e+00
2.224942899868770141e+00
2.224942899868770141e+00
2.250631183812982439e+00
2.250631183812982439e+00
2.250631183812982439e+00
2.316820703756828248e+00
2.316820703756828248e+00
2.316820703756828248e+00
2.343446516312143402e+00
2.343446516312143402e+00
2.343446516312143402e+00
2.343446516312143402e+00
2.389572923978392716e+00
2.389572923978392716e+00
2.389572923978392716e+00
2.428949125644703777e+00
2.428949125644703777e+00
2.428949125644703777e+00
2.395385601367229444e+00
2.395385601367229444e+00
2.395385601367229444e+00
2.395385601367229444e+00
2.398010681478316641e+00
2.398010681478316641e+00
2.398010681478316641e+00
2.380197637867366822e+00
2.380197637867366822e+00
2.380197637867366822e+00
2.284944730979339145e+00
2.284944730979339145e+00
2.284944730979339145e+00
2.284944730979339145e+00
2.266756675923947917e+00
2.266756675923947917e+00
2.266756675923947917e+00
2.212192510757774677e+00
2.212192510757774677e+00
2.212192510757774677e+00
2.179191503646961792e+00
2.179191503646961792e+00
2.179191503646961792e+00
2.179191503646961792e+00
2.206379833368938392e+00
2.206379833368938392e+00
2.206379833368938392e+00
2.219505233924375265e+00
2.219505233924375265e+00
2.219505233924375265e+00
2.264881618701742649e+00
2.264881618701742649e+00
2.264881618701742649e+00
2.264881618701742649e+00
2.321320841090121156e+00
2.321320841090121156e+00
2.321320841090121156e+00
2.329758598590044638e+00
2.329758598590044638e+00
2.329758598590044638e+00
2.379260109256263966e+00
2.379260109256263966e+00
2.379260109256263966e+00
2.379260109256263966e+00
2.389760429700613198e+00
2.389760429700613198e+00
2.389760429700613198e+00
2.350009216589862060e+00
2.350009216589862060e+00
2.350009216589862060e+00
2.388822901089510786e+00
2.388822901089510786e+00
2.388822901089510786e+00
2.388822901089510786e+00
2.353759331034272151e+00
2.353759331034272151e+00
2.353759331034272151e+00
2.280257087923826198e+00
2.280257087923826198e+00
2.280257087923826198e+00
2.261881527146214044e+00
2.261881527146214044e+00
2.261881527146214044e+00
2.261881527146214044e+00
2.206192327646717910e+00
2.206192327646717910e+00
2.206192327646717910e+00
2.188004272591326682e+00
2.188004272591326682e+00
2.188004272591326682e+00
2.217255165257729033e+00
2.217255165257729033e+00
2.217255165257729033e+00
2.217255165257729033e+00
2.239193334757530351e+00
2.239193334757530351e+00
2.239193334757530351e+00
2.299757683034760802e+00
2.299757683034760802e+00
2.299757683034760802e+00
2.350946745200964472e+00
2.350946745200964472e+00
2.350946745200964472e+00
2.350946745200964472e+00
2.362572099978637485e+00
2.362572099978637485e+00
2.362572099978637485e+00
2.407198461867122496e+00
2.407198461867122496e+00
2.407198461867122496e+00
2.398573198644978088e+00
2.398573198644978088e+00
2.398573198644978088e+00
2.398573198644978088e+00
2.360322031311990809e+00
2.360322031311990809e+00
2.360322031311990809e+00
2.392385509811700839e+00
2.392385509811700839e+00
2.392385509811700839e+00
2.314195623645741495e+00
2.314195623645741495e+00
2.314195623645741495e+00
2.314195623645741495e+00
2.247068575090792386e+00
2.247068575090792386e+00
2.247068575090792386e+00
2.227380474257637299e+00
2.227380474257637299e+00
2.227380474257637299e+00
2.180129032258064647e+00
2.180129032258064647e+00
2.180129032258064647e+00
2.180129032258064647e+00
2.201504684591204519e+00
2.201504684591204519e+00
2.201504684591204519e+00
2.245568529313028083e+00
2.245568529313028083e+00
2.245568529313028083e+00
2.268444227423932702e+00
2.268444227423932702e+00
2.268444227423932702e+00
2.268444227423932702e+00
2.325445966978973100e+00
2.325445966978973100e+00
2.325445966978973100e+00
2.349259193700979687e+00
2.349259193700979687e+00
2.349259193700979687e+00
2.365384685811944721e+00
2.365384685811944721e+00
2.365384685811944721e+00
2.365384685811944721e+00
2.402510818811609106e+00
2.402510818811609106e+00
2.402510818811609106e+00
2.374009949034089573e+00
2.374009949034089573e+00
2.374009949034089573e+00
2.364822168645283273e+00
2.364822168645283273e+00
2.364822168645283273e+00
2.364822168645283273e+00
2.384885280922879769e+00
2.384885280922879769e+00
2.384885280922879769e+00
2.284944730979339145e+00
2.284944730979339145e+00
2.284944730979339145e+00
2.242380932035279439e+00
2.242380932035279439e+00
2.242380932035279439e+00
2.218005188146610962e+00
2.218005188146610962e+00
2.218005188146610962e+00
2.218005188146610962e+00
2.177878963591417971e+00
2.177878963591417971e+00
2.177878963591417971e+00
2.207879879146702695e+00
2.207879879146702695e+00
2.207879879146702695e+00
2.207879879146702695e+00
2.229068025757622085e+00
2.229068025757622085e+00
2.229068025757622085e+00
2.265256630146183614e+00
2.265256630146183614e+00
2.265256630146183614e+00
2.333133701590014208e+00
2.333133701590014208e+00
2.333133701590014208e+00
2.333133701590014208e+00
2.352634296700948813e+00
2.352634296700948813e+00
2.352634296700948813e+00
2.390322946867275089e+00
2.390322946867275089e+00
2.390322946867275089e+00
2.414136173589282119e+00
2.414136173589282119e+00
2.414136173589282119e+00
2.414136173589282119e+00
2.370634846034120002e+00
2.370634846034120002e+00
2.370634846034120002e+00
2.387697866756187448e+00
2.387697866756187448e+00
2.387697866756187448e+00
2.369697317423017147e+00
2.369697317423017147e+00
2.369697317423017147e+00
2.369697317423017147e+00
2.281757133701590057e+00
2.281757133701590057e+00
2.281757133701590057e+00
2.256631366924039650e+00
2.256631366924039650e+00
2.256631366924039650e+00
2.211442487868892304e+00
2.211442487868892304e+00
2.211442487868892304e+00
2.211442487868892304e+00
2.189691824091311467e+00
2.189691824091311467e+00
2.189691824091311467e+00
2.221942808313242423e+00
2.221942808313242423e+00
2.221942808313242423e+00
2.229818048646504014e+00
2.229818048646504014e+00
2.229818048646504014e+00
2.229818048646504014e+00
2.271819330423901828e+00
2.271819330423901828e+00
2.271819330423901828e+00
2.327883541367839371e+00
2.327883541367839371e+00
2.327883541367839371e+00
2.351509262367625919e+00
2.351509262367625919e+00
2.351509262367625919e+00
2.351509262367625919e+00
2.402698324533829588e+00
2.402698324533829588e+00
2.402698324533829588e+00
2.402323313089388623e+00
2.402323313089388623e+00
2.402323313089388623e+00
2.364447157200842309e+00
2.364447157200842309e+00
2.364447157200842309e+00
2.364447157200842309e+00
2.396510635700552783e+00
2.396510635700552783e+00
2.396510635700552783e+00
2.326571001312295994e+00
2.326571001312295994e+00
2.326571001312295994e+00
2.259443952757347329e+00
2.259443952757347329e+00
2.259443952757347329e+00
2.259443952757347329e+00
2.242755943479720404e+00
2.242755943479720404e+00
2.242755943479720404e+00
2.190441846980193397e+00
2.190441846980193397e+00
2.190441846980193397e+00
2.190441846980193397e+00
2.192129398480178182e+00
2.192129398480178182e+00
2.192129398480178182e+00
2.222317819757682944e+00
2.222317819757682944e+00
2.222317819757682944e+00
2.233568163090914993e+00
2.233568163090914993e+00
2.233568163090914993e+00
2.233568163090914993e+00
2.300882717368083696e+00
2.300882717368083696e+00
2.300882717368083696e+00
2.344384044923245813e+00
2.344384044923245813e+00
2.344384044923245813e+00
2.366884731589709023e+00
2.366884731589709023e+00
2.366884731589709023e+00
2.366884731589709023e+00
2.415636219367045978e+00
2.415636219367045978e+00
2.415636219367045978e+00
2.394635578478347071e+00
2.394635578478347071e+00
2.394635578478347071e+00
2.368384777367473326e+00
2.368384777367473326e+00
2.368384777367473326e+00
2.368384777367473326e+00
2.396135624256111374e+00
2.396135624256111374e+00
2.396135624256111374e+00
2.314008117923521013e+00
2.314008117923521013e+00
2.314008117923521013e+00
2.263569078646198829e+00
2.263569078646198829e+00
2.263569078646198829e+00
2.263569078646198829e+00
2.231318094424268317e+00
2.231318094424268317e+00
2.231318094424268317e+00
2.183879146702475182e+00
2.183879146702475182e+00
2.183879146702475182e+00
2.197942075869014911e+00
2.197942075869014911e+00
2.197942075869014911e+00
2.197942075869014911e+00
2.214630085146641392e+00
2.214630085146641392e+00
2.214630085146641392e+00
2.241068391979735619e+00
2.241068391979735619e+00
2.241068391979735619e+00
2.300507705923642732e+00
2.300507705923642732e+00
2.300507705923642732e+00
2.300507705923642732e+00
2.336883816034425188e+00
2.336883816034425188e+00
2.336883816034425188e+00
2.376447523422955843e+00
2.376447523422955843e+00
2.376447523422955843e+00
2.410761070589312105e+00
2.410761070589312105e+00
2.410761070589312105e+00
2.371759880367442896e+00
2.371759880367442896e+00
2.371759880367442896e+00
2.371759880367442896e+00
2.365384685811944721e+00
2.365384685811944721e+00
2.365384685811944721e+00
2.371384868923001932e+00
2.371384868923001932e+00
2.371384868923001932e+00
2.292257454145939732e+00
2.292257454145939732e+00
2.292257454145939732e+00
2.292257454145939732e+00
2.268256721701712220e+00
2.268256721701712220e+00
2.268256721701712220e+00
2.234318185979796478e+00
2.234318185979796478e+00
2.234318185979796478e+00
2.196067018646809643e+00
2.196067018646809643e+00
2.196067018646809643e+00
2.196067018646809643e+00
2.215005096591082356e+00
2.215005096591082356e+00
2.215005096591082356e+00
2.225505417035432032e+00
2.225505417035432032e+00
2.225505417035432032e+00
2.225505417035432032e+00
2.269944273201696561e+00
2.269944273201696561e+00
2.269944273201696561e+00
2.330883632923367976e+00
2.330883632923367976e+00
2.330883632923367976e+00
2.345884090701010116e+00
2.345884090701010116e+00
2.345884090701010116e+00
2.345884090701010116e+00
2.391635486922818910e+00
2.391635486922818910e+00
2.391635486922818910e+00
2.408323496200445835e+00
2.408323496200445835e+00
2.408323496200445835e+00
2.369134800256355700e+00
2.369134800256355700e+00
2.369134800256355700e+00
2.369134800256355700e+00
2.396135624256111374e+00
2.396135624256111374e+00
2.396135624256111374e+00
2.356384411145359792e+00
2.356384411145359792e+00
2.356384411145359792e+00
2.262256538590655452e+00
2.262256538590655452e+00
2.262256538590655452e+00
2.262256538590655452e+00
2.246131046479689974e+00
2.246131046479689974e+00
2.246131046479689974e+00
2.204504776146733125e+00
2.204504776146733125e+00
2.204504776146733125e+00
2.190441846980193397e+00
2.190441846980193397e+00
2.190441846980193397e+00
2.190441846980193397e+00
2.219692739646595747e+00
2.219692739646595747e+00
2.219692739646595747e+00
2.230568071535386387e+00
2.230568071535386387e+00
2.230568071535386387e+00
2.278382030701620931e+00
2.278382030701620931e+00
2.278382030701620931e+00
2.278382030701620931e+00
2.325258461256752618e+00
2.325258461256752618e+00
2.325258461256752618e+00
2.355634388256477418e+00
2.355634388256477418e+00
2.355634388256477418e+00
2.415261207922605013e+00
2.415261207922605013e+00
2.415261207922605013e+00
2.415261207922605013e+00
2.404198370311593891e+00
2.404198370311593891e+00
2.404198370311593891e+00
2.371009857478560967e+00
2.371009857478560967e+00
2.371009857478560967e+00
2.409823541978209693e+00
2.409823541978209693e+00
2.409823541978209693e+00
2.329383587145603673e+00
2.329383587145603673e+00
2.329383587145603673e+00
2.329383587145603673e+00
2.254756309701834383e+00
2.254756309701834383e+00
2.254756309701834383e+00
2.233380657368694511e+00
2.233380657368694511e+00
2.233380657368694511e+00
2.174316354869228363e+00
2.174316354869228363e+00
2.174316354869228363e+00
2.192316904202398664e+00
2.192316904202398664e+00
2.192316904202398664e+00
2.192316904202398664e+00
2.217442670979949515e+00
2.217442670979949515e+00
2.217442670979949515e+00
2.241630909146397510e+00
2.241630909146397510e+00
2.241630909146397510e+00
2.302570268868068482e+00
2.302570268868068482e+00
2.302570268868068482e+00
2.302570268868068482e+00
2.351696768089846401e+00
2.351696768089846401e+00
2.351696768089846401e+00
2.369134800256355700e+00
2.369134800256355700e+00
2.369134800256355700e+00
2.412261116367076408e+00
2.412261116367076408e+00
2.412261116367076408e+00
2.412261116367076408e+00
2.386197820978423145e+00
2.386197820978423145e+00
2.386197820978423145e+00
2.361072054200873183e+00
2.361072054200873183e+00
2.361072054200873183e+00
2.376635029145176325e+00
2.376635029145176325e+00
2.376635029145176325e+00
2.376635029145176325e+00
2.291132419812616394e+00
2.291132419812616394e+00
2.291132419812616394e+00
2.260568987090670667e+00
2.260568987090670667e+00
2.260568987090670667e+00
2.233568163090914993e+00
2.233568163090914993e+00
2.233568163090914993e+00
2.233568163090914993e+00
2.194754478591265823e+00
2.194754478591265823e+00
2.194754478591265823e+00
2.223255348368785356e+00
2.223255348368785356e+00
2.223255348368785356e+00
2.245943540757469048e+00
2.245943540757469048e+00
2.245943540757469048e+00
2.245943540757469048e+00
2.275194433423871843e+00
2.275194433423871843e+00
2.275194433423871843e+00
2.324883449812311209e+00
2.324883449812311209e+00
2.324883449812311209e+00
2.346821619312112972e+00
2.346821619312112972e+00
2.346821619312112972e+00
2.346821619312112972e+00
2.393885555589465142e+00
2.393885555589465142e+00
2.393885555589465142e+00
2.413198644978179264e+00
2.413198644978179264e+00
2.413198644978179264e+00
2.362384594256416559e+00
2.362384594256416559e+00
2.362384594256416559e+00
2.362384594256416559e+00
2.375134983367412023e+00
2.375134983367412023e+00
2.375134983367412023e+00
2.364447157200842309e+00
2.364447157200842309e+00
2.364447157200842309e+00
2.364447157200842309e+00
2.275194433423871843e+00
2.275194433423871843e+00
2.275194433423871843e+00
2.250818689535202921e+00
2.250818689535202921e+00
2.250818689535202921e+00
2.205817316202276945e+00
2.205817316202276945e+00
2.205817316202276945e+00
2.205817316202276945e+00
2.188941801202429094e+00
2.188941801202429094e+00
2.188941801202429094e+00
2.218192693868831444e+00
2.218192693868831444e+00
2.218192693868831444e+00
2.233193151646474028e+00
2.233193151646474028e+00
2.233193151646474028e+00
2.233193151646474028e+00
2.274256904812768987e+00
2.274256904812768987e+00
2.274256904812768987e+00
2.333883724478896582e+00
2.333883724478896582e+00
2.333883724478896582e+00
2.350759239478743989e+00
2.350759239478743989e+00
2.350759239478743989e+00
2.350759239478743989e+00
2.399510727256080500e+00
2.399510727256080500e+00
2.399510727256080500e+00
2.402698324533829588e+00
2.402698324533829588e+00
2.402698324533829588e+00
2.359009491256446989e+00
2.359009491256446989e+00
2.359009491256446989e+00
2.359009491256446989e+00
2.394260567033906106e+00
2.394260567033906106e+00
2.394260567033906106e+00
2.340258919034394314e+00
2.340258919034394314e+00
2.340258919034394314e+00
2.261319009979552597e+00
2.261319009979552597e+00
2.261319009979552597e+00
2.261319009979552597e+00
2.236568254646443155e+00
2.236568254646443155e+00
2.236568254646443155e+00
2.188566789757988129e+00
2.188566789757988129e+00
2.188566789757988129e+00
2.181441572313608468e+00
2.181441572313608468e+00
2.181441572313608468e+00
2.181441572313608468e+00
2.213317545091097571e+00
2.213317545091097571e+00
2.213317545091097571e+00
2.232818140202032620e+00
2.232818140202032620e+00
2.232818140202032620e+00
2.288694845423749680e+00
2.288694845423749680e+00
2.288694845423749680e+00
2.288694845423749680e+00
2.338758873256630455e+00
2.338758873256630455e+00
2.338758873256630455e+00
2.358071962645344577e+00
2.358071962645344577e+00
2.358071962645344577e+00
2.402885830256050514e+00
2.402885830256050514e+00
2.402885830256050514e+00
2.387697866756187448e+00
2.387697866756187448e+00
2.387697866756187448e+00
2.387697866756187448e+00
2.362384594256416559e+00
2.362384594256416559e+00
2.362384594256416559e+00
2.397823175756096159e+00
2.397823175756096159e+00
2.397823175756096159e+00
2.319820795312356854e+00
2.319820795312356854e+00
2.319820795312356854e+00
2.319820795312356854e+00
2.264694112979522167e+00
2.264694112979522167e+00
2.264694112979522167e+00
2.239568346201971760e+00
2.239568346201971760e+00
2.239568346201971760e+00
2.193629444257942485e+00
2.193629444257942485e+00
2.193629444257942485e+00
2.193629444257942485e+00
2.197379558702353020e+00
2.197379558702353020e+00
2.197379558702353020e+00
2.213880062257759462e+00
2.213880062257759462e+00
2.213880062257759462e+00
2.237318277535325084e+00
2.237318277535325084e+00
2.237318277535325084e+00
2.237318277535325084e+00
2.299757683034760802e+00
2.299757683034760802e+00
2.299757683034760802e+00
2.338946378978850937e+00
2.338946378978850937e+00
2.338946378978850937e+00
2.377010040589617734e+00
2.377010040589617734e+00
2.377010040589617734e+00
2.377010040589617734e+00
2.421073885311441742e+00
2.421073885311441742e+00
2.421073885311441742e+00
2.382635212256233537e+00
2.382635212256233537e+00
2.382635212256233537e+00
2.386010315256203107e+00
2.386010315256203107e+00
2.386010315256203107e+00
2.386010315256203107e+00
2.394635578478347071e+00
2.394635578478347071e+00
2.394635578478347071e+00
2.293569994201483109e+00
2.293569994201483109e+00
2.293569994201483109e+00
2.263381572923978347e+00
2.263381572923978347e+00
2.263381572923978347e+00
2.263381572923978347e+00
2.224005371257667729e+00
2.224005371257667729e+00
2.224005371257667729e+00
2.183504135258034218e+00
2.183504135258034218e+00
2.183504135258034218e+00
2.208254890591143660e+00
2.208254890591143660e+00
2.208254890591143660e+00
2.208254890591143660e+00
2.222130314035462462e+00
2.222130314035462462e+00
2.222130314035462462e+00
2.269944273201696561e+00
2.269944273201696561e+00
2.269944273201696561e+00
2.321133335367900674e+00
2.321133335367900674e+00
2.321133335367900674e+00
2.321133335367900674e+00
2.335196264534440402e+00
2.335196264534440402e+00
2.335196264534440402e+00
2.376822534867396808e+00
2.376822534867396808e+00
2.376822534867396808e+00
2.398948210089419053e+00
2.398948210089419053e+00
2.398948210089419053e+00
2.398948210089419053e+00
2.364447157200842309e+00
2.364447157200842309e+00
2.364447157200842309e+00
2.386572832422864110e+00
2.386572832422864110e+00
2.386572832422864110e+00
2.354884365367595489e+00
2.354884365367595489e+00
2.354884365367595489e+00
2.354884365367595489e+00
2.263381572923978347e+00
2.263381572923978347e+00
2.263381572923978347e+00
2.246318552201910457e+00
2.246318552201910457e+00
2.246318552201910457e+00
2.207692373424482213e+00
2.207692373424482213e+00
2.207692373424482213e+00
2.207692373424482213e+00
2.199254615924558287e+00
2.199254615924558287e+00
2.199254615924558287e+00
2.225130405590991067e+00
2.225130405590991067e+00
2.225130405590991067e+00
2.234130680257575996e+00
2.234130680257575996e+00
2.234130680257575996e+00
2.234130680257575996e+00
2.280632099368266719e+00
2.280632099368266719e+00
2.280632099368266719e+00
2.333133701590014208e+00
2.333133701590014208e+00
2.333133701590014208e+00
2.339696401867732423e+00
2.339696401867732423e+00
2.339696401867732423e+00
2.339696401867732423e+00
2.408511001922666317e+00
2.408511001922666317e+00
2.408511001922666317e+00
2.412448622089296890e+00
2.412448622089296890e+00
2.412448622089296890e+00
2.370259834589678594e+00
2.370259834589678594e+00
2.370259834589678594e+00
2.370259834589678594e+00
2.405698416089358194e+00
2.405698416089358194e+00
2.405698416089358194e+00
2.340258919034394314e+00
2.340258919034394314e+00
2.340258919034394314e+00
2.264319101535081202e+00
2.264319101535081202e+00
2.264319101535081202e+00
2.264319101535081202e+00
2.242568437757499922e+00
2.242568437757499922e+00
2.242568437757499922e+00
2.187254249702444309e+00
2.187254249702444309e+00
2.187254249702444309e+00
2.177878963591417971e+00
2.177878963591417971e+00
2.177878963591417971e+00
2.177878963591417971e+00
2.211254982146671821e+00
2.211254982146671821e+00
2.211254982146671821e+00
2.238443311868648422e+00
2.238443311868648422e+00
2.238443311868648422e+00
2.300507705923642732e+00
2.300507705923642732e+00
2.300507705923642732e+00
2.300507705923642732e+00
2.334446241645558029e+00
2.334446241645558029e+00
2.334446241645558029e+00
2.349259193700979687e+00
2.349259193700979687e+00
2.349259193700979687e+00
2.407198461867122496e+00
2.407198461867122496e+00
2.407198461867122496e+00
2.407198461867122496e+00
2.391447981200597983e+00
2.391447981200597983e+00
2.391447981200597983e+00
2.382822717978454019e+00
2.382822717978454019e+00
2.382822717978454019e+00
2.403635853144932444e+00
2.403635853144932444e+00
2.403635853144932444e+00
2.403635853144932444e+00
2.305007843256935196e+00
2.305007843256935196e+00
2.305007843256935196e+00
2.258131412701803509e+00
2.258131412701803509e+00
2.258131412701803509e+00
2.232818140202032620e+00
2.232818140202032620e+00
2.232818140202032620e+00
2.232818140202032620e+00
2.187441755424664791e+00
2.187441755424664791e+00
2.187441755424664791e+00
2.192691915646840073e+00
2.192691915646840073e+00
2.192691915646840073e+00
2.213880062257759462e+00
2.213880062257759462e+00
2.213880062257759462e+00
2.213880062257759462e+00
2.250256172368541474e+00
2.250256172368541474e+00
2.250256172368541474e+00
2.316070680867946319e+00
2.316070680867946319e+00
2.316070680867946319e+00
2.340258919034394314e+00
2.340258919034394314e+00
2.340258919034394314e+00
2.340258919034394314e+00
2.376072511978514878e+00
2.376072511978514878e+00
2.376072511978514878e+00
2.418636310922574584e+00
2.418636310922574584e+00
2.418636310922574584e+00
2.383197729422894984e+00
2.383197729422894984e+00
2.383197729422894984e+00
2.383197729422894984e+00
2.375697500534073914e+00
2.375697500534073914e+00
2.375697500534073914e+00
2.368947294534135217e+00
2.368947294534135217e+00
2.368947294534135217e+00
2.273881893368328022e+00
2.273881893368328022e+00
2.273881893368328022e+00
2.273881893368328022e+00
2.243880977813043742e+00
2.243880977813043742e+00
2.243880977813043742e+00
2.206004821924497428e+00
2.206004821924497428e+00
2.206004821924497428e+00
2.176378917813653668e+00
2.176378917813653668e+00
2.176378917813653668e+00
2.176378917813653668e+00
2.213692556535538980e+00
2.213692556535538980e+00
2.213692556535538980e+00
2.233380657368694511e+00
2.233380657368694511e+00
2.233380657368694511e+00
2.279319559312723342e+00
2.279319559312723342e+00
2.279319559312723342e+00
2.279319559312723342e+00
2.338758873256630455e+00
2.338758873256630455e+00
2.338758873256630455e+00
2.358071962645344577e+00
2.358071962645344577e+00
2.358071962645344577e+00
2.407948484756004870e+00
2.407948484756004870e+00
2.407948484756004870e+00
2.407948484756004870e+00
2.414698690755943566e+00
2.414698690755943566e+00
2.414698690755943566e+00
2.375697500534073914e+00
2.375697500534073914e+00
2.375697500534073914e+00
2.399323221533860018e+00
2.399323221533860018e+00
2.399323221533860018e+00
2.349634205145421095e+00
2.349634205145421095e+00
2.349634205145421095e+00
2.349634205145421095e+00
2.264506607257301685e+00
2.264506607257301685e+00
2.264506607257301685e+00
2.242380932035279439e+00
2.242380932035279439e+00
2.242380932035279439e+00
2.194566972869045340e+00
2.194566972869045340e+00
2.194566972869045340e+00
2.194566972869045340e+00
2.182004089480269915e+00
2.182004089480269915e+00
2.182004089480269915e+00
2.210879970702230857e+00
2.210879970702230857e+00
2.210879970702230857e+00
2.235068208868678852e+00
2.235068208868678852e+00
2.235068208868678852e+00
2.235068208868678852e+00
2.295257545701467894e+00
2.295257545701467894e+00
2.295257545701467894e+00
2.339508896145511940e+00
2.339508896145511940e+00
2.339508896145511940e+00
2.351509262367625919e+00
2.351509262367625919e+00
2.351509262367625919e+00
2.351509262367625919e+00
2.401948301644947659e+00
2.401948301644947659e+00
2.401948301644947659e+00
2.389760429700613198e+00
2.389760429700613198e+00
2.389760429700613198e+00
2.358821985534226506e+00
2.358821985534226506e+00
2.358821985534226506e+00
2.358821985534226506e+00
2.403448347422711961e+00
2.403448347422711961e+00
2.403448347422711961e+00
2.321133335367900674e+00
2.321133335367900674e+00
2.321133335367900674e+00
2.256631366924039650e+00
2.256631366924039650e+00
2.256631366924039650e+00
2.256631366924039650e+00
2.236193243202001746e+00
2.236193243202001746e+00
2.236193243202001746e+00
2.193629444257942485e+00
2.193629444257942485e+00
2.193629444257942485e+00
2.194566972869045340e+00
2.194566972869045340e+00
2.194566972869045340e+00
2.194566972869045340e+00
2.223442854091006282e+00
2.223442854091006282e+00
2.223442854091006282e+00
2.248568620868556689e+00
2.248568620868556689e+00
2.248568620868556689e+00
2.308570451979125249e+00
2.308570451979125249e+00
2.308570451979125249e+00
2.308570451979125249e+00
2.340258919034394314e+00
2.340258919034394314e+00
2.340258919034394314e+00
2.361822077089755112e+00
2.361822077089755112e+00
2.361822077089755112e+00
2.361822077089755112e+00
2.405135898922696747e+00
2.405135898922696747e+00
2.405135898922696747e+00
2.368384777367473326e+00
2.368384777367473326e+00
2.368384777367473326e+00
2.366697225867488541e+00
2.366697225867488541e+00
2.366697225867488541e+00
2.384885280922879769e+00
2.384885280922879769e+00
2.384885280922879769e+00
2.384885280922879769e+00
2.290757408368175430e+00
2.290757408368175430e+00
2.290757408368175430e+00
2.252881252479629115e+00
2.252881252479629115e+00
2.252881252479629115e+00
2.220255256813257638e+00
2.220255256813257638e+00
2.220255256813257638e+00
2.220255256813257638e+00
2.187254249702444309e+00
2.187254249702444309e+00
2.187254249702444309e+00
2.205442304757835537e+00
2.205442304757835537e+00
2.205442304757835537e+00
2.225880428479872997e+00
2.225880428479872997e+00
2.225880428479872997e+00
2.225880428479872997e+00
2.265444135868404540e+00
2.265444135868404540e+00
2.265444135868404540e+00
2.332571184423352761e+00
2.332571184423352761e+00
2.332571184423352761e+00
2.349259193700979687e+00
2.349259193700979687e+00
2.349259193700979687e+00
2.349259193700979687e+00
2.384322763756218322e+00
2.384322763756218322e+00
2.384322763756218322e+00
2.410386059144871140e+00
2.410386059144871140e+00
2.410386059144871140e+00
2.372697408978545752e+00
2.372697408978545752e+00
2.372697408978545752e+00
2.372697408978545752e+00
2.388072878200628413e+00
2.388072878200628413e+00
2.388072878200628413e+00
2.368759788811914291e+00
2.368759788811914291e+00
2.368759788811914291e+00
2.275006927701650916e+00
2.275006927701650916e+00
2.275006927701650916e+00
2.275006927701650916e+00
2.255506332590716312e+00
2.255506332590716312e+00
2.255506332590716312e+00
2.207129856257820322e+00
2.207129856257820322e+00
2.207129856257820322e+00
2.186879238258003344e+00
2.186879238258003344e+00
2.186879238258003344e+00
2.186879238258003344e+00
2.217067659535508550e+00
2.217067659535508550e+00
2.217067659535508550e+00
2.232443128757591655e+00
2.232443128757591655e+00
2.232443128757591655e+00
2.280632099368266719e+00
2.280632099368266719e+00
2.280632099368266719e+00
2.280632099368266719e+00
2.333321207312235135e+00
2.333321207312235135e+00
2.333321207312235135e+00
2.349634205145421095e+00
2.349634205145421095e+00
2.349634205145421095e+00
2.349634205145421095e+00
2.403260841700491479e+00
2.403260841700491479e+00
2.403260841700491479e+00
2.402698324533829588e+00
2.402698324533829588e+00
2.402698324533829588e+00
2.361447065645314147e+00
2.361447065645314147e+00
2.361447065645314147e+00
2.361447065645314147e+00
2.388635395367290304e+00
2.388635395367290304e+00
2.388635395367290304e+00
2.324695944090090727e+00
2.324695944090090727e+00
2.324695944090090727e+00
2.251381206701864812e+00
2.251381206701864812e+00
2.251381206701864812e+00
2.251381206701864812e+00
2.232443128757591655e+00
2.232443128757591655e+00
2.232443128757591655e+00
2.186504226813562823e+00
2.186504226813562823e+00
2.186504226813562823e+00
2.176566423535874595e+00
2.176566423535874595e+00
2.176566423535874595e+00
2.176566423535874595e+00
2.209567430646687480e+00
2.209567430646687480e+00
2.209567430646687480e+00
2.226255439924313961e+00
2.226255439924313961e+00
2.226255439924313961e+00
2.284569719534897736e+00
2.284569719534897736e+00
2.284569719534897736e+00
2.284569719534897736e+00
2.325820978423414065e+00
2.325820978423414065e+00
2.325820978423414065e+00
2.353196813867610704e+00
2.353196813867610704e+00
2.353196813867610704e+00
2.415261207922605013e+00
2.415261207922605013e+00
2.415261207922605013e+00
2.415261207922605013e+00
2.402510818811609106e+00
2.402510818811609106e+00
2.402510818811609106e+00
2.380572649311807787e+00
2.380572649311807787e+00
2.380572649311807787e+00
2.401010773033844803e+00
2.401010773033844803e+00
2.401010773033844803e+00
2.401010773033844803e+00
2.307632923368022837e+00
2.307632923368022837e+00
2.307632923368022837e+00
2.256818872646260132e+00
2.256818872646260132e+00
2.256818872646260132e+00
2.230943082979827352e+00
2.230943082979827352e+00
2.230943082979827352e+00
2.230943082979827352e+00
2.203192236091189304e+00
2.203192236091189304e+00
2.203192236091189304e+00
2.221942808313242423e+00
2.221942808313242423e+00
2.221942808313242423e+00
2.240880886257515137e+00
2.240880886257515137e+00
2.240880886257515137e+00
2.240880886257515137e+00
2.255131321146275347e+00
2.255131321146275347e+00
2.255131321146275347e+00
2.311945554979094819e+00
2.311945554979094819e+00
2.311945554979094819e+00
2.350384228034303025e+00
2.350384228034303025e+00
2.350384228034303025e+00
2.350384228034303025e+00
2.383947752311777357e+00
2.383947752311777357e+00
2.383947752311777357e+00
2.410948576311533031e+00
2.410948576311533031e+00
2.410948576311533031e+00
2.380760155034028269e+00
2.380760155034028269e+00
2.380760155034028269e+00
2.383010223700674501e+00
2.383010223700674501e+00
2.383010223700674501e+00
2.383010223700674501e+00
2.389010406811731269e+00
2.389010406811731269e+00
2.389010406811731269e+00
2.293007477034821662e+00
2.293007477034821662e+00
2.293007477034821662e+00
2.251756218146305777e+00
2.251756218146305777e+00
2.251756218146305777e+00
2.251756218146305777e+00
2.212755027924436124e+00
2.212755027924436124e+00
2.212755027924436124e+00
2.181066560869167059e+00
2.181066560869167059e+00
2.181066560869167059e+00
2.201129673146763555e+00
2.201129673146763555e+00
2.201129673146763555e+00
2.201129673146763555e+00
2.212005005035553751e+00
2.212005005035553751e+00
2.212005005035553751e+00
2.256256355479598685e+00
2.256256355479598685e+00
2.256256355479598685e+00
2.317945738090151586e+00
2.317945738090151586e+00
2.317945738090151586e+00
2.317945738090151586e+00
2.328258552812280335e+00
2.328258552812280335e+00
2.328258552812280335e+00
2.387697866756187448e+00
2.387697866756187448e+00
2.387697866756187448e+00
2.387697866756187448e+00
2.420511368144779851e+00
2.420511368144779851e+00
2.420511368144779851e+00
2.373447431867427682e+00
2.373447431867427682e+00
2.373447431867427682e+00
2.399510727256080500e+00
2.399510727256080500e+00
2.399510727256080500e+00
2.399510727256080500e+00
2.360884548478652700e+00
2.360884548478652700e+00
2.360884548478652700e+00
2.269569261757255596e+00
2.269569261757255596e+00
2.269569261757255596e+00
2.249131138035218136e+00
2.249131138035218136e+00
2.249131138035218136e+00
2.249131138035218136e+00
2.199629627368999252e+00
2.199629627368999252e+00
2.199629627368999252e+00
2.184816675313578038e+00
2.184816675313578038e+00
2.184816675313578038e+00
2.221755302591021497e+00
2.221755302591021497e+00
2.221755302591021497e+00
2.221755302591021497e+00
2.231318094424268317e+00
2.231318094424268317e+00
2.231318094424268317e+00
2.282694662312692468e+00
2.282694662312692468e+00
2.282694662312692468e+00
2.331633655812249906e+00
2.331633655812249906e+00
2.331633655812249906e+00
2.331633655812249906e+00
2.348321665089877275e+00
2.348321665089877275e+00
2.348321665089877275e+00
2.397448164311655194e+00
2.397448164311655194e+00
2.397448164311655194e+00
2.395198095645008962e+00
2.395198095645008962e+00
2.395198095645008962e+00
2.395198095645008962e+00
2.362572099978637485e+00
2.362572099978637485e+00
2.362572099978637485e+00
2.402135807367168141e+00
2.402135807367168141e+00
2.402135807367168141e+00
2.323758415478988315e+00
2.323758415478988315e+00
2.323758415478988315e+00
2.264694112979522167e+00
2.264694112979522167e+00
2.264694112979522167e+00
2.264694112979522167e+00
2.252881252479629115e+00
2.252881252479629115e+00
2.252881252479629115e+00
2.201317178868984037e+00
2.201317178868984037e+00
2.201317178868984037e+00
2.201129673146763555e+00
2.201129673146763555e+00
2.201129673146763555e+00
2.201129673146763555e+00
2.225505417035432032e+00
2.225505417035432032e+00
2.225505417035432032e+00
2.249506149479659545e+00
2.249506149479659545e+00
2.249506149479659545e+00
2.301257728812525105e+00
2.301257728812525105e+00
2.301257728812525105e+00
2.301257728812525105e+00
2.334633747367778511e+00
2.334633747367778511e+00
2.334633747367778511e+00
2.354509353923154524e+00
2.354509353923154524e+00
2.354509353923154524e+00
2.401385784478286212e+00
2.401385784478286212e+00
2.401385784478286212e+00
2.401385784478286212e+00
2.368947294534135217e+00
2.368947294534135217e+00
2.368947294534135217e+00
2.365384685811944721e+00
2.365384685811944721e+00
2.365384685811944721e+00
2.392385509811700839e+00
2.392385509811700839e+00
2.392385509811700839e+00
2.294882534257026929e+00
2.294882534257026929e+00
2.294882534257026929e+00
2.294882534257026929e+00
2.242380932035279439e+00
2.242380932035279439e+00
2.242380932035279439e+00
2.214630085146641392e+00
2.214630085146641392e+00
2.214630085146641392e+00
2.214630085146641392e+00
2.171878780480361648e+00
2.171878780480361648e+00
2.171878780480361648e+00
2.194941984313486305e+00
2.194941984313486305e+00
2.194941984313486305e+00
2.218942716757713818e+00
2.218942716757713818e+00
2.218942716757713818e+00
2.218942716757713818e+00
2.252318735312967224e+00
2.252318735312967224e+00
2.252318735312967224e+00
2.332383678701132279e+00
2.332383678701132279e+00
2.332383678701132279e+00
2.355634388256477418e+00
2.355634388256477418e+00
2.355634388256477418e+00
2.355634388256477418e+00
2.378510086367381593e+00
2.378510086367381593e+00
2.378510086367381593e+00
2.404198370311593891e+00
2.404198370311593891e+00
2.404198370311593891e+00
2.363322122867518971e+00
2.363322122867518971e+00
2.363322122867518971e+00
2.363322122867518971e+00
2.378697592089602519e+00
2.378697592089602519e+00
2.378697592089602519e+00
2.371572374645222414e+00
2.371572374645222414e+00
2.371572374645222414e+00
2.284757225257118218e+00
2.284757225257118218e+00
2.284757225257118218e+00
2.284757225257118218e+00
2.269194250312814631e+00
2.269194250312814631e+00
2.269194250312814631e+00
2.223255348368785356e+00
2.223255348368785356e+00
2.223255348368785356e+00
2.198879604480116878e+00
2.198879604480116878e+00
2.198879604480116878e+00
2.198879604480116878e+00
2.228318002868740155e+00
2.228318002868740155e+00
2.228318002868740155e+00
2.228130497146519229e+00
2.228130497146519229e+00
2.228130497146519229e+00
2.262256538590655452e+00
2.262256538590655452e+00
2.262256538590655452e+00
2.315508163701284872e+00
2.315508163701284872e+00
2.315508163701284872e+00
2.315508163701284872e+00
2.331633655812249906e+00
2.331633655812249906e+00
2.331633655812249906e+00
2.377760063478499664e+00
2.377760063478499664e+00
2.377760063478499664e+00
2.381322672200689716e+00
2.381322672200689716e+00
2.381322672200689716e+00
2.381322672200689716e+00
2.349821710867641578e+00
2.349821710867641578e+00
2.349821710867641578e+00
2.389760429700613198e+00
2.389760429700613198e+00
2.389760429700613198e+00
2.354696859645375007e+00
2.354696859645375007e+00
2.354696859645375007e+00
2.284944730979339145e+00
2.284944730979339145e+00
2.268444227423932702e+00
2.268444227423932702e+00
2.209192419202246516e+00
2.209192419202246516e+00
2.209192419202246516e+00
2.201692190313425002e+00
2.201692190313425002e+00
2.226442945646534444e+00
2.226442945646534444e+00
2.232068117313150690e+00
2.232068117313150690e+00
2.270506790368358452e+00
2.270506790368358452e+00
2.308007934812463802e+00
2.308007934812463802e+00
2.329571092867824156e+00
2.329571092867824156e+00
2.379822626422925413e+00
2.379822626422925413e+00
2.377947569200720146e+00
2.377947569200720146e+00
2.347571642200994901e+00
2.347571642200994901e+00
2.385822809533982625e+00
2.385822809533982625e+00
2.305570360423596643e+00
2.305570360423596643e+00
2.305570360423596643e+00
2.247256080813012868e+00
2.247256080813012868e+00
2.226067934202093479e+00
2.226067934202093479e+00
2.179754020813623683e+00
2.179754020813623683e+00
2.192691915646840073e+00
2.192691915646840073e+00
2.216130130924405695e+00
2.216130130924405695e+00
2.248193609424115724e+00
2.248193609424115724e+00
2.306507889034699499e+00
2.306507889034699499e+00
2.323195898312326424e+00
2.323195898312326424e+00
2.323195898312326424e+00
2.347759147923215384e+00
2.347759147923215384e+00
2.389010406811731269e+00
2.389010406811731269e+00
2.361447065645314147e+00
2.361447065645314147e+00
2.367259743034150432e+00
2.367259743034150432e+00
2.380760155034028269e+00
2.380760155034028269e+00
2.291694936979278285e+00
2.291694936979278285e+00
2.270881801812799416e+00
2.270881801812799416e+00
2.223442854091006282e+00
2.223442854091006282e+00
2.173566331980346433e+00
2.173566331980346433e+00
2.173566331980346433e+00
2.187629261146885273e+00
2.187629261146885273e+00
2.213317545091097571e+00
2.213317545091097571e+00
2.279132053590502860e+00
2.279132053590502860e+00
2.334446241645558029e+00
2.334446241645558029e+00
2.354321848200934042e+00
2.354321848200934042e+00
2.407760979033784388e+00
2.407760979033784388e+00
2.434386791589098653e+00
2.434386791589098653e+00
2.373822443311869090e+00
2.373822443311869090e+00
2.373822443311869090e+00
2.360697042756431774e+00
2.360697042756431774e+00
2.303320291756950855e+00
2.303320291756950855e+00
2.207317361980041248e+00
2.207317361980041248e+00
2.197942075869014911e+00
2.197942075869014911e+00
2.171691274758141166e+00
2.171691274758141166e+00
2.187629261146885273e+00
2.187629261146885273e+00
2.234693197424237443e+00
2.234693197424237443e+00
2.265631641590625023e+00
2.265631641590625023e+00
2.306695394756919981e+00
2.306695394756919981e+00
2.353571825312051669e+00
2.353571825312051669e+00
2.353571825312051669e+00
2.373447431867427682e+00
2.373447431867427682e+00
2.424448988311410869e+00
2.424448988311410869e+00
2.384510269478438804e+00
2.384510269478438804e+00
2.291882442701498768e+00
2.291882442701498768e+00
2.313445600756859122e+00
2.313445600756859122e+00
2.259443952757347329e+00
2.259443952757347329e+00
2.204504776146733125e+00
2.204504776146733125e+00
2.212380016479995160e+00
2.212380016479995160e+00
2.212380016479995160e+00
2.183504135258034218e+00
2.183504135258034218e+00
2.188754295480208611e+00
2.188754295480208611e+00
2.217442670979949515e+00
2.217442670979949515e+00
2.213317545091097571e+00
2.213317545091097571e+00
2.251568712424085295e+00
2.251568712424085295e+00
2.300695211645863214e+00
2.300695211645863214e+00
2.362759605700857524e+00
2.362759605700857524e+00
2.411323587755973996e+00
2.411323587755973996e+00
2.411323587755973996e+00
2.371759880367442896e+00
2.371759880367442896e+00
2.366884731589709023e+00
2.366884731589709023e+00
2.415448713644825496e+00
2.415448713644825496e+00
2.331821161534470832e+00
2.331821161534470832e+00
2.305570360423596643e+00
2.305570360423596643e+00
2.288319833979308715e+00
2.288319833979308715e+00
2.239568346201971760e+00
2.239568346201971760e+00
2.257193884090700653e+00
2.257193884090700653e+00
2.257193884090700653e+00
2.239568346201971760e+00
2.239568346201971760e+00
2.215942625202185212e+00
2.215942625202185212e+00
2.262069032868434526e+00
2.262069032868434526e+00
2.286444776757103448e+00
2.286444776757103448e+00
2.347384136478774419e+00
2.347384136478774419e+00
2.421823908200323228e+00
2.421823908200323228e+00
2.413761162144840711e+00
2.413761162144840711e+00
2.416948759422589799e+00
2.416948759422589799e+00
2.430636677144688562e+00
2.430636677144688562e+00
2.430636677144688562e+00
2.349259193700979687e+00
2.349259193700979687e+00
2.323758415478988315e+00
2.323758415478988315e+00
2.271256813257240381e+00
2.271256813257240381e+00
2.207504867702261730e+00
2.207504867702261730e+00
2.209942442091128445e+00
2.209942442091128445e+00
2.177691457869197489e+00
2.177691457869197489e+00
2.147128025147251762e+00
2.147128025147251762e+00
2.150315622425000850e+00
2.150315622425000850e+00
2.150315622425000850e+00
2.166628620258186366e+00
2.166628620258186366e+00
2.249318643757439062e+00
2.249318643757439062e+00
2.287382305368205859e+00
2.287382305368205859e+00
2.251568712424085295e+00
2.251568712424085295e+00
2.300882717368083696e+00
2.300882717368083696e+00
2.314383129367961978e+00
2.314383129367961978e+00
2.278757042146061895e+00
2.278757042146061895e+00
2.301445234534745587e+00
2.301445234534745587e+00
2.281194616534928166e+00
2.281194616534928166e+00
2.281194616534928166e+00
2.262069032868434526e+00
2.262069032868434526e+00
2.308945463423566213e+00
2.308945463423566213e+00
2.321508346812341639e+00
2.321508346812341639e+00
2.353759331034272151e+00
2.353759331034272151e+00
2.385822809533982625e+00
2.385822809533982625e+00
2.395010589922788480e+00
2.395010589922788480e+00
2.452949858088931290e+00
2.452949858088931290e+00
2.433449262977995797e+00
2.433449262977995797e+00
2.355259376812036454e+00
2.355259376812036454e+00
2.355259376812036454e+00
2.410386059144871140e+00
2.410386059144871140e+00
2.347009125034333454e+00
2.347009125034333454e+00
2.209942442091128445e+00
2.209942442091128445e+00
2.134190130314035372e+00
2.134190130314035372e+00
2.091813837092196593e+00
2.091813837092196593e+00
2.098564043092135289e+00
2.098564043092135289e+00
2.136065187536240639e+00
2.136065187536240639e+00
2.182004089480269915e+00
2.182004089480269915e+00
2.256443861201819168e+00
2.256443861201819168e+00
2.256443861201819168e+00
2.327133518478957885e+00
2.327133518478957885e+00
2.386947843867305519e+00
2.386947843867305519e+00
2.449199743644520311e+00
2.449199743644520311e+00
2.470762901699881109e+00
2.470762901699881109e+00
2.487075899533067069e+00
2.487075899533067069e+00
2.507701528977324568e+00
2.507701528977324568e+00
2.389197912533951751e+00
2.389197912533951751e+00
2.285132236701559627e+00
2.285132236701559627e+00
2.215755119479964730e+00
2.215755119479964730e+00
2.168503677480392078e+00
2.168503677480392078e+00
2.183316629535813735e+00
2.183316629535813735e+00
2.183316629535813735e+00
2.208442396313364142e+00
2.208442396313364142e+00
2.249881160924100509e+00
2.249881160924100509e+00
2.330133610034486047e+00
2.330133610034486047e+00
2.405698416089358194e+00
2.405698416089358194e+00
2.513701712088381779e+00
2.513701712088381779e+00
2.516701803643909940e+00
2.516701803643909940e+00
2.425761528366954689e+00
2.425761528366954689e+00
2.343446516312143402e+00
2.343446516312143402e+00
2.256818872646260132e+00
2.256818872646260132e+00
2.256818872646260132e+00
2.139252784813989727e+00
2.139252784813989727e+00
2.101001617481002448e+00
2.101001617481002448e+00
2.060125370036927084e+00
2.060125370036927084e+00
2.067250587481307633e+00
2.067250587481307633e+00
2.138315256202887316e+00
2.138315256202887316e+00
2.151440656758324188e+00
2.151440656758324188e+00
2.211629993591112786e+00
2.211629993591112786e+00
2.296945097201452679e+00
2.296945097201452679e+00
2.296945097201452679e+00
2.346446607867672007e+00
2.346446607867672007e+00
2.441887020477920167e+00
2.441887020477920167e+00
2.481263222144230340e+00
2.481263222144230340e+00
2.460075075533310951e+00
2.460075075533310951e+00
2.504701437421796406e+00
2.504701437421796406e+00
2.434199285866878171e+00
2.434199285866878171e+00
2.268444227423932702e+00
2.268444227423932702e+00
2.164378551591540134e+00
2.164378551591540134e+00
2.164378551591540134e+00
2.078125919370098273e+00
2.078125919370098273e+00
2.092938871425519931e+00
2.092938871425519931e+00
2.228693014313181120e+00
2.228693014313181120e+00
2.325820978423414065e+00
2.325820978423414065e+00
2.464200201422162451e+00
2.464200201422162451e+00
2.506764000366222156e+00
2.506764000366222156e+00
2.482200750755333196e+00
2.482200750755333196e+00
2.390885464033936536e+00
2.390885464033936536e+00
2.390885464033936536e+00
2.295257545701467894e+00
2.295257545701467894e+00
2.251006195257423848e+00
2.251006195257423848e+00
2.292632465590380253e+00
2.292632465590380253e+00
2.223817865535447247e+00
2.223817865535447247e+00
2.186504226813562823e+00
2.186504226813562823e+00
2.180504043702505612e+00
2.180504043702505612e+00
2.183316629535813735e+00
2.183316629535813735e+00
2.219130222479934300e+00
2.219130222479934300e+00
2.232068117313150690e+00
2.232068117313150690e+00
2.232068117313150690e+00
2.230380565813165905e+00
2.230380565813165905e+00
2.272006836146122755e+00
2.272006836146122755e+00
2.300507705923642732e+00
2.300507705923642732e+00
2.296945097201452679e+00
2.296945097201452679e+00
2.300132694479201767e+00
2.300132694479201767e+00
2.269944273201696561e+00
2.269944273201696561e+00
2.297695120090334608e+00
2.297695120090334608e+00
2.362384594256416559e+00
2.362384594256416559e+00
2.362384594256416559e+00
2.307070406201360946e+00
2.307070406201360946e+00
2.325445966978973100e+00
2.325445966978973100e+00
2.330321115756706529e+00
2.330321115756706529e+00
2.311383037812433372e+00
2.311383037812433372e+00
2.341196447645496725e+00
2.341196447645496725e+00
2.331071138645588459e+00
2.331071138645588459e+00
2.341008941923276243e+00
2.341008941923276243e+00
2.377572557756279181e+00
2.377572557756279181e+00
2.375134983367412023e+00
2.375134983367412023e+00
2.375134983367412023e+00
2.375322489089632505e+00
2.375322489089632505e+00
2.334258735923337547e+00
2.334258735923337547e+00
2.248193609424115724e+00
2.248193609424115724e+00
2.243505966368602778e+00
2.243505966368602778e+00
2.197004547257912055e+00
2.197004547257912055e+00
2.085813653981139382e+00
2.085813653981139382e+00
2.064438001647999510e+00
2.064438001647999510e+00
2.034999603259376677e+00
2.034999603259376677e+00
2.034999603259376677e+00
2.020936674092837393e+00
2.020936674092837393e+00
2.111876949369793088e+00
2.111876949369793088e+00
2.194754478591265823e+00
2.194754478591265823e+00
2.294132511368144556e+00
2.294132511368144556e+00
2.395760612811670409e+00
2.395760612811670409e+00
2.473012970366527341e+00
2.473012970366527341e+00
2.531139744254890633e+00
2.531139744254890633e+00
2.517076815088350905e+00
2.517076815088350905e+00
2.536952421643726918e+00
2.536952421643726918e+00
2.536952421643726918e+00
2.608954618976409012e+00
2.608954618976409012e+00
2.485013336588640875e+00
2.485013336588640875e+00
2.357134434034241721e+00
2.357134434034241721e+00
2.294320017090365038e+00
2.294320017090365038e+00
2.149378093813898438e+00
2.149378093813898438e+00
2.125002349925229961e+00
2.125002349925229961e+00
2.158940885647145258e+00
2.158940885647145258e+00
2.211067476424451339e+00
2.211067476424451339e+00
2.265819147312845505e+00
2.265819147312845505e+00
2.265819147312845505e+00
2.347759147923215384e+00
2.347759147923215384e+00
2.353946836756492633e+00
2.353946836756492633e+00
2.339321390423291458e+00
2.339321390423291458e+00
2.163066011535996758e+00
2.163066011535996758e+00
2.078875942258980203e+00
2.078875942258980203e+00
2.124064821314127105e+00
2.124064821314127105e+00
2.148065553758354618e+00
2.148065553758354618e+00
2.226630451368755370e+00
2.226630451368755370e+00
2.188191778313547164e+00
2.188191778313547164e+00
2.188191778313547164e+00
2.080000976592303541e+00
2.080000976592303541e+00
2.068750633259071936e+00
2.068750633259071936e+00
2.078500930814539238e+00
2.078500930814539238e+00
2.176941434980315559e+00
2.176941434980315559e+00
2.359009491256446989e+00
2.359009491256446989e+00
2.435886837366862956e+00
2.435886837366862956e+00
2.443387066255684470e+00
2.443387066255684470e+00
2.454824915311136557e+00
2.454824915311136557e+00
2.430636677144688562e+00
2.430636677144688562e+00
2.532452284310434454e+00
2.532452284310434454e+00
2.532452284310434454e+00
2.602954435865352245e+00
2.602954435865352245e+00
2.488763451033051854e+00
2.488763451033051854e+00
2.412261116367076408e+00
2.412261116367076408e+00
2.315695669423505798e+00
2.315695669423505798e+00
2.194191961424603932e+00
2.194191961424603932e+00
2.078125919370098273e+00
2.078125919370098273e+00
2.048125003814813549e+00
2.048125003814813549e+00
2.164566057313760616e+00
2.164566057313760616e+00
2.164566057313760616e+00
2.278569536423841413e+00
2.278569536423841413e+00
2.329383587145603673e+00
2.329383587145603673e+00
2.337633838923307117e+00
2.337633838923307117e+00
2.261694021423993561e+00
2.261694021423993561e+00
2.199254615924558287e+00
2.199254615924558287e+00
2.250631183812982439e+00
2.250631183812982439e+00
2.155753288369396170e+00
2.155753288369396170e+00
2.085626148258918899e+00
2.085626148258918899e+00
2.107751823480941145e+00
2.107751823480941145e+00
2.107751823480941145e+00
2.115064546647541732e+00
2.115064546647541732e+00
2.098751548814355772e+00
2.098751548814355772e+00
2.190816858424634361e+00
2.190816858424634361e+00
2.343821527756584366e+00
2.343821527756584366e+00
2.436636860255744885e+00
2.436636860255744885e+00
2.487638416699728516e+00
2.487638416699728516e+00
2.474138004699850679e+00
2.474138004699850679e+00
2.537139927365947845e+00
2.537139927365947845e+00
2.537139927365947845e+00
2.456699972533341381e+00
2.456699972533341381e+00
2.282882168034912951e+00
2.282882168034912951e+00
2.170941251869258792e+00
2.170941251869258792e+00
1.986435621204260427e+00
1.986435621204260427e+00
1.779804315317239816e+00
1.779804315317239816e+00
1.715864864040040239e+00
1.715864864040040239e+00
1.866056947538682342e+00
1.866056947538682342e+00
2.221942808313242423e+00
2.221942808313242423e+00
2.536577410199285953e+00
2.536577410199285953e+00
2.441887020477920167e+00
2.441887020477920167e+00
2.441887020477920167e+00
2.382260200811792572e+00
2.382260200811792572e+00
2.332758690145573244e+00
2.332758690145573244e+00
2.271069307535019899e+00
2.271069307535019899e+00
2.347196630756553937e+00
2.347196630756553937e+00
2.350384228034303025e+00
2.350384228034303025e+00
2.177128940702536042e+00
2.177128940702536042e+00
2.184254158146916147e+00
2.184254158146916147e+00
2.156690816980498582e+00
2.156690816980498582e+00
2.156690816980498582e+00
2.267131687368389326e+00
2.267131687368389326e+00
2.270694296090578934e+00
2.270694296090578934e+00
2.193816949980162967e+00
2.193816949980162967e+00
2.220255256813257638e+00
2.220255256813257638e+00
2.178441480758079862e+00
2.178441480758079862e+00
2.233380657368694511e+00
2.233380657368694511e+00
2.280069582201605716e+00
2.280069582201605716e+00
2.230943082979827352e+00
2.230943082979827352e+00
2.219692739646595747e+00
2.219692739646595747e+00
2.219692739646595747e+00
2.241443403424177028e+00
2.241443403424177028e+00
2.178066469313638454e+00
2.178066469313638454e+00
2.159128391369365740e+00
2.159128391369365740e+00
2.237505783257545566e+00
2.237505783257545566e+00
2.163441022980437278e+00
2.163441022980437278e+00
2.194379467146824858e+00
2.194379467146824858e+00
2.039687246314890068e+00
2.039687246314890068e+00
2.063125461592455689e+00
2.063125461592455689e+00
2.371009857478560967e+00
2.371009857478560967e+00
2.371009857478560967e+00
2.526639606921598169e+00
2.526639606921598169e+00
2.503951414532914033e+00
2.503951414532914033e+00
2.415636219367045978e+00
2.415636219367045978e+00
2.501513840144047762e+00
2.501513840144047762e+00
2.490638508255257122e+00
2.490638508255257122e+00
2.335946287423322332e+00
2.335946287423322332e+00
2.252318735312967224e+00
2.252318735312967224e+00
2.298070131534776017e+00
2.298070131534776017e+00
2.181816583758049433e+00
2.181816583758049433e+00
2.122939786980803767e+00
2.122939786980803767e+00
2.122939786980803767e+00
2.136065187536240639e+00
2.136065187536240639e+00
2.054687704092532208e+00
2.054687704092532208e+00
2.087313699758903685e+00
2.087313699758903685e+00
2.179754020813623683e+00
2.179754020813623683e+00
2.235255714590899334e+00
2.235255714590899334e+00
2.281569627979369130e+00
2.281569627979369130e+00
2.130065004425183872e+00
2.130065004425183872e+00
2.175441389202551257e+00
2.175441389202551257e+00
2.175441389202551257e+00
2.202442213202307375e+00
2.202442213202307375e+00
2.060500381481368493e+00
2.060500381481368493e+00
2.020561662648396428e+00
2.020561662648396428e+00
2.088251228370006540e+00
2.088251228370006540e+00
2.047374980925931620e+00
2.047374980925931620e+00
2.097063997314370987e+00
2.097063997314370987e+00
2.122939786980803767e+00
2.122939786980803767e+00
2.061250404370250422e+00
2.061250404370250422e+00
2.061250404370250422e+00
2.118627155369731785e+00
2.118627155369731785e+00
2.179191503646961792e+00
2.179191503646961792e+00
2.197567064424573946e+00
2.197567064424573946e+00
2.153690725424969976e+00
2.153690725424969976e+00
2.140190313425092139e+00
2.140190313425092139e+00
2.081126010925626435e+00
2.081126010925626435e+00
2.284194708090456771e+00
2.284194708090456771e+00
2.386010315256203107e+00
2.386010315256203107e+00
2.372884914700766235e+00
2.372884914700766235e+00
2.372884914700766235e+00
2.420511368144779851e+00
2.420511368144779851e+00
2.216505142368846659e+00
2.216505142368846659e+00
2.188191778313547164e+00
2.188191778313547164e+00
2.295070039979247412e+00
2.295070039979247412e+00
2.290757408368175430e+00
2.290757408368175430e+00
2.301257728812525105e+00
2.301257728812525105e+00
2.353946836756492633e+00
2.353946836756492633e+00
2.469262855922116806e+00
2.469262855922116806e+00
2.491763542588580016e+00
2.491763542588580016e+00
2.491763542588580016e+00
2.547452742088076594e+00
2.547452742088076594e+00
2.423323953978087530e+00
2.423323953978087530e+00
2.251568712424085295e+00
2.251568712424085295e+00
2.201317178868984037e+00
2.201317178868984037e+00
2.157815851313821920e+00
2.157815851313821920e+00
1.958497268593401897e+00
1.958497268593401897e+00
1.935996581926938687e+00
1.935996581926938687e+00
2.122939786980803767e+00
2.122939786980803767e+00
2.286819788201544412e+00
2.286819788201544412e+00
2.286819788201544412e+00
2.327696035645618888e+00
2.327696035645618888e+00
2.203004730368968822e+00
2.203004730368968822e+00
2.071000701925717724e+00
2.071000701925717724e+00
2.175441389202551257e+00
2.175441389202551257e+00
2.259068941312906365e+00
2.259068941312906365e+00
2.288319833979308715e+00
2.288319833979308715e+00
2.496451185644092963e+00
2.496451185644092963e+00
2.648705832087161038e+00
2.648705832087161038e+00
2.529077181310464884e+00
2.529077181310464884e+00
2.529077181310464884e+00
2.416573747978148834e+00
2.416573747978148834e+00
2.148815576647236547e+00
2.148815576647236547e+00
2.032562028870509963e+00
2.032562028870509963e+00
2.211817499313333268e+00
2.211817499313333268e+00
2.110001892147587377e+00
2.110001892147587377e+00
1.858369212927640568e+00
1.858369212927640568e+00
1.649487838373973947e+00
1.649487838373973947e+00
1.659238135929441249e+00
1.659238135929441249e+00
1.659238135929441249e+00
1.921558641315958216e+00
1.921558641315958216e+00
1.905808160649433924e+00
1.905808160649433924e+00
1.997310953093050845e+00
1.997310953093050845e+00
2.352821802423169739e+00
2.352821802423169739e+00
2.547265236365856111e+00
2.547265236365856111e+00
2.754646565141758430e+00
2.754646565141758430e+00
3.088406750694296488e+00
3.088406750694296488e+00
2.938777184362315609e+00
2.938777184362315609e+00
2.882712973418378066e+00
2.882712973418378066e+00
2.661643726920377429e+00
2.661643726920377429e+00
2.661643726920377429e+00
2.286444776757103448e+00
2.286444776757103448e+00
2.023936765648365554e+00
2.023936765648365554e+00
1.934871547593615571e+00
1.934871547593615571e+00
1.893245277260658721e+00
1.893245277260658721e+00
2.005748710592974771e+00
2.005748710592974771e+00
2.102126651814325342e+00
2.102126651814325342e+00
2.131190038758506766e+00
2.131190038758506766e+00
2.011561387981810611e+00
2.011561387981810611e+00
2.011561387981810611e+00
1.816180425428022049e+00
1.816180425428022049e+00
1.818430494094668504e+00
1.818430494094668504e+00
1.834930997650074724e+00
1.834930997650074724e+00
1.848993926816614453e+00
1.848993926816614453e+00
1.758991180150761391e+00
1.758991180150761391e+00
1.827993285927915323e+00
1.827993285927915323e+00
2.251006195257423848e+00
2.251006195257423848e+00
2.760084231086154194e+00
2.760084231086154194e+00
2.760084231086154194e+00
2.992028809472945472e+00
2.992028809472945472e+00
2.889463179418317651e+00
2.889463179418317651e+00
2.568453382976775501e+00
2.568453382976775501e+00
2.533952330088198757e+00
2.533952330088198757e+00
2.496638691366313889e+00
2.496638691366313889e+00
2.360697042756431774e+00
2.360697042756431774e+00
2.262819055757316900e+00
2.262819055757316900e+00
2.390510452589495571e+00
2.390510452589495571e+00
2.256068849757378203e+00
2.256068849757378203e+00
1.975185277871028822e+00
1.975185277871028822e+00
1.975185277871028822e+00
2.033124546037171854e+00
2.033124546037171854e+00
1.949496993926816524e+00
1.949496993926816524e+00
1.838868617816705742e+00
1.838868617816705742e+00
1.935434064760277240e+00
1.935434064760277240e+00
1.876557267983031796e+00
1.876557267983031796e+00
1.981935483870967740e+00
1.981935483870967740e+00
2.208254890591143660e+00
2.208254890591143660e+00
2.288882351145970162e+00
2.288882351145970162e+00
2.288882351145970162e+00
2.343259010589922919e+00
2.343259010589922919e+00
2.427824091311380439e+00
2.427824091311380439e+00
2.432324228644673347e+00
2.432324228644673347e+00
2.376822534867396808e+00
2.376822534867396808e+00
2.090126285592211808e+00
2.090126285592211808e+00
1.898495437482833337e+00
1.898495437482833337e+00
1.931871456038086965e+00
1.931871456038086965e+00
2.323195898312326424e+00
2.323195898312326424e+00
2.549702810754722826e+00
2.549702810754722826e+00
2.549702810754722826e+00
2.524577043977172419e+00
2.524577043977172419e+00
2.500576311532944906e+00
2.500576311532944906e+00
2.614204779198583850e+00
2.614204779198583850e+00
2.305757866145817125e+00
2.305757866145817125e+00
1.967497543259987047e+00
1.967497543259987047e+00
1.735552964873195547e+00
1.735552964873195547e+00
1.438918912320322319e+00
1.438918912320322319e+00
1.601298867763298439e+00
1.601298867763298439e+00
1.974810266426587635e+00
1.974810266426587635e+00
1.953247108371227281e+00
1.953247108371227281e+00
1.953247108371227281e+00
1.827055757316812690e+00
1.827055757316812690e+00
1.937121616260262025e+00
1.937121616260262025e+00
1.756366100039673972e+00
1.756366100039673972e+00
1.471919919431134982e+00
1.471919919431134982e+00
1.581798272652363613e+00
1.581798272652363613e+00
1.836243537705618545e+00
1.836243537705618545e+00
2.067438093203528116e+00
2.067438093203528116e+00
2.323008392590105942e+00
2.323008392590105942e+00
2.323008392590105942e+00
2.403823358867152926e+00
2.403823358867152926e+00
2.722770592364268882e+00
2.722770592364268882e+00
3.180097048860133668e+00
3.180097048860133668e+00
3.699112887966551799e+00
3.699112887966551799e+00
3.817053987243262725e+00
3.817053987243262725e+00
3.366290231025117041e+00
3.366290231025117041e+00
3.006841761528367130e+00
3.006841761528367130e+00
2.562078188421277325e+00
2.562078188421277325e+00
2.399510727256080500e+00
2.399510727256080500e+00
2.399510727256080500e+00
1.957184728537858298e+00
1.957184728537858298e+00
1.636362437818537074e+00
1.636362437818537074e+00
1.731615344706564752e+00
1.731615344706564752e+00
2.057125278481399366e+00
2.057125278481399366e+00
2.182191595202490397e+00
2.182191595202490397e+00
2.212380016479995160e+00
2.212380016479995160e+00
2.343071504867702437e+00
2.343071504867702437e+00
2.260756492812891150e+00
2.260756492812891150e+00
2.260756492812891150e+00
2.198129581591235393e+00
2.198129581591235393e+00
1.535296853541673112e+00
1.535296853541673112e+00
1.084908108767967727e+00
1.084908108767967727e+00
1.366916714987640002e+00
1.366916714987640002e+00
1.409293008209479225e+00
1.409293008209479225e+00
1.555172460097048903e+00
1.555172460097048903e+00
1.707802117984557722e+00
1.707802117984557722e+00
1.790867152928251160e+00
1.790867152928251160e+00
2.510514114810632691e+00
2.510514114810632691e+00
3.187597277748954738e+00
3.187597277748954738e+00
3.211973021637623216e+00
3.211973021637623216e+00
3.032342539750358501e+00
3.032342539750358501e+00
2.838274117252113538e+00
2.838274117252113538e+00
2.838274117252113538e+00
2.421073885311441742e+00
2.421073885311441742e+00
2.439261940366832526e+00
2.439261940366832526e+00
2.394260567033906106e+00
2.394260567033906106e+00
2.429511642811365224e+00
2.429511642811365224e+00
2.869400067140720711e+00
2.869400067140720711e+00
2.957527756584368728e+00
2.957527756584368728e+00
2.926401806695760666e+00
2.926401806695760666e+00
2.675144138920255266e+00
2.675144138920255266e+00
2.296757591479232197e+00
2.296757591479232197e+00
2.296757591479232197e+00
2.085251136814477935e+00
2.085251136814477935e+00
2.202817224646748340e+00
2.202817224646748340e+00
2.208629902035584625e+00
2.208629902035584625e+00
2.244818506424146598e+00
2.244818506424146598e+00
2.303320291756950855e+00
2.303320291756950855e+00
2.289069856868190644e+00
2.289069856868190644e+00
2.201692190313425002e+00
2.201692190313425002e+00
1.903183080538346506e+00
1.903183080538346506e+00
1.631487289040803423e+00
1.631487289040803423e+00
1.631487289040803423e+00
1.584798364207892218e+00
1.584798364207892218e+00
1.710239692373424436e+00
1.710239692373424436e+00
1.720927518539994372e+00
1.720927518539994372e+00
1.766491409039582683e+00
1.766491409039582683e+00
1.877307290871913947e+00
1.877307290871913947e+00
1.891557725760673714e+00
1.891557725760673714e+00
2.053000152592547423e+00
2.053000152592547423e+00
2.197567064424573946e+00
2.197567064424573946e+00
2.197567064424573946e+00
2.431761711478011456e+00
2.431761711478011456e+00
2.764021851252784767e+00
2.764021851252784767e+00
2.820273567918942792e+00
2.820273567918942792e+00
2.915713980529190952e+00
2.915713980529190952e+00
2.812398327585680757e+00
2.812398327585680757e+00
2.668018921475875160e+00
2.668018921475875160e+00
2.388447889645069822e+00
2.388447889645069822e+00
2.140565324869533104e+00
2.140565324869533104e+00
2.200004638813440216e+00
2.200004638813440216e+00
2.200004638813440216e+00
2.041374797814874853e+00
2.041374797814874853e+00
1.455794427320169726e+00
1.455794427320169726e+00
1.349291177098910444e+00
1.349291177098910444e+00
1.658863124485000284e+00
1.658863124485000284e+00
2.047749992370372585e+00
2.047749992370372585e+00
2.030686971648304695e+00
2.030686971648304695e+00
1.866244453260902825e+00
1.866244453260902825e+00
2.359572008423108880e+00
2.359572008423108880e+00
2.969153111362041297e+00
2.969153111362041297e+00
2.969153111362041297e+00
3.485543870357371787e+00
3.485543870357371787e+00
3.461918149357585683e+00
3.461918149357585683e+00
2.859649769585253409e+00
2.859649769585253409e+00
2.318508255256813033e+00
2.318508255256813033e+00
1.940496719260231373e+00
1.940496719260231373e+00
1.980060426648762473e+00
1.980060426648762473e+00
2.089751274147770843e+00
2.089751274147770843e+00
2.179941526535844165e+00
2.179941526535844165e+00
2.274256904812768987e+00
2.274256904812768987e+00
2.274256904812768987e+00
2.251568712424085295e+00
2.251568712424085295e+00
2.087501205481124167e+00
2.087501205481124167e+00
1.916495986816003860e+00
1.916495986816003860e+00
2.418261299478133619e+00
2.418261299478133619e+00
2.702707480086672831e+00
2.702707480086672831e+00
2.893025788140507260e+00
2.893025788140507260e+00
2.804898098696859687e+00
2.804898098696859687e+00
2.585328897976622908e+00
2.585328897976622908e+00
2.554765465254677181e+00
2.554765465254677181e+00
2.554765465254677181e+00
2.177316446424756524e+00
2.177316446424756524e+00
2.090126285592211808e+00
2.090126285592211808e+00
2.153503219702749494e+00
2.153503219702749494e+00
2.143752922147282192e+00
2.143752922147282192e+00
1.973872737815485001e+00
1.973872737815485001e+00
1.883869991149632384e+00
1.883869991149632384e+00
1.911058320871608762e+00
1.911058320871608762e+00
2.234880703146458369e+00
2.234880703146458369e+00
2.234880703146458369e+00
2.353196813867610704e+00
2.353196813867610704e+00
2.218567705313272853e+00
2.218567705313272853e+00
2.018874111148411643e+00
2.018874111148411643e+00
2.226067934202093479e+00
2.226067934202093479e+00
2.446012146366771223e+00
2.446012146366771223e+00
2.391260475478377501e+00
2.391260475478377501e+00
2.336133793145542814e+00
2.336133793145542814e+00
2.324508438367870244e+00
2.324508438367870244e+00
2.240505874813074172e+00
2.240505874813074172e+00
2.240505874813074172e+00
2.166816125980407293e+00
2.166816125980407293e+00
2.036312143314920498e+00
2.036312143314920498e+00
1.722990081484420344e+00
1.722990081484420344e+00
1.614424268318735534e+00
1.614424268318735534e+00
1.960747337260048351e+00
1.960747337260048351e+00
2.148065553758354618e+00
2.148065553758354618e+00
1.939371684926908257e+00
1.939371684926908257e+00
1.952309579760124647e+00
1.952309579760124647e+00
1.809992736594744800e+00
1.809992736594744800e+00
2.012686422315133949e+00
2.012686422315133949e+00
2.012686422315133949e+00
2.403635853144932444e+00
2.403635853144932444e+00
2.722770592364268882e+00
2.722770592364268882e+00
3.134533158360545801e+00
3.134533158360545801e+00
3.169034211249122990e+00
3.169034211249122990e+00
2.948902493362224320e+00
2.948902493362224320e+00
3.060655903805657996e+00
3.060655903805657996e+00
3.068718649861140513e+00
3.068718649861140513e+00
2.900338511307107847e+00
2.900338511307107847e+00
2.900338511307107847e+00
2.524577043977172419e+00
2.524577043977172419e+00
2.096688985869930022e+00
2.096688985869930022e+00
1.928871364482558803e+00
1.928871364482558803e+00
2.128377452925199087e+00
2.128377452925199087e+00
2.356384411145359792e+00
2.356384411145359792e+00
2.133065095980712478e+00
2.133065095980712478e+00
1.954934659871212066e+00
1.954934659871212066e+00
1.887995117038483883e+00
1.887995117038483883e+00
1.912370860927152361e+00
1.912370860927152361e+00
1.912370860927152361e+00
2.284382213812677254e+00
2.284382213812677254e+00
2.601641895809808869e+00
2.601641895809808869e+00
2.446387157811212187e+00
2.446387157811212187e+00
2.370822351756340485e+00
2.370822351756340485e+00
2.200754661702322146e+00
2.200754661702322146e+00
2.083751091036713632e+00
2.083751091036713632e+00
2.031249488814966586e+00
2.031249488814966586e+00
2.030311960203863730e+00
2.030311960203863730e+00
2.030311960203863730e+00
1.858744224372081755e+00
1.858744224372081755e+00
1.857806695760979121e+00
1.857806695760979121e+00
2.019436628315073090e+00
2.019436628315073090e+00
2.195316995757927270e+00
2.195316995757927270e+00
2.508826563310647906e+00
2.508826563310647906e+00
2.912713888973662790e+00
2.912713888973662790e+00
2.971778191473128494e+00
2.971778191473128494e+00
2.487263405255287552e+00
2.487263405255287552e+00
1.998623493148594665e+00
1.998623493148594665e+00
1.998623493148594665e+00
2.136440198980682048e+00
2.136440198980682048e+00
2.653580980864894912e+00
2.653580980864894912e+00
2.655081026642659214e+00
2.655081026642659214e+00
2.336508804589983779e+00
2.336508804589983779e+00
1.753553514206366293e+00
1.753553514206366293e+00
1.541297036652729879e+00
1.541297036652729879e+00
1.820680562761314736e+00
1.820680562761314736e+00
2.086563676870021755e+00
2.086563676870021755e+00
2.556828028199102931e+00
2.556828028199102931e+00
2.556828028199102931e+00
2.804148075807977758e+00
2.804148075807977758e+00
2.652268440809351091e+00
2.652268440809351091e+00
2.501326334421826836e+00
2.501326334421826836e+00
2.725395672475356523e+00
2.725395672475356523e+00
2.924901760917996807e+00
2.924901760917996807e+00
2.605579515976439886e+00
2.605579515976439886e+00
2.029936948759422766e+00
2.029936948759422766e+00
1.817117954039124683e+00
1.817117954039124683e+00
2.284757225257118218e+00
2.284757225257118218e+00
2.284757225257118218e+00
2.324133426923429280e+00
2.324133426923429280e+00
2.090688802758873255e+00
2.090688802758873255e+00
2.357509445478682686e+00
2.357509445478682686e+00
2.133815118869594407e+00
2.133815118869594407e+00
1.546172185430463530e+00
1.546172185430463530e+00
1.317602710043641379e+00
1.317602710043641379e+00
1.400292733542893853e+00
1.400292733542893853e+00
1.901683034760582425e+00
1.901683034760582425e+00
1.901683034760582425e+00
2.398760704367198571e+00
2.398760704367198571e+00
2.914963957640308578e+00
2.914963957640308578e+00
3.191159886471144791e+00
3.191159886471144791e+00
3.368352793969542791e+00
3.368352793969542791e+00
3.139595812860499713e+00
3.139595812860499713e+00
2.980215948973052420e+00
2.980215948973052420e+00
2.747333841975158286e+00
2.747333841975158286e+00
2.457262489700002828e+00
2.457262489700002828e+00
2.389947935422834124e+00
2.389947935422834124e+00
2.488200933866389963e+00
2.488200933866389963e+00
2.488200933866389963e+00
2.362009582811975594e+00
2.362009582811975594e+00
1.856306649983214818e+00
1.856306649983214818e+00
1.678363719595935111e+00
1.678363719595935111e+00
1.887620105594042919e+00
1.887620105594042919e+00
2.122189764091921838e+00
2.122189764091921838e+00
2.061062898648029940e+00
2.061062898648029940e+00
2.116564592425305591e+00
2.116564592425305591e+00
1.912183355204931878e+00
1.912183355204931878e+00
1.648737815485091796e+00
1.648737815485091796e+00
1.648737815485091796e+00
1.638987517929624271e+00
1.638987517929624271e+00
1.660738181707205552e+00
1.660738181707205552e+00
1.972185186315500438e+00
1.972185186315500438e+00
2.595829218420972584e+00
2.595829218420972584e+00
3.028779931028168892e+00
3.028779931028168892e+00
3.130970549638355749e+00
3.130970549638355749e+00
2.926401806695760666e+00
2.926401806695760666e+00
2.633142857142857007e+00
2.633142857142857007e+00
2.633142857142857007e+00
2.650018372142704415e+00
2.650018372142704415e+00
2.723333109530930773e+00
2.723333109530930773e+00
2.878400341807306528e+00
2.878400341807306528e+00
2.848024414807580840e+00
2.848024414807580840e+00
2.565453291421246895e+00
2.565453291421246895e+00
2.278194524979400004e+00
2.278194524979400004e+00
2.122002258369701355e+00
2.122002258369701355e+00
1.764803857539597898e+00
1.764803857539597898e+00
1.449044221320230807e+00
1.449044221320230807e+00
1.449044221320230807e+00
1.438731406598101836e+00
1.438731406598101836e+00
1.920808618427076064e+00
1.920808618427076064e+00
2.327321024201178368e+00
2.327321024201178368e+00
2.299945188756981285e+00
2.299945188756981285e+00
2.343634022034363884e+00
2.343634022034363884e+00
2.495701162755211033e+00
2.495701162755211033e+00
2.421823908200323228e+00
2.421823908200323228e+00
2.404385876033814373e+00
2.404385876033814373e+00
2.404385876033814373e+00
2.402510818811609106e+00
2.402510818811609106e+00
2.214067567979979945e+00
2.214067567979979945e+00
2.263944090090640238e+00
2.263944090090640238e+00
2.500201300088503942e+00
2.500201300088503942e+00
2.665018829920346999e+00
2.665018829920346999e+00
2.507514023255104085e+00
2.507514023255104085e+00
2.349259193700979687e+00
2.349259193700979687e+00
2.453137363811151772e+00
2.453137363811151772e+00
2.786897549363688942e+00
2.786897549363688942e+00
2.786897549363688942e+00
2.641205603198339968e+00
2.641205603198339968e+00
2.392573015533921321e+00
2.392573015533921321e+00
2.218942716757713818e+00
2.218942716757713818e+00
2.165128574480422063e+00
2.165128574480422063e+00
2.313633106479079604e+00
2.313633106479079604e+00
2.227380474257637299e+00
2.227380474257637299e+00
1.934684041871395088e+00
1.934684041871395088e+00
1.902808069093905319e+00
1.902808069093905319e+00
1.970497634815515653e+00
1.970497634815515653e+00
1.970497634815515653e+00
2.100439100314340557e+00
2.100439100314340557e+00
2.022624225592822178e+00
2.022624225592822178e+00
2.022624225592822178e+00
2.022624225592822178e+00
2.045687429425947279e+00
2.045687429425947279e+00
2.230193060090945423e+00
2.230193060090945423e+00
2.219317728202154782e+00
2.219317728202154782e+00
2.404385876033814373e+00
2.404385876033814373e+00
2.669518967253639019e+00
2.669518967253639019e+00
2.610829676198614280e+00
2.610829676198614280e+00
2.610829676198614280e+00
2.435886837366862956e+00
2.435886837366862956e+00
2.344009033478804849e+00
2.344009033478804849e+00
2.234505691702016961e+00
2.234505691702016961e+00
2.244255989257484707e+00
2.244255989257484707e+00
2.108501846369823074e+00
2.108501846369823074e+00
2.021686696981719766e+00
2.021686696981719766e+00
2.047187475203710694e+00
2.047187475203710694e+00
2.125752372814111890e+00
2.125752372814111890e+00
2.484263313699758946e+00
2.484263313699758946e+00
2.484263313699758946e+00
2.763084322641681911e+00
2.763084322641681911e+00
2.770397045808282943e+00
2.770397045808282943e+00
2.685831965086825424e+00
2.685831965086825424e+00
2.595454206976531619e+00
2.595454206976531619e+00
2.578016174810022321e+00
2.578016174810022321e+00
2.334633747367778511e+00
2.334633747367778511e+00
2.286819788201544412e+00
2.286819788201544412e+00
2.460637592699972398e+00
2.460637592699972398e+00
2.350196722312082542e+00
2.350196722312082542e+00
2.235818231757560781e+00
2.235818231757560781e+00
2.235818231757560781e+00
2.213130039368877089e+00
2.213130039368877089e+00
2.034062074648274265e+00
2.034062074648274265e+00
1.942559282204657345e+00
1.942559282204657345e+00
2.116939603869747000e+00
2.116939603869747000e+00
2.398573198644978088e+00
2.398573198644978088e+00
2.507889034699545494e+00
2.507889034699545494e+00
2.580828760643330444e+00
2.580828760643330444e+00
2.573141026032288892e+00
2.573141026032288892e+00
2.523452009643849081e+00
2.523452009643849081e+00
2.572203497421186036e+00
2.572203497421186036e+00
2.572203497421186036e+00
2.556078005310220558e+00
2.556078005310220558e+00
2.397260658589434712e+00
2.397260658589434712e+00
2.280444593646046680e+00
2.280444593646046680e+00
2.148628070925016065e+00
2.148628070925016065e+00
2.027686880092776089e+00
2.027686880092776089e+00
2.129502487258521981e+00
2.129502487258521981e+00
2.323758415478988315e+00
2.323758415478988315e+00
2.352071779534287366e+00
2.352071779534287366e+00
2.266756675923947917e+00
2.266756675923947917e+00
2.235068208868678852e+00
2.235068208868678852e+00
2.235068208868678852e+00
2.234880703146458369e+00
2.234880703146458369e+00
2.177878963591417971e+00
2.177878963591417971e+00
2.216317636646626177e+00
2.216317636646626177e+00
2.224005371257667729e+00
2.224005371257667729e+00
2.108126834925382109e+00
2.108126834925382109e+00
2.091063814203314664e+00
2.091063814203314664e+00
1.977060335093234089e+00
1.977060335093234089e+00
2.084688619647816488e+00
2.084688619647816488e+00
2.084688619647816488e+00
2.293382488479262626e+00
2.293382488479262626e+00
2.496263679921872480e+00
2.496263679921872480e+00
2.585703909421063873e+00
2.585703909421063873e+00
2.500201300088503942e+00
2.500201300088503942e+00
2.700644917142247081e+00
2.700644917142247081e+00
2.577266151921139947e+00
2.577266151921139947e+00
2.406448438978240567e+00
2.406448438978240567e+00
2.324695944090090727e+00
2.324695944090090727e+00
2.401198278756065729e+00
2.401198278756065729e+00
2.401198278756065729e+00
2.464575212866603859e+00
2.464575212866603859e+00
2.694457228308969388e+00
2.694457228308969388e+00
2.405698416089358194e+00
2.405698416089358194e+00
2.059750358592486119e+00
2.059750358592486119e+00
2.008561296426282894e+00
2.008561296426282894e+00
2.010623859370708644e+00
2.010623859370708644e+00
2.089938779869991325e+00
2.089938779869991325e+00
2.295632557145908859e+00
2.295632557145908859e+00
2.295632557145908859e+00
2.273319376201666131e+00
2.273319376201666131e+00
2.329758598590044638e+00
2.329758598590044638e+00
2.399323221533860018e+00
2.399323221533860018e+00
2.406073427533799602e+00
2.406073427533799602e+00
2.355071871089815971e+00
2.355071871089815971e+00
2.437199377422406776e+00
2.437199377422406776e+00
2.513326700643940814e+00
2.513326700643940814e+00
2.593204138309884943e+00
2.593204138309884943e+00
2.529077181310464884e+00
2.529077181310464884e+00
2.301445234534745587e+00
2.301445234534745587e+00
2.301445234534745587e+00
2.095751457258827610e+00
2.095751457258827610e+00
1.996373424481948211e+00
1.996373424481948211e+00
1.988873195593127363e+00
1.988873195593127363e+00
1.995998413037507468e+00
1.995998413037507468e+00
2.176753929258095077e+00
2.176753929258095077e+00
2.444324594866786882e+00
2.444324594866786882e+00
2.709457686086611528e+00
2.709457686086611528e+00
2.729520798364208023e+00
2.729520798364208023e+00
2.729520798364208023e+00
2.632205328531754596e+00
2.632205328531754596e+00
2.771709585863826764e+00
2.771709585863826764e+00
2.743771233252967789e+00
2.743771233252967789e+00
2.600141850032044566e+00
2.600141850032044566e+00
2.383572740867336393e+00
2.383572740867336393e+00
2.120314706869716570e+00
2.120314706869716570e+00
1.859119235816522719e+00
1.859119235816522719e+00
1.862306833094271585e+00
1.862306833094271585e+00
2.008748802148503376e+00
2.008748802148503376e+00
2.008748802148503376e+00
1.984185552537614194e+00
1.984185552537614194e+00
2.027311868648335125e+00
2.027311868648335125e+00
2.101564134647663895e+00
2.101564134647663895e+00
2.224005371257667729e+00
2.224005371257667729e+00
2.339696401867732423e+00
2.339696401867732423e+00
2.376822534867396808e+00
2.376822534867396808e+00
2.602391918698690798e+00
2.602391918698690798e+00
2.576328623310037536e+00
2.576328623310037536e+00
2.576328623310037536e+00
2.527389629810480098e+00
2.527389629810480098e+00
2.492138554033020981e+00
2.492138554033020981e+00
2.308007934812463802e+00
2.308007934812463802e+00
2.228318002868740155e+00
2.228318002868740155e+00
2.369322305978576182e+00
2.369322305978576182e+00
2.629767754142887881e+00
2.629767754142887881e+00
2.770397045808282943e+00
2.770397045808282943e+00
2.672331553086947142e+00
2.672331553086947142e+00
2.480325693533127485e+00
2.480325693533127485e+00
2.349446699423200169e+00
2.349446699423200169e+00
2.349446699423200169e+00
2.439636951811273491e+00
2.439636951811273491e+00
2.545390179143650844e+00
2.545390179143650844e+00
2.517639332255012796e+00
2.517639332255012796e+00
2.317195715201269657e+00
2.317195715201269657e+00
1.975372783593249304e+00
1.975372783593249304e+00
2.014748985259559699e+00
2.014748985259559699e+00
2.137752739036225869e+00
2.137752739036225869e+00
2.249506149479659545e+00
2.249506149479659545e+00
2.348509170812097757e+00
2.348509170812097757e+00
2.383947752311777357e+00
2.383947752311777357e+00
2.442637043366802097e+00
2.442637043366802097e+00
2.442637043366802097e+00
2.539577501754814115e+00
2.539577501754814115e+00
2.588891506698812961e+00
2.588891506698812961e+00
2.487638416699728516e+00
2.487638416699728516e+00
2.366697225867488541e+00
2.366697225867488541e+00
2.412073610644855925e+00
2.412073610644855925e+00
2.189504318369090985e+00
2.189504318369090985e+00
2.056937772759178884e+00
2.056937772759178884e+00
2.090876308481094181e+00
2.090876308481094181e+00
2.090876308481094181e+00
2.134190130314035372e+00
2.134190130314035372e+00
2.094251411481063307e+00
2.094251411481063307e+00
2.110189397869807859e+00
2.110189397869807859e+00
2.086188665425580790e+00
2.086188665425580790e+00
2.097063997314370987e+00
2.097063997314370987e+00
2.168316171758171151e+00
2.168316171758171151e+00
2.385260292367321178e+00
2.385260292367321178e+00
2.356009399700918827e+00
2.356009399700918827e+00
2.356009399700918827e+00
2.241630909146397510e+00
2.241630909146397510e+00
2.338571367534409973e+00
2.338571367534409973e+00
2.330321115756706529e+00
2.330321115756706529e+00
2.320008301034577336e+00
2.320008301034577336e+00
2.254006286812952009e+00
2.254006286812952009e+00
2.207129856257820322e+00
2.207129856257820322e+00
2.445074617755668811e+00
2.445074617755668811e+00
2.565828302865687860e+00
2.565828302865687860e+00
2.566390820032349751e+00
2.566390820032349751e+00
2.566390820032349751e+00
2.523452009643849081e+00
2.523452009643849081e+00
2.392198004089480357e+00
2.392198004089480357e+00
2.544827661976988953e+00
2.544827661976988953e+00
2.763271828363902394e+00
2.763271828363902394e+00
2.687519516586810209e+00
2.687519516586810209e+00
2.471325418866542556e+00
2.471325418866542556e+00
2.446199652088991705e+00
2.446199652088991705e+00
2.281007110812707683e+00
2.281007110812707683e+00
2.281007110812707683e+00
2.093501388592180934e+00
2.093501388592180934e+00
1.985873104037598758e+00
1.985873104037598758e+00
1.923433698538163483e+00
1.923433698538163483e+00
1.983810541093173230e+00
1.983810541093173230e+00
2.044187383648182976e+00
2.044187383648182976e+00
2.108501846369823074e+00
2.108501846369823074e+00
2.297507614368114126e+00
2.297507614368114126e+00
2.452387340922269399e+00
2.452387340922269399e+00
2.621892513809625402e+00
2.621892513809625402e+00
2.757271645252846071e+00
2.757271645252846071e+00
2.757271645252846071e+00
2.677956724753563389e+00
2.677956724753563389e+00
2.519514389477218064e+00
2.519514389477218064e+00
2.434574297311319135e+00
2.434574297311319135e+00
2.211254982146671821e+00
2.211254982146671821e+00
2.101939146092104860e+00
2.101939146092104860e+00
2.037249671926022909e+00
2.037249671926022909e+00
1.932808984649189599e+00
1.932808984649189599e+00
1.959997314371166199e+00
1.959997314371166199e+00
1.959997314371166199e+00
2.094626422925504272e+00
2.094626422925504272e+00
2.187441755424664791e+00
2.187441755424664791e+00
2.420511368144779851e+00
2.420511368144779851e+00
2.586641438032166285e+00
2.586641438032166285e+00
2.515201757866145638e+00
2.515201757866145638e+00
2.530764732810449669e+00
2.530764732810449669e+00
2.639330545976134701e+00
2.639330545976134701e+00
2.519514389477218064e+00
2.519514389477218064e+00
2.452574846644489881e+00
2.452574846644489881e+00
2.452574846644489881e+00
2.349071687978759204e+00
2.349071687978759204e+00
2.280444593646046680e+00
2.280444593646046680e+00
2.278194524979400004e+00
2.278194524979400004e+00
2.165691091647083955e+00
2.165691091647083955e+00
2.263569078646198829e+00
2.263569078646198829e+00
2.393698049867244659e+00
2.393698049867244659e+00
2.416948759422589799e+00
2.416948759422589799e+00
2.514639240699484635e+00
2.514639240699484635e+00
2.561890682699057287e+00
2.561890682699057287e+00
2.561890682699057287e+00
2.548015259254738041e+00
2.548015259254738041e+00
2.436261848811303921e+00
2.436261848811303921e+00
2.372697408978545752e+00
2.372697408978545752e+00
2.332008667256691314e+00
2.332008667256691314e+00
2.314945646534623425e+00
2.314945646534623425e+00
2.255881344035157721e+00
2.255881344035157721e+00
2.284757225257118218e+00
2.284757225257118218e+00
2.251568712424085295e+00
2.251568712424085295e+00
2.251568712424085295e+00
2.235255714590899334e+00
2.235255714590899334e+00
2.241818414868617992e+00
2.241818414868617992e+00
2.238443311868648422e+00
2.238443311868648422e+00
2.278194524979400004e+00
2.278194524979400004e+00
2.291694936979278285e+00
2.291694936979278285e+00
2.225130405590991067e+00
2.225130405590991067e+00
2.199442121646778769e+00
2.199442121646778769e+00
2.230193060090945423e+00
2.230193060090945423e+00
2.265069124423963132e+00
2.265069124423963132e+00
2.265069124423963132e+00
2.440949491866817311e+00
2.440949491866817311e+00
2.452574846644489881e+00
2.452574846644489881e+00
2.360322031311990809e+00
2.360322031311990809e+00
2.217630176702169997e+00
2.217630176702169997e+00
1.984935575426496124e+00
1.984935575426496124e+00
2.024499282815027001e+00
2.024499282815027001e+00
2.208817407757805107e+00
2.208817407757805107e+00
2.214255073702200427e+00
2.214255073702200427e+00
2.214255073702200427e+00
2.141127842036194995e+00
2.141127842036194995e+00
2.261694021423993561e+00
2.261694021423993561e+00
2.309132969145787140e+00
2.309132969145787140e+00
2.343071504867702437e+00
2.343071504867702437e+00
2.338758873256630455e+00
2.338758873256630455e+00
2.444324594866786882e+00
2.444324594866786882e+00
2.642893154698324754e+00
2.642893154698324754e+00
2.808085695974608775e+00
2.808085695974608775e+00
2.816523453474532257e+00
2.816523453474532257e+00
2.816523453474532257e+00
2.555890499588000075e+00
2.555890499588000075e+00
2.427261574144718992e+00
2.427261574144718992e+00
2.372884914700766235e+00
2.372884914700766235e+00
2.337258827478866152e+00
2.337258827478866152e+00
2.296195074312570750e+00
2.296195074312570750e+00
2.302382763145847999e+00
2.302382763145847999e+00
2.321508346812341639e+00
2.321508346812341639e+00
2.328258552812280335e+00
2.328258552812280335e+00
2.328258552812280335e+00
2.365009674367503756e+00
2.365009674367503756e+00
2.306695394756919981e+00
2.306695394756919981e+00
2.283257179479354360e+00
2.283257179479354360e+00
2.302007751701407035e+00
2.302007751701407035e+00
2.216130130924405695e+00
2.216130130924405695e+00
2.224192876979888212e+00
2.224192876979888212e+00
2.258693929868464956e+00
2.258693929868464956e+00
2.301257728812525105e+00
2.301257728812525105e+00
2.336508804589983779e+00
2.336508804589983779e+00
2.317008209479048730e+00
2.317008209479048730e+00
2.309882992034669069e+00
2.309882992034669069e+00
2.309882992034669069e+00
2.301070223090304623e+00
2.301070223090304623e+00
2.248193609424115724e+00
2.248193609424115724e+00
2.328071047090059853e+00
2.328071047090059853e+00
2.401198278756065729e+00
2.401198278756065729e+00
2.382447706534013054e+00
2.382447706534013054e+00
2.349634205145421095e+00
2.349634205145421095e+00
2.369134800256355700e+00
2.369134800256355700e+00
2.270506790368358452e+00
2.270506790368358452e+00
2.218380199591051927e+00
2.218380199591051927e+00
2.218380199591051927e+00
2.216692648091067142e+00
2.216692648091067142e+00
2.287194799645985377e+00
2.287194799645985377e+00
2.388822901089510786e+00
2.388822901089510786e+00
2.330321115756706529e+00
2.330321115756706529e+00
2.238630817590868904e+00
2.238630817590868904e+00
2.279319559312723342e+00
2.279319559312723342e+00
2.270881801812799416e+00
2.270881801812799416e+00
2.308757957701345731e+00
2.308757957701345731e+00
2.359947019867549844e+00
2.359947019867549844e+00
2.359947019867549844e+00
2.338758873256630455e+00
2.338758873256630455e+00
2.334258735923337547e+00
2.334258735923337547e+00
2.251193700979644330e+00
2.251193700979644330e+00
2.257006378368480615e+00
2.257006378368480615e+00
2.280257087923826198e+00
2.280257087923826198e+00
2.251193700979644330e+00
2.251193700979644330e+00
2.349446699423200169e+00
2.349446699423200169e+00
2.363322122867518971e+00
2.363322122867518971e+00
2.308570451979125249e+00
2.308570451979125249e+00
2.384510269478438804e+00
2.384510269478438804e+00
2.384510269478438804e+00
2.400073244422742391e+00
2.400073244422742391e+00
2.377197546311838217e+00
2.377197546311838217e+00
2.436074343089083438e+00
2.436074343089083438e+00
2.435324320200201509e+00
2.435324320200201509e+00
2.378322580645161111e+00
2.378322580645161111e+00
2.352821802423169739e+00
2.352821802423169739e+00
2.234505691702016961e+00
2.234505691702016961e+00
2.217630176702169997e+00
2.217630176702169997e+00
2.263756584368419311e+00
2.263756584368419311e+00
2.263756584368419311e+00
2.251006195257423848e+00
2.251006195257423848e+00
2.268069215979491737e+00
2.268069215979491737e+00
2.337821344645527599e+00
2.337821344645527599e+00
2.400635761589403838e+00
2.400635761589403838e+00
2.460637592699972398e+00
2.460637592699972398e+00
2.303882808923612302e+00
2.303882808923612302e+00
2.223630359813226764e+00
2.223630359813226764e+00
2.321133335367900674e+00
2.321133335367900674e+00
2.321133335367900674e+00
2.399885738700521909e+00
2.399885738700521909e+00
2.436261848811303921e+00
2.436261848811303921e+00
2.378697592089602519e+00
2.378697592089602519e+00
2.228693014313181120e+00
2.228693014313181120e+00
2.206379833368938392e+00
2.206379833368938392e+00
2.065750541703543330e+00
2.065750541703543330e+00
2.126877407147435228e+00
2.126877407147435228e+00
2.256631366924039650e+00
2.256631366924039650e+00
2.256631366924039650e+00
2.381322672200689716e+00
2.381322672200689716e+00
2.444699606311227846e+00
2.444699606311227846e+00
2.473200476088747823e+00
2.473200476088747823e+00
2.463075167088839557e+00
2.463075167088839557e+00
2.422386425366985119e+00
2.422386425366985119e+00
2.385635303811762142e+00
2.385635303811762142e+00
2.287569811090426342e+00
2.287569811090426342e+00
2.314570635090182460e+00
2.314570635090182460e+00
2.314570635090182460e+00
2.363322122867518971e+00
2.363322122867518971e+00
2.353759331034272151e+00
2.353759331034272151e+00
2.409261024811548246e+00
2.409261024811548246e+00
2.366884731589709023e+00
2.366884731589709023e+00
2.284944730979339145e+00
2.284944730979339145e+00
2.311195532090212890e+00
2.311195532090212890e+00
2.302007751701407035e+00
2.302007751701407035e+00
2.320758323923459709e+00
2.320758323923459709e+00
2.332758690145573244e+00
2.332758690145573244e+00
2.332758690145573244e+00
2.344384044923245813e+00
2.344384044923245813e+00
2.382072695089572090e+00
2.382072695089572090e+00
2.363509628589739453e+00
2.363509628589739453e+00
2.344196539201025331e+00
2.344196539201025331e+00
2.426324045533616136e+00
2.426324045533616136e+00
2.371572374645222414e+00
2.371572374645222414e+00
2.267881710257271255e+00
2.267881710257271255e+00
2.184066652424695665e+00
2.184066652424695665e+00
2.152003173924985191e+00
2.152003173924985191e+00
2.152003173924985191e+00
2.225692922757652514e+00
2.225692922757652514e+00
2.286632282479323930e+00
2.286632282479323930e+00
2.302195257423627517e+00
2.302195257423627517e+00
2.343071504867702437e+00
2.343071504867702437e+00
2.333321207312235135e+00
2.333321207312235135e+00
2.334071230201117064e+00
2.334071230201117064e+00
2.436449354533524403e+00
2.436449354533524403e+00
2.501701345866268245e+00
2.501701345866268245e+00
2.443574571977904952e+00
2.443574571977904952e+00
2.443574571977904952e+00
2.457074983977782345e+00
2.457074983977782345e+00
2.377385052034058699e+00
2.377385052034058699e+00
2.308007934812463802e+00
2.308007934812463802e+00
2.242755943479720404e+00
2.242755943479720404e+00
2.119002166814172750e+00
2.119002166814172750e+00
2.118814661091952267e+00
2.118814661091952267e+00
2.110939420758690233e+00
2.110939420758690233e+00
2.087501205481124167e+00
2.087501205481124167e+00
2.087501205481124167e+00
2.194191961424603932e+00
2.194191961424603932e+00
2.314008117923521013e+00
2.314008117923521013e+00
2.451824823755607952e+00
2.451824823755607952e+00
2.542015076143681274e+00
2.542015076143681274e+00
2.499451277199621568e+00
2.499451277199621568e+00
2.444324594866786882e+00
2.444324594866786882e+00
2.392198004089480357e+00
2.392198004089480357e+00
2.295070039979247412e+00
2.295070039979247412e+00
2.295070039979247412e+00
2.299757683034760802e+00
2.299757683034760802e+00
2.269006744590594149e+00
2.269006744590594149e+00
2.228693014313181120e+00
2.228693014313181120e+00
2.264694112979522167e+00
2.264694112979522167e+00
2.275006927701650916e+00
2.275006927701650916e+00
2.295257545701467894e+00
2.295257545701467894e+00
2.353571825312051669e+00
2.353571825312051669e+00
2.374197454756310055e+00
2.374197454756310055e+00
2.447137180700094561e+00
2.447137180700094561e+00
2.431574205755790974e+00
2.431574205755790974e+00
2.431574205755790974e+00
2.371759880367442896e+00
2.371759880367442896e+00
2.369509811700796664e+00
2.369509811700796664e+00
2.242005920590838475e+00
2.242005920590838475e+00
2.129127475814081016e+00
2.129127475814081016e+00
2.128752464369640052e+00
2.128752464369640052e+00
2.140002807702871657e+00
2.140002807702871657e+00
2.201317178868984037e+00
2.201317178868984037e+00
2.260006469924008776e+00
2.260006469924008776e+00
2.260006469924008776e+00
2.288507339701529197e+00
2.288507339701529197e+00
2.379072603534043484e+00
2.379072603534043484e+00
2.462887661366619074e+00
2.462887661366619074e+00
2.527389629810480098e+00
2.527389629810480098e+00
2.575953611865596571e+00
2.575953611865596571e+00
2.512576677755058441e+00
2.512576677755058441e+00
2.432886745811334794e+00
2.432886745811334794e+00
2.403823358867152926e+00
2.403823358867152926e+00
2.320570818201239227e+00
2.320570818201239227e+00
2.320570818201239227e+00
2.306320383312479017e+00
2.306320383312479017e+00
2.322070863979003530e+00
2.322070863979003530e+00
2.305757866145817125e+00
2.305757866145817125e+00
2.255881344035157721e+00
2.255881344035157721e+00
2.236943266090884119e+00
2.236943266090884119e+00
2.269381756035035114e+00
2.269381756035035114e+00
2.294507522812585520e+00
2.294507522812585520e+00
2.328446058534500818e+00
2.328446058534500818e+00
2.355071871089815971e+00
2.355071871089815971e+00
2.355071871089815971e+00
2.405135898922696747e+00
2.405135898922696747e+00
2.378885097811823002e+00
2.378885097811823002e+00
2.422386425366985119e+00
2.422386425366985119e+00
2.451449812311166987e+00
2.451449812311166987e+00
2.357696951200903612e+00
2.357696951200903612e+00
2.291882442701498768e+00
2.291882442701498768e+00
2.213692556535538980e+00
2.213692556535538980e+00
2.146565507980590315e+00
2.146565507980590315e+00
2.146565507980590315e+00
2.179379009369182274e+00
2.179379009369182274e+00
2.211442487868892304e+00
2.211442487868892304e+00
2.259256447035126847e+00
2.259256447035126847e+00
2.318695760979033516e+00
2.318695760979033516e+00
2.323195898312326424e+00
2.323195898312326424e+00
2.371384868923001932e+00
2.371384868923001932e+00
2.406448438978240567e+00
2.406448438978240567e+00
2.367259743034150432e+00
2.367259743034150432e+00
2.367259743034150432e+00
2.416573747978148834e+00
2.416573747978148834e+00
2.391447981200597983e+00
2.391447981200597983e+00
2.297132602923673161e+00
2.297132602923673161e+00
2.267694204535050773e+00
2.267694204535050773e+00
2.232630634479812137e+00
2.232630634479812137e+00
2.213880062257759462e+00
2.213880062257759462e+00
2.233193151646474028e+00
2.233193151646474028e+00
2.245756035035248566e+00
2.245756035035248566e+00
2.297882625812555535e+00
2.297882625812555535e+00
2.337258827478866152e+00
2.337258827478866152e+00
2.337258827478866152e+00
2.316258186590166801e+00
2.316258186590166801e+00
2.342696493423261028e+00
2.342696493423261028e+00
2.295632557145908859e+00
2.295632557145908859e+00
2.250443678090761956e+00
2.250443678090761956e+00
2.339696401867732423e+00
2.339696401867732423e+00
2.340071413312173831e+00
2.340071413312173831e+00
2.333696218756676100e+00
2.333696218756676100e+00
2.342883999145481511e+00
2.342883999145481511e+00
2.342883999145481511e+00
2.316258186590166801e+00
2.316258186590166801e+00
2.335008758812219920e+00
2.335008758812219920e+00
2.374384960478530537e+00
2.374384960478530537e+00
2.418073793755913137e+00
2.418073793755913137e+00
2.487638416699728516e+00
2.487638416699728516e+00
2.467200292977691056e+00
2.467200292977691056e+00
2.345321573534348669e+00
2.345321573534348669e+00
2.324695944090090727e+00
2.324695944090090727e+00
2.322258369701224012e+00
2.322258369701224012e+00
2.322258369701224012e+00
2.329571092867824156e+00
2.329571092867824156e+00
2.368572283089693808e+00
2.368572283089693808e+00
2.284569719534897736e+00
2.284569719534897736e+00
2.251943723868526259e+00
2.251943723868526259e+00
2.203192236091189304e+00
2.203192236091189304e+00
2.131752555925168657e+00
2.131752555925168657e+00
2.147690542313913653e+00
2.147690542313913653e+00
2.167003631702627775e+00
2.167003631702627775e+00
2.209567430646687480e+00
2.209567430646687480e+00
2.279132053590502860e+00
2.279132053590502860e+00
2.279132053590502860e+00
2.317383220923490139e+00
2.317383220923490139e+00
2.380385143589587305e+00
2.380385143589587305e+00
2.414886196478164049e+00
2.414886196478164049e+00
2.398573198644978088e+00
2.398573198644978088e+00
2.436449354533524403e+00
2.436449354533524403e+00
2.455762443922238969e+00
2.455762443922238969e+00
2.361822077089755112e+00
2.361822077089755112e+00
2.320758323923459709e+00
2.320758323923459709e+00
2.245756035035248566e+00
2.245756035035248566e+00
2.216692648091067142e+00
2.216692648091067142e+00
2.266756675923947917e+00
2.266756675923947917e+00
2.266756675923947917e+00
2.285694753868221074e+00
2.285694753868221074e+00
2.325070955534531691e+00
2.325070955534531691e+00
2.355821893978697901e+00
2.355821893978697901e+00
2.343259010589922919e+00
2.343259010589922919e+00
2.411698599200414961e+00
2.411698599200414961e+00
2.425011505478072316e+00
2.425011505478072316e+00
2.389197912533951751e+00
2.389197912533951751e+00
2.438136906033509188e+00
2.438136906033509188e+00
2.438136906033509188e+00
2.383385235145115466e+00
2.383385235145115466e+00
2.289257362590411127e+00
2.289257362590411127e+00
2.255881344035157721e+00
2.255881344035157721e+00
2.206379833368938392e+00
2.206379833368938392e+00
2.188004272591326682e+00
2.188004272591326682e+00
2.207504867702261730e+00
2.207504867702261730e+00
2.201129673146763555e+00
2.201129673146763555e+00
2.260568987090670667e+00
2.260568987090670667e+00
2.260568987090670667e+00
2.318883266701254442e+00
2.318883266701254442e+00
2.347571642200994901e+00
2.347571642200994901e+00
2.400448255867183356e+00
2.400448255867183356e+00
2.395385601367229444e+00
2.395385601367229444e+00
2.357134434034241721e+00
2.357134434034241721e+00
2.398010681478316641e+00
2.398010681478316641e+00
2.340446424756614796e+00
2.340446424756614796e+00
2.273694387646107540e+00
2.273694387646107540e+00
2.273694387646107540e+00
2.245568529313028083e+00
2.245568529313028083e+00
2.194754478591265823e+00
2.194754478591265823e+00
2.202442213202307375e+00
2.202442213202307375e+00
2.223817865535447247e+00
2.223817865535447247e+00
2.251568712424085295e+00
2.251568712424085295e+00
2.309882992034669069e+00
2.309882992034669069e+00
2.344196539201025331e+00
2.344196539201025331e+00
2.372884914700766235e+00
2.372884914700766235e+00
2.372884914700766235e+00
2.429136631366924259e+00
2.429136631366924259e+00
2.398010681478316641e+00
2.398010681478316641e+00
2.396510635700552783e+00
2.396510635700552783e+00
2.422011413922543710e+00
2.422011413922543710e+00
2.326195989867855030e+00
2.326195989867855030e+00
2.267881710257271255e+00
2.267881710257271255e+00
2.230380565813165905e+00
2.230380565813165905e+00
2.196817041535691573e+00
2.196817041535691573e+00
2.185191686758019003e+00
2.185191686758019003e+00
2.205067293313394572e+00
2.205067293313394572e+00
2.254193792535172935e+00
2.254193792535172935e+00
2.254193792535172935e+00
2.314383129367961978e+00
2.314383129367961978e+00
2.330133610034486047e+00
2.330133610034486047e+00
2.377385052034058699e+00
2.377385052034058699e+00
2.409636036255989211e+00
2.409636036255989211e+00
2.375134983367412023e+00
2.375134983367412023e+00
2.409261024811548246e+00
2.409261024811548246e+00
2.394073061311685624e+00
2.394073061311685624e+00
2.295632557145908859e+00
2.295632557145908859e+00
2.295632557145908859e+00
2.264506607257301685e+00
2.264506607257301685e+00
2.221567796868801015e+00
2.221567796868801015e+00
2.207692373424482213e+00
2.207692373424482213e+00
2.250068666646320992e+00
2.250068666646320992e+00
2.263006561479537382e+00
2.263006561479537382e+00
2.296195074312570750e+00
2.296195074312570750e+00
2.348884182256538722e+00
2.348884182256538722e+00
2.369509811700796664e+00
2.369509811700796664e+00
2.420323862422559369e+00
2.420323862422559369e+00
2.420323862422559369e+00
2.410761070589312105e+00
2.410761070589312105e+00
2.365197180089724238e+00
2.365197180089724238e+00
2.395948118533890892e+00
2.395948118533890892e+00
2.328821069978942226e+00
2.328821069978942226e+00
2.253443769646290562e+00
2.253443769646290562e+00
2.242193426313058957e+00
2.242193426313058957e+00
2.201317178868984037e+00
2.201317178868984037e+00
2.209192419202246516e+00
2.209192419202246516e+00
2.241818414868617992e+00
2.241818414868617992e+00
2.241818414868617992e+00
2.248006103701895242e+00
2.248006103701895242e+00
2.317195715201269657e+00
2.317195715201269657e+00
2.350946745200964472e+00
2.350946745200964472e+00
2.364822168645283273e+00
2.364822168645283273e+00
2.419761345255897922e+00
2.419761345255897922e+00
2.383947752311777357e+00
2.383947752311777357e+00
2.352446790978728330e+00
2.352446790978728330e+00
2.399135715811639535e+00
2.399135715811639535e+00
2.313820612201300086e+00
2.313820612201300086e+00
2.267131687368389326e+00
2.267131687368389326e+00
2.267131687368389326e+00
2.233193151646474028e+00
2.233193151646474028e+00
2.185004181035798521e+00
2.185004181035798521e+00
2.202629718924527857e+00
2.202629718924527857e+00
2.240318369090853690e+00
2.240318369090853690e+00
2.261881527146214044e+00
2.261881527146214044e+00
2.319633289590136371e+00
2.319633289590136371e+00
2.346821619312112972e+00
2.346821619312112972e+00
2.377385052034058699e+00
2.377385052034058699e+00
2.414323679311502602e+00
2.414323679311502602e+00
2.384135258033997840e+00
2.384135258033997840e+00
2.384135258033997840e+00
2.379260109256263966e+00
2.379260109256263966e+00
2.384135258033997840e+00
2.384135258033997840e+00
2.287382305368205859e+00
2.287382305368205859e+00
2.254756309701834383e+00
2.254756309701834383e+00
2.216317636646626177e+00
2.216317636646626177e+00
2.185941709646900932e+00
2.185941709646900932e+00
2.227192968535416817e+00
2.227192968535416817e+00
2.242005920590838475e+00
2.242005920590838475e+00
2.242005920590838475e+00
2.287757316812646824e+00
2.287757316812646824e+00
2.362572099978637485e+00
2.362572099978637485e+00
2.380197637867366822e+00
2.380197637867366822e+00
2.415073702200384531e+00
2.415073702200384531e+00
2.423136448255867048e+00
2.423136448255867048e+00
2.379635120700704931e+00
2.379635120700704931e+00
2.405323404644917229e+00
2.405323404644917229e+00
2.364259651478621826e+00
2.364259651478621826e+00
2.364259651478621826e+00
2.272756859035004684e+00
2.272756859035004684e+00
2.245006012146367080e+00
2.245006012146367080e+00
2.193066927091281038e+00
2.193066927091281038e+00
2.182004089480269915e+00
2.182004089480269915e+00
2.231505600146489243e+00
2.231505600146489243e+00
2.246131046479689974e+00
2.246131046479689974e+00
2.292069948423719250e+00
2.292069948423719250e+00
2.342696493423261028e+00
2.342696493423261028e+00
2.354509353923154524e+00
2.354509353923154524e+00
2.410198553422650658e+00
2.410198553422650658e+00
2.410198553422650658e+00
2.410011047700430176e+00
2.410011047700430176e+00
2.374947477645191540e+00
2.374947477645191540e+00
2.410011047700430176e+00
2.410011047700430176e+00
2.330133610034486047e+00
2.330133610034486047e+00
2.256443861201819168e+00
2.256443861201819168e+00
2.239755851924192243e+00
2.239755851924192243e+00
2.194004455702383449e+00
2.194004455702383449e+00
2.200004638813440216e+00
2.200004638813440216e+00
2.235443220313119816e+00
2.235443220313119816e+00
2.235443220313119816e+00
2.263381572923978347e+00
2.263381572923978347e+00
2.318508255256813033e+00
2.318508255256813033e+00
2.353571825312051669e+00
2.353571825312051669e+00
2.376447523422955843e+00
2.376447523422955843e+00
2.422948942533646566e+00
2.422948942533646566e+00
2.388635395367290304e+00
2.388635395367290304e+00
2.382072695089572090e+00
2.382072695089572090e+00
2.407760979033784388e+00
2.407760979033784388e+00
2.312883083590197675e+00
2.312883083590197675e+00
2.312883083590197675e+00
2.272006836146122755e+00
2.272006836146122755e+00
2.240130863368633207e+00
2.240130863368633207e+00
2.199817133091219734e+00
2.199817133091219734e+00
2.221005279702139568e+00
2.221005279702139568e+00
2.234318185979796478e+00
2.234318185979796478e+00
2.256818872646260132e+00
2.256818872646260132e+00
2.321133335367900674e+00
2.321133335367900674e+00
2.343071504867702437e+00
2.343071504867702437e+00
2.343071504867702437e+00
2.388447889645069822e+00
2.388447889645069822e+00
2.419011322367015993e+00
2.419011322367015993e+00
2.378510086367381593e+00
2.378510086367381593e+00
2.394260567033906106e+00
2.394260567033906106e+00
2.380572649311807787e+00
2.380572649311807787e+00
2.290757408368175430e+00
2.290757408368175430e+00
2.266006653035065987e+00
2.266006653035065987e+00
2.217630176702169997e+00
2.217630176702169997e+00
2.204317270424512643e+00
2.204317270424512643e+00
2.237318277535325084e+00
2.237318277535325084e+00
2.237130771813104602e+00
2.237130771813104602e+00
2.237130771813104602e+00
2.284757225257118218e+00
2.284757225257118218e+00
2.336696310312204705e+00
2.336696310312204705e+00
2.350571733756523507e+00
2.350571733756523507e+00
2.404760887478255782e+00
2.404760887478255782e+00
2.410948576311533031e+00
2.410948576311533031e+00
2.366322214423047576e+00
2.366322214423047576e+00
2.404010864589373409e+00
2.404010864589373409e+00
2.346446607867672007e+00
2.346446607867672007e+00
2.263756584368419311e+00
2.263756584368419311e+00
2.263756584368419311e+00
2.242193426313058957e+00
2.242193426313058957e+00
2.192879421369060555e+00
2.192879421369060555e+00
2.191754387035737217e+00
2.191754387035737217e+00
2.232630634479812137e+00
2.232630634479812137e+00
2.244068483535264225e+00
2.244068483535264225e+00
2.297507614368114126e+00
2.297507614368114126e+00
2.344759056367687222e+00
2.344759056367687222e+00
2.371572374645222414e+00
2.371572374645222414e+00
2.426136539811395654e+00
2.426136539811395654e+00
2.426136539811395654e+00
2.409636036255989211e+00
2.409636036255989211e+00
2.377947569200720146e+00
2.377947569200720146e+00
2.405698416089358194e+00
2.405698416089358194e+00
2.318695760979033516e+00
2.318695760979033516e+00
2.260568987090670667e+00
2.260568987090670667e+00
2.230005554368724940e+00
2.230005554368724940e+00
2.180504043702505612e+00
2.180504043702505612e+00
2.200004638813440216e+00
2.200004638813440216e+00
2.200004638813440216e+00
2.227192968535416817e+00
2.227192968535416817e+00
2.248568620868556689e+00
2.248568620868556689e+00
2.310258003479110034e+00
2.310258003479110034e+00
2.350571733756523507e+00
2.350571733756523507e+00
2.389572923978392716e+00
2.389572923978392716e+00
2.437386883144627259e+00
2.437386883144627259e+00
2.395573107089449927e+00
2.395573107089449927e+00
2.384322763756218322e+00
2.384322763756218322e+00
2.398010681478316641e+00
2.398010681478316641e+00
2.398010681478316641e+00
2.300507705923642732e+00
2.300507705923642732e+00
2.259631458479567812e+00
2.259631458479567812e+00
2.214630085146641392e+00
2.214630085146641392e+00
2.170378734702597345e+00
2.170378734702597345e+00
2.201317178868984037e+00
2.201317178868984037e+00
2.220255256813257638e+00
2.220255256813257638e+00
2.270506790368358452e+00
2.270506790368358452e+00
2.336508804589983779e+00
2.336508804589983779e+00
2.336508804589983779e+00
2.362384594256416559e+00
2.362384594256416559e+00
2.409636036255989211e+00
2.409636036255989211e+00
2.427074068422498510e+00
2.427074068422498510e+00
2.392010498367259874e+00
2.392010498367259874e+00
2.415261207922605013e+00
2.415261207922605013e+00
2.385072786645100695e+00
2.385072786645100695e+00
2.290382396923734465e+00
2.290382396923734465e+00
2.264131595812860720e+00
2.264131595812860720e+00
2.218380199591051927e+00
2.218380199591051927e+00
2.206754844813379357e+00
2.206754844813379357e+00
2.206754844813379357e+00
2.230380565813165905e+00
2.230380565813165905e+00
2.232255623035371173e+00
2.232255623035371173e+00
2.278757042146061895e+00
2.278757042146061895e+00
2.328633564256721744e+00
2.328633564256721744e+00
2.353946836756492633e+00
2.353946836756492633e+00
2.407010956144902014e+00
2.407010956144902014e+00
2.405698416089358194e+00
2.405698416089358194e+00
2.365759697256386129e+00
2.365759697256386129e+00
2.405698416089358194e+00
2.405698416089358194e+00
2.405698416089358194e+00
2.342696493423261028e+00
2.342696493423261028e+00
2.282319650868251504e+00
2.282319650868251504e+00
2.260193975646229259e+00
2.260193975646229259e+00
2.208067384868923178e+00
2.208067384868923178e+00
2.199442121646778769e+00
2.199442121646778769e+00
2.225692922757652514e+00
2.225692922757652514e+00
2.243318460646382295e+00
2.243318460646382295e+00
2.298257637256996500e+00
2.298257637256996500e+00
2.338196356089969008e+00
2.338196356089969008e+00
2.338196356089969008e+00
2.357696951200903612e+00
2.357696951200903612e+00
2.424636494033631351e+00
2.424636494033631351e+00
2.403635853144932444e+00
2.403635853144932444e+00
2.391822992645039392e+00
2.391822992645039392e+00
2.416761253700369316e+00
2.416761253700369316e+00
2.312508072145756710e+00
2.312508072145756710e+00
2.253818781090731527e+00
2.253818781090731527e+00
2.237693288979766049e+00
2.237693288979766049e+00
2.237693288979766049e+00
2.196254524369030126e+00
2.196254524369030126e+00
2.196817041535691573e+00
2.196817041535691573e+00
2.227755485702078264e+00
2.227755485702078264e+00
2.263194067201757864e+00
2.263194067201757864e+00
2.336321298867763296e+00
2.336321298867763296e+00
2.356759422589800756e+00
2.356759422589800756e+00
2.390135441145054607e+00
2.390135441145054607e+00
2.423698965422528495e+00
2.423698965422528495e+00
2.384135258033997840e+00
2.384135258033997840e+00
2.384135258033997840e+00
2.392760521256141804e+00
2.392760521256141804e+00
2.385822809533982625e+00
2.385822809533982625e+00
2.291319925534837321e+00
2.291319925534837321e+00
2.264506607257301685e+00
2.264506607257301685e+00
2.215567613757744247e+00
2.215567613757744247e+00
2.177878963591417971e+00
2.177878963591417971e+00
2.201879696035645484e+00
2.201879696035645484e+00
2.223630359813226764e+00
2.223630359813226764e+00
2.273694387646107540e+00
2.273694387646107540e+00
2.334258735923337547e+00
2.334258735923337547e+00
2.352259285256507848e+00
2.352259285256507848e+00
2.352259285256507848e+00
2.412823633533738299e+00
2.412823633533738299e+00
2.429136631366924259e+00
2.429136631366924259e+00
2.381510177922910199e+00
2.381510177922910199e+00
2.407198461867122496e+00
2.407198461867122496e+00
2.360697042756431774e+00
2.360697042756431774e+00
2.286257271034882521e+00
2.286257271034882521e+00
2.260943998535111632e+00
2.260943998535111632e+00
2.201879696035645484e+00
2.201879696035645484e+00
2.191191869869075770e+00
2.191191869869075770e+00
2.191191869869075770e+00
2.224005371257667729e+00
2.224005371257667729e+00
2.233755668813135031e+00
2.233755668813135031e+00
2.291882442701498768e+00
2.291882442701498768e+00
2.338008850367748082e+00
2.338008850367748082e+00
2.357884456923124095e+00
2.357884456923124095e+00
2.413011139255958781e+00
2.413011139255958781e+00
2.414136173589282119e+00
2.414136173589282119e+00
2.380385143589587305e+00
2.380385143589587305e+00
2.380385143589587305e+00
2.427261574144718992e+00
2.427261574144718992e+00
2.348321665089877275e+00
2.348321665089877275e+00
2.278194524979400004e+00
2.278194524979400004e+00
2.244818506424146598e+00
2.244818506424146598e+00
2.187441755424664791e+00
2.187441755424664791e+00
2.194379467146824858e+00
2.194379467146824858e+00
2.219692739646595747e+00
2.219692739646595747e+00
2.242005920590838475e+00
2.242005920590838475e+00
2.242005920590838475e+00
2.309507980590228104e+00
2.309507980590228104e+00
2.342508987701040546e+00
2.342508987701040546e+00
2.366697225867488541e+00
2.366697225867488541e+00
2.416011230811487387e+00
2.416011230811487387e+00
2.384322763756218322e+00
2.384322763756218322e+00
2.376822534867396808e+00
2.376822534867396808e+00
2.402323313089388623e+00
2.402323313089388623e+00
2.313445600756859122e+00
2.313445600756859122e+00
2.269944273201696561e+00
2.269944273201696561e+00
2.232255623035371173e+00
2.232255623035371173e+00
2.232255623035371173e+00
2.190066835535752432e+00
2.190066835535752432e+00
2.209567430646687480e+00
2.209567430646687480e+00
2.236380748924222672e+00
2.236380748924222672e+00
2.274819421979430434e+00
2.274819421979430434e+00
2.336133793145542814e+00
2.336133793145542814e+00
2.360509537034211291e+00
2.360509537034211291e+00
2.397448164311655194e+00
2.397448164311655194e+00
2.424823999755851833e+00
2.424823999755851833e+00
2.389010406811731269e+00
2.389010406811731269e+00
2.403260841700491479e+00
2.403260841700491479e+00
2.403260841700491479e+00
2.377010040589617734e+00
2.377010040589617734e+00
2.287382305368205859e+00
2.287382305368205859e+00
2.263756584368419311e+00
2.263756584368419311e+00
2.213505050813318054e+00
2.213505050813318054e+00
2.193441938535722002e+00
2.193441938535722002e+00
2.229255531479842567e+00
2.229255531479842567e+00
2.251193700979644330e+00
2.251193700979644330e+00
2.296007568590349823e+00
2.296007568590349823e+00
2.343259010589922919e+00
2.343259010589922919e+00
2.348696676534318240e+00
2.348696676534318240e+00
2.348696676534318240e+00
2.400448255867183356e+00
2.400448255867183356e+00
2.402135807367168141e+00
2.402135807367168141e+00
2.367447248756370914e+00
2.367447248756370914e+00
2.406823450422681532e+00
2.406823450422681532e+00
2.343821527756584366e+00
2.343821527756584366e+00
2.268631733146153184e+00
2.268631733146153184e+00
2.245943540757469048e+00
2.245943540757469048e+00
2.198692098757896396e+00
2.198692098757896396e+00
2.189504318369090985e+00
2.189504318369090985e+00
