2.444887112033448329e+00
2.369884823145237629e+00
2.369884823145237629e+00
2.369884823145237629e+00
2.290194891201513983e+00
2.290194891201513983e+00
2.290194891201513983e+00
2.290194891201513983e+00
2.235443220313119816e+00
2.235443220313119816e+00
2.235443220313119816e+00
2.172066286202582130e+00
2.172066286202582130e+00
2.172066286202582130e+00
2.172066286202582130e+00
2.179941526535844165e+00
2.179941526535844165e+00
2.179941526535844165e+00
2.215192602313302839e+00
2.215192602313302839e+00
2.215192602313302839e+00
2.247631092257453833e+00
2.247631092257453833e+00
2.247631092257453833e+00
2.247631092257453833e+00
2.308757957701345731e+00
2.308757957701345731e+00
2.308757957701345731e+00
2.341383953367717208e+00
2.341383953367717208e+00
2.341383953367717208e+00
2.376260017700735361e+00
2.376260017700735361e+00
2.376260017700735361e+00
2.417886288033692654e+00
2.417886288033692654e+00
2.417886288033692654e+00
2.417886288033692654e+00
2.369697317423017147e+00
2.369697317423017147e+00
2.369697317423017147e+00
2.368759788811914291e+00
2.368759788811914291e+00
2.368759788811914291e+00
2.399885738700521909e+00
2.399885738700521909e+00
2.399885738700521909e+00
2.399885738700521909e+00
2.287382305368205859e+00
2.287382305368205859e+00
2.287382305368205859e+00
2.257756401257362544e+00
2.257756401257362544e+00
2.257756401257362544e+00
2.257756401257362544e+00
2.229443037202063049e+00
2.229443037202063049e+00
2.229443037202063049e+00
2.188379284035767647e+00
2.188379284035767647e+00
2.188379284035767647e+00
2.218567705313272853e+00
2.218567705313272853e+00
2.218567705313272853e+00
2.218567705313272853e+00
2.235443220313119816e+00
2.235443220313119816e+00
2.235443220313119816e+00
2.277069490646077110e+00
2.277069490646077110e+00
2.277069490646077110e+00
2.336696310312204705e+00
2.336696310312204705e+00
2.336696310312204705e+00
2.336696310312204705e+00
2.350009216589862060e+00
2.350009216589862060e+00
2.350009216589862060e+00
2.391072969756157018e+00
2.391072969756157018e+00
2.391072969756157018e+00
2.391072969756157018e+00
2.411136082033753514e+00
2.411136082033753514e+00
2.411136082033753514e+00
2.365384685811944721e+00
2.365384685811944721e+00
2.365384685811944721e+00
2.395948118533890892e+00
2.395948118533890892e+00
2.395948118533890892e+00
2.373072420422986717e+00
2.373072420422986717e+00
2.373072420422986717e+00
2.373072420422986717e+00
2.268819238868374111e+00
2.268819238868374111e+00
2.268819238868374111e+00
2.246131046479689974e+00
2.246131046479689974e+00
2.246131046479689974e+00
2.246131046479689974e+00
2.190816858424634361e+00
2.190816858424634361e+00
2.190816858424634361e+00
2.175253883480330774e+00
2.175253883480330774e+00
2.175253883480330774e+00
2.218755211035493335e+00
2.218755211035493335e+00
2.218755211035493335e+00
2.218755211035493335e+00
2.234693197424237443e+00
2.234693197424237443e+00
2.234693197424237443e+00
2.286257271034882521e+00
2.286257271034882521e+00
2.286257271034882521e+00
2.339883907589953349e+00
2.339883907589953349e+00
2.339883907589953349e+00
2.339883907589953349e+00
2.350759239478743989e+00
2.350759239478743989e+00
2.350759239478743989e+00
2.408698507644886799e+00
2.408698507644886799e+00
2.408698507644886799e+00
2.407760979033784388e+00
2.407760979033784388e+00
2.407760979033784388e+00
2.407760979033784388e+00
2.360697042756431774e+00
2.360697042756431774e+00
2.360697042756431774e+00
2.419386333811456957e+00
2.419386333811456957e+00
2.419386333811456957e+00
2.339321390423291458e+00
2.339321390423291458e+00
2.339321390423291458e+00
2.339321390423291458e+00
2.255693838312936794e+00
2.255693838312936794e+00
2.255693838312936794e+00
2.234693197424237443e+00
2.234693197424237443e+00
2.234693197424237443e+00
2.176566423535874595e+00
2.176566423535874595e+00
2.176566423535874595e+00
2.176566423535874595e+00
2.172816309091464060e+00
2.172816309091464060e+00
2.172816309091464060e+00
2.217817682424390480e+00
2.217817682424390480e+00
2.217817682424390480e+00
2.251006195257423848e+00
2.251006195257423848e+00
2.251006195257423848e+00
2.308382946256904766e+00
2.308382946256904766e+00
2.308382946256904766e+00
2.308382946256904766e+00
2.340821436201055761e+00
2.340821436201055761e+00
2.340821436201055761e+00
2.358446974089785542e+00
2.358446974089785542e+00
2.358446974089785542e+00
2.410198553422650658e+00
2.410198553422650658e+00
2.410198553422650658e+00
2.410198553422650658e+00
2.390135441145054607e+00
2.390135441145054607e+00
2.390135441145054607e+00
2.380010132145145896e+00
2.380010132145145896e+00
2.380010132145145896e+00
2.421073885311441742e+00
2.421073885311441742e+00
2.421073885311441742e+00
2.421073885311441742e+00
2.307632923368022837e+00
2.307632923368022837e+00
2.307632923368022837e+00
2.256631366924039650e+00
2.256631366924039650e+00
2.256631366924039650e+00
2.216317636646626177e+00
2.216317636646626177e+00
2.216317636646626177e+00
2.216317636646626177e+00
2.171691274758141166e+00
2.171691274758141166e+00
2.171691274758141166e+00
2.194004455702383449e+00
2.194004455702383449e+00
2.194004455702383449e+00
2.220442762535478121e+00
2.220442762535478121e+00
2.220442762535478121e+00
2.220442762535478121e+00
2.257568895535142062e+00
2.257568895535142062e+00
2.257568895535142062e+00
2.318133243812372069e+00
2.318133243812372069e+00
2.318133243812372069e+00
2.318133243812372069e+00
2.339883907589953349e+00
2.339883907589953349e+00
2.339883907589953349e+00
2.384510269478438804e+00
2.384510269478438804e+00
2.384510269478438804e+00
2.422948942533646566e+00
2.422948942533646566e+00
2.422948942533646566e+00
2.422948942533646566e+00
2.369697317423017147e+00
2.369697317423017147e+00
2.369697317423017147e+00
2.389947935422834124e+00
2.389947935422834124e+00
2.389947935422834124e+00
2.402323313089388623e+00
2.402323313089388623e+00
2.402323313089388623e+00
2.402323313089388623e+00
2.294882534257026929e+00
2.294882534257026929e+00
2.294882534257026929e+00
2.260568987090670667e+00
2.260568987090670667e+00
2.260568987090670667e+00
2.201317178868984037e+00
2.201317178868984037e+00
2.201317178868984037e+00
2.201317178868984037e+00
2.170003723258155937e+00
2.170003723258155937e+00
2.170003723258155937e+00
2.201504684591204519e+00
2.201504684591204519e+00
2.201504684591204519e+00
2.221005279702139568e+00
2.221005279702139568e+00
2.221005279702139568e+00
2.221005279702139568e+00
2.280444593646046680e+00
2.280444593646046680e+00
2.280444593646046680e+00
2.339883907589953349e+00
2.339883907589953349e+00
2.339883907589953349e+00
2.347009125034333454e+00
2.347009125034333454e+00
2.347009125034333454e+00
2.347009125034333454e+00
2.397823175756096159e+00
2.397823175756096159e+00
2.397823175756096159e+00
2.413198644978179264e+00
2.413198644978179264e+00
2.413198644978179264e+00
2.366322214423047576e+00
2.366322214423047576e+00
2.366322214423047576e+00
2.366322214423047576e+00
2.411323587755973996e+00
2.411323587755973996e+00
2.411323587755973996e+00
2.362009582811975594e+00
2.362009582811975594e+00
2.362009582811975594e+00
2.272006836146122755e+00
2.272006836146122755e+00
2.272006836146122755e+00
2.272006836146122755e+00
2.249506149479659545e+00
2.249506149479659545e+00
2.249506149479659545e+00
2.189691824091311467e+00
2.189691824091311467e+00
2.189691824091311467e+00
2.172628803369243577e+00
2.172628803369243577e+00
2.172628803369243577e+00
2.172628803369243577e+00
2.215005096591082356e+00
2.215005096591082356e+00
2.215005096591082356e+00
2.230380565813165905e+00
2.230380565813165905e+00
2.230380565813165905e+00
2.282507156590471986e+00
2.282507156590471986e+00
2.282507156590471986e+00
2.282507156590471986e+00
2.324133426923429280e+00
2.324133426923429280e+00
2.324133426923429280e+00
2.337446333201086635e+00
2.337446333201086635e+00
2.337446333201086635e+00
2.396323129978331856e+00
2.396323129978331856e+00
2.396323129978331856e+00
2.396323129978331856e+00
2.386385326700643628e+00
2.386385326700643628e+00
2.386385326700643628e+00
2.366322214423047576e+00
2.366322214423047576e+00
2.366322214423047576e+00
2.445074617755668811e+00
2.445074617755668811e+00
2.445074617755668811e+00
2.445074617755668811e+00
2.348321665089877275e+00
2.348321665089877275e+00
2.348321665089877275e+00
2.281007110812707683e+00
2.281007110812707683e+00
2.281007110812707683e+00
2.281007110812707683e+00
2.250631183812982439e+00
2.250631183812982439e+00
2.250631183812982439e+00
2.186691732535783306e+00
2.186691732535783306e+00
2.186691732535783306e+00
2.190816858424634361e+00
2.190816858424634361e+00
2.190816858424634361e+00
2.190816858424634361e+00
2.219317728202154782e+00
2.219317728202154782e+00
2.219317728202154782e+00
2.253818781090731527e+00
2.253818781090731527e+00
2.253818781090731527e+00
2.319258278145695407e+00
2.319258278145695407e+00
2.319258278145695407e+00
2.319258278145695407e+00
2.350571733756523507e+00
2.350571733756523507e+00
2.350571733756523507e+00
2.370634846034120002e+00
2.370634846034120002e+00
2.370634846034120002e+00
2.415073702200384531e+00
2.415073702200384531e+00
2.415073702200384531e+00
2.415073702200384531e+00
2.377760063478499664e+00
2.377760063478499664e+00
2.377760063478499664e+00
2.372509903256325270e+00
2.372509903256325270e+00
2.372509903256325270e+00
2.395198095645008962e+00
2.395198095645008962e+00
2.395198095645008962e+00
2.395198095645008962e+00
2.283632190923795324e+00
2.283632190923795324e+00
2.283632190923795324e+00
2.257006378368480615e+00
2.257006378368480615e+00
2.257006378368480615e+00
2.220067751091036712e+00
2.220067751091036712e+00
2.220067751091036712e+00
2.220067751091036712e+00
2.179379009369182274e+00
2.179379009369182274e+00
2.179379009369182274e+00
2.213505050813318054e+00
2.213505050813318054e+00
2.213505050813318054e+00
2.235818231757560781e+00
2.235818231757560781e+00
2.235818231757560781e+00
2.235818231757560781e+00
2.280444593646046680e+00
2.280444593646046680e+00
2.280444593646046680e+00
2.330508621478927012e+00
2.330508621478927012e+00
2.330508621478927012e+00
2.338008850367748082e+00
2.338008850367748082e+00
2.338008850367748082e+00
2.338008850367748082e+00
2.386010315256203107e+00
2.386010315256203107e+00
2.386010315256203107e+00
2.408698507644886799e+00
2.408698507644886799e+00
2.408698507644886799e+00
2.408698507644886799e+00
2.359947019867549844e+00
2.359947019867549844e+00
2.359947019867549844e+00
2.392198004089480357e+00
2.392198004089480357e+00
2.392198004089480357e+00
2.372134891811884305e+00
2.372134891811884305e+00
2.372134891811884305e+00
2.263381572923978347e+00
2.263381572923978347e+00
2.263381572923978347e+00
2.263381572923978347e+00
2.237130771813104602e+00
2.237130771813104602e+00
2.237130771813104602e+00
2.182754112369151844e+00
2.182754112369151844e+00
2.182754112369151844e+00
2.167191137424848257e+00
2.167191137424848257e+00
2.167191137424848257e+00
2.167191137424848257e+00
2.220067751091036712e+00
2.220067751091036712e+00
2.220067751091036712e+00
2.250068666646320992e+00
2.250068666646320992e+00
2.250068666646320992e+00
2.304820337534714714e+00
2.304820337534714714e+00
2.304820337534714714e+00
2.350759239478743989e+00
2.350759239478743989e+00
2.350759239478743989e+00
2.350759239478743989e+00
2.354884365367595489e+00
2.354884365367595489e+00
2.354884365367595489e+00
2.406635944700461049e+00
2.406635944700461049e+00
2.406635944700461049e+00
2.409073519089327764e+00
2.409073519089327764e+00
2.409073519089327764e+00
2.409073519089327764e+00
2.365572191534165203e+00
2.365572191534165203e+00
2.365572191534165203e+00
2.424448988311410869e+00
2.424448988311410869e+00
2.424448988311410869e+00
2.343821527756584366e+00
2.343821527756584366e+00
2.343821527756584366e+00
2.343821527756584366e+00
2.257943906979583026e+00
2.257943906979583026e+00
2.257943906979583026e+00
2.237505783257545566e+00
2.237505783257545566e+00
2.237505783257545566e+00
2.237505783257545566e+00
2.181816583758049433e+00
2.181816583758049433e+00
2.181816583758049433e+00
2.177316446424756524e+00
2.177316446424756524e+00
2.177316446424756524e+00
2.218567705313272853e+00
2.218567705313272853e+00
2.218567705313272853e+00
2.218567705313272853e+00
2.241443403424177028e+00
2.241443403424177028e+00
2.241443403424177028e+00
2.301070223090304623e+00
2.301070223090304623e+00
2.301070223090304623e+00
2.340446424756614796e+00
2.340446424756614796e+00
2.340446424756614796e+00
2.340446424756614796e+00
2.356946928312021239e+00
2.356946928312021239e+00
2.356946928312021239e+00
2.408698507644886799e+00
2.408698507644886799e+00
2.408698507644886799e+00
2.379260109256263966e+00
2.379260109256263966e+00
2.379260109256263966e+00
2.379260109256263966e+00
2.357509445478682686e+00
2.357509445478682686e+00
2.357509445478682686e+00
2.410386059144871140e+00
2.410386059144871140e+00
2.410386059144871140e+00
2.305945371868038052e+00
2.305945371868038052e+00
2.305945371868038052e+00
2.305945371868038052e+00
2.249693655201880027e+00
2.249693655201880027e+00
2.249693655201880027e+00
2.214067567979979945e+00
2.214067567979979945e+00
2.214067567979979945e+00
2.170753746147038310e+00
2.170753746147038310e+00
2.170753746147038310e+00
2.170753746147038310e+00
2.189691824091311467e+00
2.189691824091311467e+00
2.189691824091311467e+00
2.218005188146610962e+00
2.218005188146610962e+00
2.218005188146610962e+00
2.256818872646260132e+00
2.256818872646260132e+00
2.256818872646260132e+00
2.256818872646260132e+00
2.322633381145664977e+00
2.322633381145664977e+00
2.322633381145664977e+00
2.342508987701040546e+00
2.342508987701040546e+00
2.342508987701040546e+00
2.366884731589709023e+00
2.366884731589709023e+00
2.366884731589709023e+00
2.366884731589709023e+00
2.406073427533799602e+00
2.406073427533799602e+00
2.406073427533799602e+00
2.376260017700735361e+00
2.376260017700735361e+00
2.376260017700735361e+00
2.412261116367076408e+00
2.412261116367076408e+00
2.412261116367076408e+00
2.412261116367076408e+00
2.433636768700216724e+00
2.433636768700216724e+00
2.433636768700216724e+00
2.317758232367931104e+00
2.317758232367931104e+00
2.317758232367931104e+00
2.275006927701650916e+00
2.275006927701650916e+00
2.275006927701650916e+00
2.275006927701650916e+00
2.215567613757744247e+00
2.215567613757744247e+00
2.215567613757744247e+00
2.173191320535905025e+00
2.173191320535905025e+00
2.173191320535905025e+00
2.205442304757835537e+00
2.205442304757835537e+00
2.205442304757835537e+00
2.205442304757835537e+00
2.224567888424329176e+00
2.224567888424329176e+00
2.224567888424329176e+00
2.276131962034974254e+00
2.276131962034974254e+00
2.276131962034974254e+00
2.276131962034974254e+00
2.332008667256691314e+00
2.332008667256691314e+00
2.332008667256691314e+00
2.344759056367687222e+00
2.344759056367687222e+00
2.344759056367687222e+00
2.399323221533860018e+00
2.399323221533860018e+00
2.399323221533860018e+00
2.399323221533860018e+00
2.405510910367137711e+00
2.405510910367137711e+00
2.405510910367137711e+00
2.360322031311990809e+00
2.360322031311990809e+00
2.360322031311990809e+00
2.402698324533829588e+00
2.402698324533829588e+00
2.402698324533829588e+00
2.402698324533829588e+00
2.356196905423139309e+00
2.356196905423139309e+00
2.356196905423139309e+00
2.257568895535142062e+00
2.257568895535142062e+00
2.257568895535142062e+00
2.232068117313150690e+00
2.232068117313150690e+00
2.232068117313150690e+00
2.232068117313150690e+00
2.173753837702566916e+00
2.173753837702566916e+00
2.173753837702566916e+00
2.170003723258155937e+00
2.170003723258155937e+00
2.170003723258155937e+00
2.220630268257698603e+00
2.220630268257698603e+00
2.220630268257698603e+00
2.220630268257698603e+00
2.241255897701956545e+00
2.241255897701956545e+00
2.241255897701956545e+00
2.304445326090273749e+00
2.304445326090273749e+00
2.304445326090273749e+00
2.356571916867580274e+00
2.356571916867580274e+00
2.356571916867580274e+00
2.356571916867580274e+00
2.374947477645191540e+00
2.374947477645191540e+00
2.374947477645191540e+00
2.425199011200292798e+00
2.425199011200292798e+00
2.425199011200292798e+00
2.425199011200292798e+00
2.395760612811670409e+00
2.395760612811670409e+00
2.395760612811670409e+00
2.358071962645344577e+00
2.358071962645344577e+00
2.358071962645344577e+00
2.417698782311472172e+00
2.417698782311472172e+00
2.417698782311472172e+00
2.417698782311472172e+00
2.326008484145634547e+00
2.326008484145634547e+00
2.326008484145634547e+00
2.251943723868526259e+00
2.251943723868526259e+00
2.251943723868526259e+00
2.224005371257667729e+00
2.224005371257667729e+00
2.224005371257667729e+00
2.224005371257667729e+00
2.168316171758171151e+00
2.168316171758171151e+00
2.168316171758171151e+00
2.173753837702566916e+00
2.173753837702566916e+00
2.173753837702566916e+00
2.206379833368938392e+00
2.206379833368938392e+00
2.206379833368938392e+00
2.206379833368938392e+00
2.235068208868678852e+00
2.235068208868678852e+00
2.235068208868678852e+00
2.305382854701376161e+00
2.305382854701376161e+00
2.305382854701376161e+00
2.341758964812158617e+00
2.341758964812158617e+00
2.341758964812158617e+00
2.341758964812158617e+00
2.367634754478591397e+00
2.367634754478591397e+00
2.367634754478591397e+00
2.416573747978148834e+00
2.416573747978148834e+00
2.416573747978148834e+00
2.389572923978392716e+00
2.389572923978392716e+00
2.389572923978392716e+00
2.389572923978392716e+00
2.398198187200537124e+00
2.398198187200537124e+00
2.398198187200537124e+00
2.423511459700308013e+00
2.423511459700308013e+00
2.423511459700308013e+00
2.304070314645832784e+00
2.304070314645832784e+00
2.304070314645832784e+00
2.304070314645832784e+00
2.256256355479598685e+00
2.256256355479598685e+00
2.256256355479598685e+00
2.217067659535508550e+00
2.217067659535508550e+00
2.217067659535508550e+00
2.173753837702566916e+00
2.173753837702566916e+00
2.173753837702566916e+00
2.173753837702566916e+00
2.197192052980132537e+00
2.197192052980132537e+00
2.197192052980132537e+00
2.218755211035493335e+00
2.218755211035493335e+00
2.218755211035493335e+00
2.261694021423993561e+00
2.261694021423993561e+00
2.261694021423993561e+00
2.261694021423993561e+00
2.326008484145634547e+00
2.326008484145634547e+00
2.326008484145634547e+00
2.343821527756584366e+00
2.343821527756584366e+00
2.343821527756584366e+00
2.378697592089602519e+00
2.378697592089602519e+00
2.378697592089602519e+00
2.378697592089602519e+00
2.402135807367168141e+00
2.402135807367168141e+00
2.402135807367168141e+00
2.357321939756462204e+00
2.357321939756462204e+00
2.357321939756462204e+00
2.395010589922788480e+00
2.395010589922788480e+00
2.395010589922788480e+00
2.395010589922788480e+00
2.380572649311807787e+00
2.380572649311807787e+00
2.380572649311807787e+00
2.266006653035065987e+00
2.266006653035065987e+00
2.266006653035065987e+00
2.255881344035157721e+00
2.255881344035157721e+00
2.255881344035157721e+00
2.255881344035157721e+00
2.210504959257789892e+00
2.210504959257789892e+00
2.210504959257789892e+00
2.188754295480208611e+00
2.188754295480208611e+00
2.188754295480208611e+00
2.223817865535447247e+00
2.223817865535447247e+00
2.223817865535447247e+00
2.223817865535447247e+00
2.235068208868678852e+00
2.235068208868678852e+00
2.235068208868678852e+00
2.286444776757103448e+00
2.286444776757103448e+00
2.286444776757103448e+00
2.286444776757103448e+00
2.333133701590014208e+00
2.333133701590014208e+00
2.333133701590014208e+00
2.350571733756523507e+00
2.350571733756523507e+00
2.350571733756523507e+00
2.405135898922696747e+00
2.405135898922696747e+00
2.405135898922696747e+00
2.405135898922696747e+00
2.403823358867152926e+00
2.403823358867152926e+00
2.403823358867152926e+00
2.361822077089755112e+00
2.361822077089755112e+00
2.361822077089755112e+00
2.422573931089205601e+00
2.422573931089205601e+00
2.422573931089205601e+00
2.422573931089205601e+00
2.348134159367656792e+00
2.348134159367656792e+00
2.348134159367656792e+00
2.261694021423993561e+00
2.261694021423993561e+00
2.261694021423993561e+00
2.230568071535386387e+00
2.230568071535386387e+00
2.230568071535386387e+00
2.230568071535386387e+00
2.174878872035889810e+00
2.174878872035889810e+00
2.174878872035889810e+00
2.171691274758141166e+00
2.171691274758141166e+00
2.171691274758141166e+00
2.215942625202185212e+00
2.215942625202185212e+00
2.215942625202185212e+00
2.215942625202185212e+00
2.247818597979674760e+00
2.247818597979674760e+00
2.247818597979674760e+00
2.314758140812402942e+00
2.314758140812402942e+00
2.314758140812402942e+00
2.355259376812036454e+00
2.355259376812036454e+00
2.355259376812036454e+00
2.355259376812036454e+00
2.366134708700827094e+00
2.366134708700827094e+00
2.366134708700827094e+00
2.410948576311533031e+00
2.410948576311533031e+00
2.410948576311533031e+00
2.382635212256233537e+00
2.382635212256233537e+00
2.382635212256233537e+00
2.382635212256233537e+00
2.365947202978606612e+00
2.365947202978606612e+00
2.365947202978606612e+00
2.422386425366985119e+00
2.422386425366985119e+00
2.422386425366985119e+00
2.313445600756859122e+00
2.313445600756859122e+00
2.313445600756859122e+00
2.313445600756859122e+00
2.251381206701864812e+00
2.251381206701864812e+00
2.251381206701864812e+00
2.215942625202185212e+00
2.215942625202185212e+00
2.215942625202185212e+00
2.215942625202185212e+00
2.161003448591571008e+00
2.161003448591571008e+00
2.161003448591571008e+00
2.181816583758049433e+00
2.181816583758049433e+00
2.181816583758049433e+00
2.215192602313302839e+00
2.215192602313302839e+00
2.215192602313302839e+00
2.215192602313302839e+00
2.253443769646290562e+00
2.253443769646290562e+00
2.253443769646290562e+00
2.317195715201269657e+00
2.317195715201269657e+00
2.317195715201269657e+00
2.347759147923215384e+00
2.347759147923215384e+00
2.347759147923215384e+00
2.347759147923215384e+00
2.388635395367290304e+00
2.388635395367290304e+00
2.388635395367290304e+00
2.420886379589221260e+00
2.420886379589221260e+00
2.420886379589221260e+00
2.375509994811853431e+00
2.375509994811853431e+00
2.375509994811853431e+00
2.375509994811853431e+00
2.401760795922727176e+00
2.401760795922727176e+00
2.401760795922727176e+00
2.403823358867152926e+00
2.403823358867152926e+00
2.403823358867152926e+00
2.281757133701590057e+00
2.281757133701590057e+00
2.281757133701590057e+00
2.281757133701590057e+00
2.247631092257453833e+00
2.247631092257453833e+00
2.247631092257453833e+00
2.202817224646748340e+00
2.202817224646748340e+00
2.202817224646748340e+00
2.174128849147007880e+00
2.174128849147007880e+00
2.174128849147007880e+00
2.174128849147007880e+00
2.209942442091128445e+00
2.209942442091128445e+00
2.209942442091128445e+00
2.226067934202093479e+00
2.226067934202093479e+00
2.226067934202093479e+00
2.282694662312692468e+00
2.282694662312692468e+00
2.282694662312692468e+00
2.282694662312692468e+00
2.335571275978881367e+00
2.335571275978881367e+00
2.335571275978881367e+00
2.340633930478835278e+00
2.340633930478835278e+00
2.340633930478835278e+00
2.392573015533921321e+00
2.392573015533921321e+00
2.392573015533921321e+00
2.392573015533921321e+00
2.401573290200506694e+00
2.401573290200506694e+00
2.401573290200506694e+00
2.362759605700857524e+00
2.362759605700857524e+00
2.362759605700857524e+00
2.362759605700857524e+00
2.413761162144840711e+00
2.413761162144840711e+00
2.413761162144840711e+00
2.363322122867518971e+00
2.363322122867518971e+00
2.363322122867518971e+00
2.261881527146214044e+00
2.261881527146214044e+00
2.261881527146214044e+00
2.261881527146214044e+00
2.242380932035279439e+00
2.242380932035279439e+00
2.242380932035279439e+00
2.185191686758019003e+00
2.185191686758019003e+00
2.185191686758019003e+00
2.172628803369243577e+00
2.172628803369243577e+00
2.172628803369243577e+00
2.172628803369243577e+00
2.212380016479995160e+00
2.212380016479995160e+00
2.212380016479995160e+00
2.230380565813165905e+00
2.230380565813165905e+00
2.230380565813165905e+00
2.287007293923764895e+00
2.287007293923764895e+00
2.287007293923764895e+00
2.287007293923764895e+00
2.348134159367656792e+00
2.348134159367656792e+00
2.348134159367656792e+00
2.367447248756370914e+00
2.367447248756370914e+00
2.367447248756370914e+00
2.421261391033662225e+00
2.421261391033662225e+00
2.421261391033662225e+00
2.421261391033662225e+00
2.396135624256111374e+00
2.396135624256111374e+00
2.396135624256111374e+00
2.365759697256386129e+00
2.365759697256386129e+00
2.365759697256386129e+00
2.432699240089114312e+00
2.432699240089114312e+00
2.432699240089114312e+00
2.432699240089114312e+00
2.341008941923276243e+00
2.341008941923276243e+00
2.341008941923276243e+00
2.257381389812921579e+00
2.257381389812921579e+00
2.257381389812921579e+00
2.224567888424329176e+00
2.224567888424329176e+00
2.224567888424329176e+00
2.172628803369243577e+00
2.172628803369243577e+00
2.172628803369243577e+00
2.172628803369243577e+00
2.187066743980223826e+00
2.187066743980223826e+00
2.187066743980223826e+00
2.226255439924313961e+00
2.226255439924313961e+00
2.226255439924313961e+00
2.252318735312967224e+00
2.252318735312967224e+00
2.252318735312967224e+00
2.252318735312967224e+00
2.308195440534684284e+00
2.308195440534684284e+00
2.308195440534684284e+00
2.342508987701040546e+00
2.342508987701040546e+00
2.342508987701040546e+00
2.377197546311838217e+00
2.377197546311838217e+00
2.377197546311838217e+00
2.377197546311838217e+00
2.424448988311410869e+00
2.424448988311410869e+00
2.424448988311410869e+00
2.383572740867336393e+00
2.383572740867336393e+00
2.383572740867336393e+00
2.377197546311838217e+00
2.377197546311838217e+00
2.377197546311838217e+00
2.377197546311838217e+00
2.415823725089266905e+00
2.415823725089266905e+00
2.415823725089266905e+00
2.296195074312570750e+00
2.296195074312570750e+00
2.296195074312570750e+00
2.254943815424054865e+00
2.254943815424054865e+00
2.254943815424054865e+00
2.254943815424054865e+00
2.210317453535568966e+00
2.210317453535568966e+00
2.210317453535568966e+00
2.162878505813776275e+00
2.162878505813776275e+00
2.162878505813776275e+00
2.162878505813776275e+00
2.192691915646840073e+00
2.192691915646840073e+00
2.192691915646840073e+00
2.217255165257729033e+00
2.217255165257729033e+00
2.217255165257729033e+00
2.265069124423963132e+00
2.265069124423963132e+00
2.265069124423963132e+00
2.265069124423963132e+00
2.326383495590075512e+00
2.326383495590075512e+00
2.326383495590075512e+00
2.342133976256599581e+00
2.342133976256599581e+00
2.342133976256599581e+00
2.391447981200597983e+00
2.391447981200597983e+00
2.391447981200597983e+00
2.391447981200597983e+00
2.411698599200414961e+00
2.411698599200414961e+00
2.411698599200414961e+00
2.366697225867488541e+00
2.366697225867488541e+00
2.366697225867488541e+00
2.394073061311685624e+00
2.394073061311685624e+00
2.394073061311685624e+00
2.394073061311685624e+00
2.377572557756279181e+00
2.377572557756279181e+00
2.377572557756279181e+00
2.272944364757225166e+00
2.272944364757225166e+00
2.272944364757225166e+00
2.244068483535264225e+00
2.244068483535264225e+00
2.244068483535264225e+00
2.244068483535264225e+00
2.188941801202429094e+00
2.188941801202429094e+00
2.188941801202429094e+00
2.157065828424939546e+00
2.157065828424939546e+00
2.157065828424939546e+00
2.202254707480086449e+00
2.202254707480086449e+00
2.202254707480086449e+00
2.202254707480086449e+00
2.234130680257575996e+00
2.234130680257575996e+00
2.234130680257575996e+00
2.291507431257057803e+00
2.291507431257057803e+00
2.291507431257057803e+00
2.332383678701132279e+00
2.332383678701132279e+00
2.332383678701132279e+00
2.332383678701132279e+00
2.345509079256569152e+00
2.345509079256569152e+00
2.345509079256569152e+00
2.406073427533799602e+00
2.406073427533799602e+00
2.406073427533799602e+00
2.426324045533616136e+00
2.426324045533616136e+00
2.426324045533616136e+00
2.426324045533616136e+00
2.388635395367290304e+00
2.388635395367290304e+00
2.388635395367290304e+00
2.432324228644673347e+00
2.432324228644673347e+00
2.432324228644673347e+00
2.349446699423200169e+00
2.349446699423200169e+00
2.349446699423200169e+00
2.349446699423200169e+00
2.258693929868464956e+00
2.258693929868464956e+00
2.258693929868464956e+00
2.233380657368694511e+00
2.233380657368694511e+00
2.233380657368694511e+00
2.172441297647023095e+00
2.172441297647023095e+00
2.172441297647023095e+00
2.172441297647023095e+00
2.170566240424817828e+00
2.170566240424817828e+00
2.170566240424817828e+00
2.221567796868801015e+00
2.221567796868801015e+00
2.221567796868801015e+00
2.258318918424023991e+00
2.258318918424023991e+00
2.258318918424023991e+00
2.258318918424023991e+00
2.316070680867946319e+00
2.316070680867946319e+00
2.316070680867946319e+00
2.346821619312112972e+00
2.346821619312112972e+00
2.346821619312112972e+00
2.364259651478621826e+00
2.364259651478621826e+00
2.364259651478621826e+00
2.364259651478621826e+00
2.420136356700338887e+00
2.420136356700338887e+00
2.420136356700338887e+00
2.386197820978423145e+00
2.386197820978423145e+00
2.386197820978423145e+00
2.358259468367565059e+00
2.358259468367565059e+00
2.358259468367565059e+00
2.358259468367565059e+00
2.406635944700461049e+00
2.406635944700461049e+00
2.406635944700461049e+00
2.303507797479171337e+00
2.303507797479171337e+00
2.303507797479171337e+00
2.244818506424146598e+00
2.244818506424146598e+00
2.244818506424146598e+00
2.244818506424146598e+00
2.217067659535508550e+00
2.217067659535508550e+00
2.217067659535508550e+00
2.164191045869319652e+00
2.164191045869319652e+00
2.164191045869319652e+00
2.164191045869319652e+00
2.182566606646931362e+00
2.182566606646931362e+00
2.182566606646931362e+00
2.218755211035493335e+00
2.218755211035493335e+00
2.218755211035493335e+00
2.263006561479537382e+00
2.263006561479537382e+00
2.263006561479537382e+00
2.263006561479537382e+00
2.317195715201269657e+00
2.317195715201269657e+00
2.317195715201269657e+00
2.349821710867641578e+00
2.349821710867641578e+00
2.349821710867641578e+00
2.384135258033997840e+00
2.384135258033997840e+00
2.384135258033997840e+00
2.384135258033997840e+00
2.429699148533585706e+00
2.429699148533585706e+00
2.429699148533585706e+00
2.389385418256172233e+00
2.389385418256172233e+00
2.389385418256172233e+00
2.394073061311685624e+00
2.394073061311685624e+00
2.394073061311685624e+00
2.394073061311685624e+00
2.406448438978240567e+00
2.406448438978240567e+00
2.406448438978240567e+00
2.285319742423780109e+00
2.285319742423780109e+00
2.285319742423780109e+00
2.250068666646320992e+00
2.250068666646320992e+00
2.250068666646320992e+00
2.250068666646320992e+00
2.198692098757896396e+00
2.198692098757896396e+00
2.198692098757896396e+00
2.163066011535996758e+00
2.163066011535996758e+00
2.163066011535996758e+00
2.189691824091311467e+00
2.189691824091311467e+00
2.189691824091311467e+00
2.189691824091311467e+00
2.212192510757774677e+00
2.212192510757774677e+00
2.212192510757774677e+00
2.269194250312814631e+00
2.269194250312814631e+00
2.269194250312814631e+00
2.330133610034486047e+00
2.330133610034486047e+00
2.330133610034486047e+00
2.330133610034486047e+00
2.349634205145421095e+00
2.349634205145421095e+00
2.349634205145421095e+00
2.406260933256020085e+00
2.406260933256020085e+00
2.406260933256020085e+00
2.416386242255928352e+00
2.416386242255928352e+00
2.416386242255928352e+00
2.416386242255928352e+00
2.363884640034180418e+00
2.363884640034180418e+00
2.363884640034180418e+00
2.419573839533677440e+00
2.419573839533677440e+00
2.419573839533677440e+00
2.384885280922879769e+00
2.384885280922879769e+00
2.384885280922879769e+00
2.384885280922879769e+00
2.284382213812677254e+00
2.284382213812677254e+00
2.284382213812677254e+00
2.253068758201849597e+00
2.253068758201849597e+00
2.253068758201849597e+00
2.188566789757988129e+00
2.188566789757988129e+00
2.188566789757988129e+00
2.188566789757988129e+00
2.173191320535905025e+00
2.173191320535905025e+00
2.173191320535905025e+00
2.215005096591082356e+00
2.215005096591082356e+00
2.215005096591082356e+00
2.235255714590899334e+00
2.235255714590899334e+00
2.235255714590899334e+00
2.235255714590899334e+00
2.296195074312570750e+00
2.296195074312570750e+00
2.296195074312570750e+00
2.337258827478866152e+00
2.337258827478866152e+00
2.337258827478866152e+00
2.349821710867641578e+00
2.349821710867641578e+00
2.349821710867641578e+00
2.349821710867641578e+00
2.401198278756065729e+00
2.401198278756065729e+00
2.401198278756065729e+00
2.393323038422803695e+00
2.393323038422803695e+00
2.393323038422803695e+00
2.355634388256477418e+00
2.355634388256477418e+00
2.355634388256477418e+00
2.355634388256477418e+00
2.413386150700399746e+00
2.413386150700399746e+00
2.413386150700399746e+00
2.318508255256813033e+00
2.318508255256813033e+00
2.318508255256813033e+00
2.256818872646260132e+00
2.256818872646260132e+00
2.256818872646260132e+00
2.256818872646260132e+00
2.233568163090914993e+00
2.233568163090914993e+00
2.233568163090914993e+00
2.174503860591448845e+00
2.174503860591448845e+00
2.174503860591448845e+00
2.178441480758079862e+00
2.178441480758079862e+00
2.178441480758079862e+00
2.178441480758079862e+00
2.214630085146641392e+00
2.214630085146641392e+00
2.214630085146641392e+00
2.245756035035248566e+00
2.245756035035248566e+00
2.245756035035248566e+00
2.313258095034638639e+00
2.313258095034638639e+00
2.313258095034638639e+00
2.313258095034638639e+00
2.346821619312112972e+00
2.346821619312112972e+00
2.346821619312112972e+00
2.374009949034089573e+00
2.374009949034089573e+00
2.374009949034089573e+00
2.416011230811487387e+00
2.416011230811487387e+00
2.416011230811487387e+00
2.416011230811487387e+00
2.380572649311807787e+00
2.380572649311807787e+00
2.380572649311807787e+00
2.382635212256233537e+00
2.382635212256233537e+00
2.382635212256233537e+00
2.382635212256233537e+00
2.418636310922574584e+00
2.418636310922574584e+00
2.418636310922574584e+00
2.301070223090304623e+00
2.301070223090304623e+00
2.301070223090304623e+00
2.254756309701834383e+00
2.254756309701834383e+00
2.254756309701834383e+00
2.254756309701834383e+00
2.217817682424390480e+00
2.217817682424390480e+00
2.217817682424390480e+00
2.167378643147068740e+00
2.167378643147068740e+00
2.167378643147068740e+00
2.195879512924588717e+00
2.195879512924588717e+00
2.195879512924588717e+00
2.195879512924588717e+00
2.223442854091006282e+00
2.223442854091006282e+00
2.223442854091006282e+00
2.273319376201666131e+00
2.273319376201666131e+00
2.273319376201666131e+00
2.332008667256691314e+00
2.332008667256691314e+00
2.332008667256691314e+00
2.332008667256691314e+00
2.340821436201055761e+00
2.340821436201055761e+00
2.340821436201055761e+00
2.377010040589617734e+00
2.377010040589617734e+00
2.377010040589617734e+00
2.403823358867152926e+00
2.403823358867152926e+00
2.403823358867152926e+00
2.403823358867152926e+00
2.355821893978697901e+00
2.355821893978697901e+00
2.355821893978697901e+00
2.389197912533951751e+00
2.389197912533951751e+00
2.389197912533951751e+00
2.380572649311807787e+00
2.380572649311807787e+00
2.380572649311807787e+00
2.380572649311807787e+00
2.272381847590563719e+00
2.272381847590563719e+00
2.272381847590563719e+00
2.248943632312997654e+00
2.248943632312997654e+00
2.248943632312997654e+00
2.190629352702413879e+00
2.190629352702413879e+00
2.190629352702413879e+00
2.190629352702413879e+00
2.169816217535935454e+00
2.169816217535935454e+00
2.169816217535935454e+00
2.224567888424329176e+00
2.224567888424329176e+00
2.224567888424329176e+00
2.248943632312997654e+00
2.248943632312997654e+00
2.248943632312997654e+00
2.248943632312997654e+00
2.298820154423657947e+00
2.298820154423657947e+00
2.298820154423657947e+00
2.346446607867672007e+00
2.346446607867672007e+00
2.346446607867672007e+00
2.365759697256386129e+00
2.365759697256386129e+00
2.365759697256386129e+00
2.365759697256386129e+00
2.419573839533677440e+00
2.419573839533677440e+00
2.419573839533677440e+00
2.412823633533738299e+00
2.412823633533738299e+00
2.412823633533738299e+00
2.359384502700888397e+00
2.359384502700888397e+00
2.359384502700888397e+00
2.359384502700888397e+00
2.412823633533738299e+00
2.412823633533738299e+00
2.412823633533738299e+00
2.347196630756553937e+00
2.347196630756553937e+00
2.347196630756553937e+00
2.347196630756553937e+00
2.261506515701773079e+00
2.261506515701773079e+00
2.261506515701773079e+00
2.235443220313119816e+00
2.235443220313119816e+00
2.235443220313119816e+00
2.176753929258095077e+00
2.176753929258095077e+00
2.176753929258095077e+00
2.176753929258095077e+00
2.182941618091372327e+00
2.182941618091372327e+00
2.182941618091372327e+00
2.225317911313211550e+00
2.225317911313211550e+00
2.225317911313211550e+00
2.261506515701773079e+00
2.261506515701773079e+00
2.261506515701773079e+00
2.261506515701773079e+00
2.322633381145664977e+00
2.322633381145664977e+00
2.322633381145664977e+00
2.355259376812036454e+00
2.355259376812036454e+00
2.355259376812036454e+00
2.362947111423078006e+00
2.362947111423078006e+00
2.362947111423078006e+00
2.362947111423078006e+00
2.407948484756004870e+00
2.407948484756004870e+00
2.407948484756004870e+00
2.369884823145237629e+00
2.369884823145237629e+00
2.369884823145237629e+00
2.347384136478774419e+00
2.347384136478774419e+00
2.347384136478774419e+00
2.347384136478774419e+00
2.401010773033844803e+00
2.401010773033844803e+00
2.401010773033844803e+00
2.305570360423596643e+00
2.305570360423596643e+00
2.305570360423596643e+00
2.245568529313028083e+00
2.245568529313028083e+00
2.245568529313028083e+00
2.245568529313028083e+00
2.226630451368755370e+00
2.226630451368755370e+00
2.226630451368755370e+00
2.171503769035920239e+00
2.171503769035920239e+00
2.171503769035920239e+00
2.183316629535813735e+00
2.183316629535813735e+00
2.183316629535813735e+00
2.183316629535813735e+00
2.206004821924497428e+00
2.206004821924497428e+00
2.206004821924497428e+00
2.242005920590838475e+00
2.242005920590838475e+00
2.242005920590838475e+00
2.318883266701254442e+00
2.318883266701254442e+00
2.318883266701254442e+00
2.318883266701254442e+00
2.360884548478652700e+00
2.360884548478652700e+00
2.360884548478652700e+00
2.387885372478407930e+00
2.387885372478407930e+00
2.387885372478407930e+00
2.421073885311441742e+00
2.421073885311441742e+00
2.421073885311441742e+00
2.421073885311441742e+00
2.383760246589556875e+00
2.383760246589556875e+00
2.383760246589556875e+00
2.394073061311685624e+00
2.394073061311685624e+00
2.394073061311685624e+00
2.398760704367198571e+00
2.398760704367198571e+00
2.398760704367198571e+00
2.398760704367198571e+00
2.279132053590502860e+00
2.279132053590502860e+00
2.279132053590502860e+00
2.240505874813074172e+00
2.240505874813074172e+00
2.240505874813074172e+00
2.195316995757927270e+00
2.195316995757927270e+00
2.195316995757927270e+00
2.195316995757927270e+00
2.166066103091524919e+00
2.166066103091524919e+00
2.166066103091524919e+00
2.204317270424512643e+00
2.204317270424512643e+00
2.204317270424512643e+00
2.227192968535416817e+00
2.227192968535416817e+00
2.227192968535416817e+00
2.227192968535416817e+00
2.282882168034912951e+00
2.282882168034912951e+00
2.282882168034912951e+00
2.336133793145542814e+00
2.336133793145542814e+00
2.336133793145542814e+00
2.338383861812189490e+00
2.338383861812189490e+00
2.338383861812189490e+00
2.338383861812189490e+00
2.380760155034028269e+00
2.380760155034028269e+00
2.380760155034028269e+00
2.389385418256172233e+00
2.389385418256172233e+00
2.389385418256172233e+00
2.331446150090029423e+00
2.331446150090029423e+00
2.331446150090029423e+00
2.331446150090029423e+00
2.376635029145176325e+00
2.376635029145176325e+00
2.376635029145176325e+00
2.343446516312143402e+00
2.343446516312143402e+00
2.343446516312143402e+00
2.249693655201880027e+00
2.249693655201880027e+00
2.249693655201880027e+00
2.229630542924283532e+00
2.229630542924283532e+00
2.182004089480269915e+00
2.182004089480269915e+00
2.174316354869228363e+00
2.174316354869228363e+00
2.174316354869228363e+00
2.223630359813226764e+00
2.223630359813226764e+00
2.243130954924161813e+00
2.243130954924161813e+00
2.296757591479232197e+00
2.296757591479232197e+00
2.342883999145481511e+00
2.342883999145481511e+00
2.360322031311990809e+00
2.360322031311990809e+00
2.416011230811487387e+00
2.416011230811487387e+00
2.418261299478133619e+00
2.418261299478133619e+00
2.363884640034180418e+00
2.363884640034180418e+00
2.363884640034180418e+00
2.409636036255989211e+00
2.409636036255989211e+00
2.292819971312600735e+00
2.292819971312600735e+00
2.196067018646809643e+00
2.196067018646809643e+00
2.163253517258217240e+00
2.163253517258217240e+00
2.120314706869716570e+00
2.120314706869716570e+00
2.149003082369457029e+00
2.149003082369457029e+00
2.197754570146794428e+00
2.197754570146794428e+00
2.228693014313181120e+00
2.228693014313181120e+00
2.228693014313181120e+00
2.285132236701559627e+00
2.285132236701559627e+00
2.307257911923581428e+00
2.307257911923581428e+00
2.337446333201086635e+00
2.337446333201086635e+00
2.391260475478377501e+00
2.391260475478377501e+00
2.355259376812036454e+00
2.355259376812036454e+00
2.319258278145695407e+00
2.319258278145695407e+00
2.319445783867915889e+00
2.319445783867915889e+00
2.231505600146489243e+00
2.231505600146489243e+00
2.231505600146489243e+00
2.242380932035279439e+00
2.242380932035279439e+00
2.276506973479415219e+00
2.276506973479415219e+00
2.239193334757530351e+00
2.239193334757530351e+00
2.199067110202337361e+00
2.199067110202337361e+00
2.140752830591753586e+00
2.140752830591753586e+00
2.125939878536332373e+00
2.125939878536332373e+00
2.172441297647023095e+00
2.172441297647023095e+00
2.208629902035584625e+00
2.208629902035584625e+00
2.208629902035584625e+00
2.281007110812707683e+00
2.281007110812707683e+00
2.321133335367900674e+00
2.321133335367900674e+00
2.271631824701681346e+00
2.271631824701681346e+00
2.296945097201452679e+00
2.296945097201452679e+00
2.307820429090243319e+00
2.307820429090243319e+00
2.299007660145878429e+00
2.299007660145878429e+00
2.395010589922788480e+00
2.395010589922788480e+00
2.367447248756370914e+00
2.367447248756370914e+00
2.367447248756370914e+00
2.287569811090426342e+00
2.287569811090426342e+00
2.276881984923856628e+00
2.276881984923856628e+00
2.263006561479537382e+00
2.263006561479537382e+00
2.267319193090609808e+00
2.267319193090609808e+00
2.278944547868282378e+00
2.278944547868282378e+00
2.322258369701224012e+00
2.322258369701224012e+00
2.437761894589068223e+00
2.437761894589068223e+00
2.489888485366374749e+00
2.489888485366374749e+00
2.489888485366374749e+00
2.475263039033173573e+00
2.475263039033173573e+00
2.470575395977660182e+00
2.470575395977660182e+00
2.320383312479018745e+00
2.320383312479018745e+00
2.155940794091616652e+00
2.155940794091616652e+00
2.125189855647450443e+00
2.125189855647450443e+00
2.080563493758964988e+00
2.080563493758964988e+00
2.072688253425702509e+00
2.072688253425702509e+00
2.096126468703268575e+00
2.096126468703268575e+00
2.096126468703268575e+00
2.104751731925412539e+00
2.104751731925412539e+00
2.168503677480392078e+00
2.168503677480392078e+00
2.234880703146458369e+00
2.234880703146458369e+00
2.266756675923947917e+00
2.266756675923947917e+00
2.342133976256599581e+00
2.342133976256599581e+00
2.330696127201147494e+00
2.330696127201147494e+00
2.311008026367992407e+00
2.311008026367992407e+00
2.398198187200537124e+00
2.398198187200537124e+00
2.398198187200537124e+00
2.372884914700766235e+00
2.372884914700766235e+00
2.431386700033570492e+00
2.431386700033570492e+00
2.493076082644123392e+00
2.493076082644123392e+00
2.527577135532700581e+00
2.527577135532700581e+00
2.521014435254982367e+00
2.521014435254982367e+00
2.424823999755851833e+00
2.424823999755851833e+00
2.286819788201544412e+00
2.286819788201544412e+00
2.266756675923947917e+00
2.266756675923947917e+00
2.256068849757378203e+00
2.256068849757378203e+00
2.299382671590319838e+00
2.299382671590319838e+00
2.376447523422955843e+00
2.376447523422955843e+00
2.314758140812402942e+00
2.314758140812402942e+00
2.314758140812402942e+00
2.294695028534806447e+00
2.294695028534806447e+00
2.293757499923703591e+00
2.293757499923703591e+00
2.099126560258797181e+00
2.099126560258797181e+00
2.001811090426343309e+00
2.001811090426343309e+00
1.969560106204413019e+00
1.969560106204413019e+00
1.974060243537705706e+00
1.974060243537705706e+00
2.047187475203710694e+00
2.047187475203710694e+00
2.134002624591814889e+00
2.134002624591814889e+00
2.134002624591814889e+00
2.255318826868495830e+00
2.255318826868495830e+00
2.430636677144688562e+00
2.430636677144688562e+00
2.549890316476943308e+00
2.549890316476943308e+00
2.617954893642994829e+00
2.617954893642994829e+00
2.543140110477004168e+00
2.543140110477004168e+00
2.402510818811609106e+00
2.402510818811609106e+00
2.333883724478896582e+00
2.333883724478896582e+00
2.202817224646748340e+00
2.202817224646748340e+00
2.202817224646748340e+00
2.083938596758934114e+00
2.083938596758934114e+00
2.088626239814447505e+00
2.088626239814447505e+00
2.085813653981139382e+00
2.085813653981139382e+00
2.124439832758568070e+00
2.124439832758568070e+00
2.216317636646626177e+00
2.216317636646626177e+00
2.314570635090182460e+00
2.314570635090182460e+00
2.467387798699911539e+00
2.467387798699911539e+00
2.584016357921079532e+00
2.584016357921079532e+00
2.589454023865474408e+00
2.589454023865474408e+00
2.589454023865474408e+00
2.600516861476485531e+00
2.600516861476485531e+00
2.530014709921567295e+00
2.530014709921567295e+00
2.429136631366924259e+00
2.429136631366924259e+00
2.459700064088869986e+00
2.459700064088869986e+00
2.343634022034363884e+00
2.343634022034363884e+00
2.295445051423688376e+00
2.295445051423688376e+00
2.310820520645771925e+00
2.310820520645771925e+00
2.284757225257118218e+00
2.284757225257118218e+00
2.284757225257118218e+00
2.321320841090121156e+00
2.321320841090121156e+00
2.320383312479018745e+00
2.320383312479018745e+00
2.317570726645710621e+00
2.317570726645710621e+00
2.348509170812097757e+00
2.348509170812097757e+00
2.361822077089755112e+00
2.361822077089755112e+00
2.371572374645222414e+00
2.371572374645222414e+00
2.417698782311472172e+00
2.417698782311472172e+00
2.389572923978392716e+00
2.389572923978392716e+00
2.389572923978392716e+00
2.411698599200414961e+00
2.411698599200414961e+00
2.421636402478102745e+00
2.421636402478102745e+00
2.201692190313425002e+00
2.201692190313425002e+00
2.070438184759056277e+00
2.070438184759056277e+00
2.027874385814997016e+00
2.027874385814997016e+00
2.016436536759544484e+00
2.016436536759544484e+00
2.052062623981445011e+00
2.052062623981445011e+00
2.110376903592028786e+00
2.110376903592028786e+00
2.239755851924192243e+00
2.239755851924192243e+00
2.239755851924192243e+00
2.392573015533921321e+00
2.392573015533921321e+00
2.453137363811151772e+00
2.453137363811151772e+00
2.488763451033051854e+00
2.488763451033051854e+00
2.496451185644092963e+00
2.496451185644092963e+00
2.426886562700277583e+00
2.426886562700277583e+00
2.432136722922452865e+00
2.432136722922452865e+00
2.380010132145145896e+00
2.380010132145145896e+00
2.224755394146549659e+00
2.224755394146549659e+00
2.224755394146549659e+00
2.205442304757835537e+00
2.205442304757835537e+00
2.164191045869319652e+00
2.164191045869319652e+00
2.112439466536454535e+00
2.112439466536454535e+00
2.186504226813562823e+00
2.186504226813562823e+00
2.281007110812707683e+00
2.281007110812707683e+00
2.418073793755913137e+00
2.418073793755913137e+00
2.517451826532791870e+00
2.517451826532791870e+00
2.516326792199468976e+00
2.516326792199468976e+00
2.516326792199468976e+00
2.494763634144108178e+00
2.494763634144108178e+00
2.419386333811456957e+00
2.419386333811456957e+00
2.331633655812249906e+00
2.331633655812249906e+00
2.390510452589495571e+00
2.390510452589495571e+00
2.308945463423566213e+00
2.308945463423566213e+00
2.165878597369304437e+00
2.165878597369304437e+00
2.129127475814081016e+00
2.129127475814081016e+00
2.030686971648304695e+00
2.030686971648304695e+00
2.032374523148289480e+00
2.032374523148289480e+00
2.032374523148289480e+00
2.171316263313699757e+00
2.171316263313699757e+00
2.287194799645985377e+00
2.287194799645985377e+00
2.260568987090670667e+00
2.260568987090670667e+00
2.216317636646626177e+00
2.216317636646626177e+00
2.166816125980407293e+00
2.166816125980407293e+00
2.257568895535142062e+00
2.257568895535142062e+00
2.230193060090945423e+00
2.230193060090945423e+00
2.185004181035798521e+00
2.185004181035798521e+00
2.206942350535599839e+00
2.206942350535599839e+00
2.206942350535599839e+00
2.141502853480635959e+00
2.141502853480635959e+00
2.155378276924954761e+00
2.155378276924954761e+00
2.254756309701834383e+00
2.254756309701834383e+00
2.328258552812280335e+00
2.328258552812280335e+00
2.395948118533890892e+00
2.395948118533890892e+00
2.438699423200171079e+00
2.438699423200171079e+00
2.373447431867427682e+00
2.373447431867427682e+00
2.293569994201483109e+00
2.293569994201483109e+00
2.293569994201483109e+00
2.228693014313181120e+00
2.228693014313181120e+00
2.304632831812494231e+00
2.304632831812494231e+00
2.419386333811456957e+00
2.419386333811456957e+00
2.432699240089114312e+00
2.432699240089114312e+00
2.459700064088869986e+00
2.459700064088869986e+00
2.459512558366649504e+00
2.459512558366649504e+00
2.341946470534379099e+00
2.341946470534379099e+00
2.373634937589648164e+00
2.373634937589648164e+00
2.373634937589648164e+00
2.383010223700674501e+00
2.383010223700674501e+00
2.326008484145634547e+00
2.326008484145634547e+00
2.314008117923521013e+00
2.314008117923521013e+00
2.238255806146427940e+00
2.238255806146427940e+00
2.222880336924344391e+00
2.222880336924344391e+00
2.223630359813226764e+00
2.223630359813226764e+00
2.198317087313455875e+00
2.198317087313455875e+00
2.142815393536179780e+00
2.142815393536179780e+00
2.100251594592120075e+00
2.100251594592120075e+00
2.100251594592120075e+00
2.061062898648029940e+00
2.061062898648029940e+00
2.203192236091189304e+00
2.203192236091189304e+00
2.237693288979766049e+00
2.237693288979766049e+00
2.104751731925412539e+00
2.104751731925412539e+00
2.132877590258491995e+00
2.132877590258491995e+00
2.145252967925046494e+00
2.145252967925046494e+00
2.197379558702353020e+00
2.197379558702353020e+00
2.344946562089907705e+00
2.344946562089907705e+00
2.344946562089907705e+00
2.461950132755516218e+00
2.461950132755516218e+00
2.461950132755516218e+00
2.461950132755516218e+00
2.359572008423108880e+00
2.359572008423108880e+00
2.254756309701834383e+00
2.254756309701834383e+00
2.294507522812585520e+00
2.294507522812585520e+00
2.295257545701467894e+00
2.295257545701467894e+00
2.307257911923581428e+00
2.307257911923581428e+00
2.392198004089480357e+00
2.392198004089480357e+00
2.334633747367778511e+00
2.334633747367778511e+00
2.334633747367778511e+00
2.353009308145390222e+00
2.353009308145390222e+00
2.425199011200292798e+00
2.425199011200292798e+00
2.387135349589526001e+00
2.387135349589526001e+00
2.343259010589922919e+00
2.343259010589922919e+00
2.289257362590411127e+00
2.289257362590411127e+00
2.231318094424268317e+00
2.231318094424268317e+00
2.214630085146641392e+00
2.214630085146641392e+00
2.230755577257606870e+00
2.230755577257606870e+00
2.230755577257606870e+00
2.260568987090670667e+00
2.260568987090670667e+00
2.292632465590380253e+00
2.292632465590380253e+00
2.271631824701681346e+00
2.271631824701681346e+00
2.302945280312509890e+00
2.302945280312509890e+00
2.315508163701284872e+00
2.315508163701284872e+00
2.176003906369212704e+00
2.176003906369212704e+00
2.066125553147984295e+00
2.066125553147984295e+00
2.066125553147984295e+00
2.038937223426007694e+00
2.038937223426007694e+00
2.035749626148258606e+00
2.035749626148258606e+00
2.155753288369396170e+00
2.155753288369396170e+00
2.426324045533616136e+00
2.426324045533616136e+00
2.591891598254341122e+00
2.591891598254341122e+00
2.529077181310464884e+00
2.529077181310464884e+00
2.339508896145511940e+00
2.339508896145511940e+00
2.265631641590625023e+00
2.265631641590625023e+00
2.265631641590625023e+00
2.231130588702047834e+00
2.231130588702047834e+00
2.270694296090578934e+00
2.270694296090578934e+00
2.401385784478286212e+00
2.401385784478286212e+00
2.435511825922421991e+00
2.435511825922421991e+00
2.191941892757957699e+00
2.191941892757957699e+00
2.051312601092562637e+00
2.051312601092562637e+00
1.903183080538346506e+00
1.903183080538346506e+00
1.753366008484145588e+00
1.753366008484145588e+00
1.782804406872768421e+00
1.782804406872768421e+00
1.876369762260811314e+00
1.876369762260811314e+00
1.962247383037812432e+00
1.962247383037812432e+00
1.962247383037812432e+00
2.112251960814234053e+00
2.112251960814234053e+00
2.175816400646992221e+00
2.175816400646992221e+00
2.120502212591937052e+00
2.120502212591937052e+00
1.974810266426587635e+00
1.974810266426587635e+00
1.881057405316324260e+00
1.881057405316324260e+00
1.988685689870906881e+00
1.988685689870906881e+00
2.165316080202642990e+00
2.165316080202642990e+00
2.308007934812463802e+00
2.308007934812463802e+00
2.500388805810724424e+00
2.500388805810724424e+00
2.500388805810724424e+00
2.520076906643879511e+00
2.520076906643879511e+00
2.609517136143070459e+00
2.609517136143070459e+00
2.750333933530686004e+00
2.750333933530686004e+00
2.935964598529007930e+00
2.935964598529007930e+00
3.239911374248481746e+00
3.239911374248481746e+00
3.077906430249946812e+00
3.077906430249946812e+00
2.675144138920255266e+00
2.675144138920255266e+00
2.345509079256569152e+00
2.345509079256569152e+00
2.345509079256569152e+00
1.975372783593249304e+00
1.975372783593249304e+00
1.822930631427961190e+00
1.822930631427961190e+00
1.815805413983581085e+00
1.815805413983581085e+00
1.693551683095797511e+00
1.693551683095797511e+00
1.605611499374370643e+00
1.605611499374370643e+00
1.550484817041535734e+00
1.550484817041535734e+00
1.697864314706869715e+00
1.697864314706869715e+00
1.755053559984130596e+00
1.755053559984130596e+00
1.755053559984130596e+00
1.822743125705740486e+00
1.822743125705740486e+00
1.810930265205847434e+00
1.810930265205847434e+00
1.860056764427625353e+00
1.860056764427625353e+00
2.107376812036500180e+00
2.107376812036500180e+00
2.466075258644368162e+00
2.466075258644368162e+00
2.843711783196508414e+00
2.843711783196508414e+00
3.024842310861537431e+00
3.024842310861537431e+00
2.968028077028717959e+00
2.968028077028717959e+00
2.968028077028717959e+00
2.854024597918638051e+00
2.854024597918638051e+00
2.758584185308389891e+00
2.758584185308389891e+00
2.791210180974761368e+00
2.791210180974761368e+00
2.670831507309182840e+00
2.670831507309182840e+00
2.551952879421369058e+00
2.551952879421369058e+00
2.297882625812555535e+00
2.297882625812555535e+00
2.061437910092470904e+00
2.061437910092470904e+00
2.197754570146794428e+00
2.197754570146794428e+00
2.197754570146794428e+00
2.304445326090273749e+00
2.304445326090273749e+00
2.317383220923490139e+00
2.317383220923490139e+00
2.246506057924130939e+00
2.246506057924130939e+00
2.132502578814050587e+00
2.132502578814050587e+00
2.001248573259681862e+00
2.001248573259681862e+00
2.108501846369823074e+00
2.108501846369823074e+00
2.123877315591906623e+00
2.123877315591906623e+00
1.977435346537675276e+00
1.977435346537675276e+00
1.977435346537675276e+00
1.800429944761497980e+00
1.800429944761497980e+00
1.712677266762291373e+00
1.712677266762291373e+00
1.712489761040070890e+00
1.712489761040070890e+00
1.762741294595171926e+00
1.762741294595171926e+00
1.785804498428296805e+00
1.785804498428296805e+00
2.107001800592058771e+00
2.107001800592058771e+00
2.658268623920407858e+00
2.658268623920407858e+00
2.910463820307016558e+00
2.910463820307016558e+00
2.910463820307016558e+00
2.903151097140415526e+00
2.903151097140415526e+00
2.608392101809748009e+00
2.608392101809748009e+00
2.346821619312112972e+00
2.346821619312112972e+00
2.308570451979125249e+00
2.308570451979125249e+00
2.382447706534013054e+00
2.382447706534013054e+00
2.371197363200781449e+00
2.371197363200781449e+00
2.109064363536484965e+00
2.109064363536484965e+00
1.951747062593462978e+00
1.951747062593462978e+00
1.892870265816217534e+00
1.892870265816217534e+00
1.892870265816217534e+00
1.887057588427381249e+00
1.887057588427381249e+00
1.972747703482162107e+00
1.972747703482162107e+00
2.192691915646840073e+00
2.192691915646840073e+00
2.343259010589922919e+00
2.343259010589922919e+00
2.574641071810052750e+00
2.574641071810052750e+00
2.639330545976134701e+00
2.639330545976134701e+00
2.398385692922757606e+00
2.398385692922757606e+00
2.232443128757591655e+00
2.232443128757591655e+00
2.232443128757591655e+00
2.233755668813135031e+00
2.233755668813135031e+00
1.999748527481917781e+00
1.999748527481917781e+00
1.825930722983489574e+00
1.825930722983489574e+00
1.997685964537492032e+00
1.997685964537492032e+00
2.229630542924283532e+00
2.229630542924283532e+00
2.208067384868923178e+00
2.208067384868923178e+00
1.729552781762138780e+00
1.729552781762138780e+00
1.668613422040467587e+00
1.668613422040467587e+00
2.043624866481521085e+00
2.043624866481521085e+00
2.384697775200659287e+00
2.384697775200659287e+00
2.384697775200659287e+00
2.802460524307992973e+00
2.802460524307992973e+00
2.904088625751518382e+00
2.904088625751518382e+00
2.712082766197699168e+00
2.712082766197699168e+00
2.488575945310831372e+00
2.488575945310831372e+00
2.306882900479140464e+00
2.306882900479140464e+00
2.069875667592394830e+00
2.069875667592394830e+00
2.043249855037080120e+00
2.043249855037080120e+00
2.180879055146946577e+00
2.180879055146946577e+00
2.180879055146946577e+00
2.422011413922543710e+00
2.422011413922543710e+00
2.523076998199408116e+00
2.523076998199408116e+00
2.521951963866084778e+00
2.521951963866084778e+00
2.352446790978728330e+00
2.352446790978728330e+00
2.145440473647266977e+00
2.145440473647266977e+00
1.937309121982482507e+00
1.937309121982482507e+00
1.803430036317026142e+00
1.803430036317026142e+00
1.743615710928678286e+00
1.743615710928678286e+00
1.703676992095706000e+00
1.703676992095706000e+00
1.703676992095706000e+00
1.854619098483230255e+00
1.854619098483230255e+00
1.854056581316568586e+00
1.854056581316568586e+00
1.693364177373577029e+00
1.693364177373577029e+00
1.762366283150730961e+00
1.762366283150730961e+00
2.157065828424939546e+00
2.157065828424939546e+00
2.554765465254677181e+00
2.554765465254677181e+00
2.908588763084810846e+00
2.908588763084810846e+00
3.071906247138889601e+00
3.071906247138889601e+00
3.071906247138889601e+00
3.027092379528184107e+00
3.027092379528184107e+00
3.042842860194707733e+00
3.042842860194707733e+00
3.117095126194036503e+00
3.117095126194036503e+00
2.939902218695638947e+00
2.939902218695638947e+00
2.900338511307107847e+00
2.900338511307107847e+00
2.725958189642017970e+00
2.725958189642017970e+00
2.702519974364452349e+00
2.702519974364452349e+00
2.428761619922483295e+00
2.428761619922483295e+00
2.428761619922483295e+00
1.840556169316690527e+00
1.840556169316690527e+00
1.529484176152836605e+00
1.529484176152836605e+00
1.335415753654591420e+00
1.335415753654591420e+00
1.126159367656483612e+00
1.126159367656483612e+00
1.157472823267311712e+00
1.157472823267311712e+00
1.243725455488754017e+00
1.243725455488754017e+00
1.530421704763939461e+00
1.530421704763939461e+00
1.950434522537919158e+00
1.950434522537919158e+00
1.950434522537919158e+00
2.105314249092073986e+00
2.105314249092073986e+00
2.050000061037018817e+00
2.050000061037018817e+00
2.158753379924924776e+00
2.158753379924924776e+00
2.325445966978973100e+00
2.325445966978973100e+00
2.767959471419415785e+00
2.767959471419415785e+00
3.145971007415997889e+00
3.145971007415997889e+00
3.338726889858699476e+00
3.338726889858699476e+00
3.103782219916379148e+00
3.103782219916379148e+00
3.103782219916379148e+00
2.490638508255257122e+00
2.490638508255257122e+00
2.384510269478438804e+00
2.384510269478438804e+00
2.311758049256874337e+00
2.311758049256874337e+00
1.803430036317026142e+00
1.803430036317026142e+00
1.266226142155217227e+00
1.266226142155217227e+00
9.684670552690207712e-01
9.684670552690207712e-01
1.127096896267586468e+00
1.127096896267586468e+00
1.200411633655812160e+00
1.200411633655812160e+00
9.962179021576585969e-01
9.962179021576585969e-01
9.962179021576585969e-01
1.565485274819177874e+00
1.565485274819177874e+00
2.237880794701986531e+00
2.237880794701986531e+00
2.767959471419415785e+00
2.767959471419415785e+00
3.292600482192449718e+00
3.292600482192449718e+00
3.215723136082033751e+00
3.215723136082033751e+00
3.189284829248939523e+00
3.189284829248939523e+00
3.157033845027009011e+00
3.157033845027009011e+00
3.157971373638111867e+00
3.157971373638111867e+00
3.157971373638111867e+00
2.893025788140507260e+00
2.893025788140507260e+00
2.671956541642506178e+00
2.671956541642506178e+00
2.836211554307687788e+00
2.836211554307687788e+00
3.118032654805139359e+00
3.118032654805139359e+00
2.951152562028870552e+00
2.951152562028870552e+00
2.668956450086977572e+00
2.668956450086977572e+00
2.560578142643513466e+00
2.560578142643513466e+00
2.560578142643513466e+00
1.986435621204260427e+00
1.986435621204260427e+00
1.609361613818780956e+00
1.609361613818780956e+00
1.585173375652333183e+00
1.585173375652333183e+00
1.642925138096255511e+00
1.642925138096255511e+00
1.620236945707571818e+00
1.620236945707571818e+00
1.622862025818659015e+00
1.622862025818659015e+00
1.548422254097109985e+00
1.548422254097109985e+00
1.681926328318124941e+00
1.681926328318124941e+00
1.954559648426770879e+00
1.954559648426770879e+00
2.121064729758598499e+00
2.121064729758598499e+00
2.205067293313394572e+00
2.205067293313394572e+00
2.205067293313394572e+00
1.550297311319315252e+00
1.550297311319315252e+00
1.479045136875515087e+00
1.479045136875515087e+00
2.012498916592913467e+00
2.012498916592913467e+00
2.534889858699301168e+00
2.534889858699301168e+00
2.606329538865321815e+00
2.606329538865321815e+00
2.028436902981658463e+00
2.028436902981658463e+00
1.630549760429700568e+00
1.630549760429700568e+00
1.692989165929136064e+00
1.692989165929136064e+00
2.230005554368724940e+00
2.230005554368724940e+00
2.230005554368724940e+00
2.673644093142490963e+00
2.673644093142490963e+00
2.875212744529557440e+00
2.875212744529557440e+00
2.847649403363139875e+00
2.847649403363139875e+00
2.833398968474379664e+00
2.833398968474379664e+00
2.858712240974150998e+00
2.858712240974150998e+00
2.332008667256691314e+00
2.332008667256691314e+00
2.174316354869228363e+00
2.174316354869228363e+00
2.470762901699881109e+00
2.470762901699881109e+00
2.470762901699881109e+00
2.751271462141788859e+00
2.751271462141788859e+00
3.230348582415234926e+00
3.230348582415234926e+00
3.288475356303598218e+00
3.288475356303598218e+00
3.160221442304757655e+00
3.160221442304757655e+00
2.872025147251808352e+00
2.872025147251808352e+00
2.572391003143406518e+00
2.572391003143406518e+00
2.357696951200903612e+00
2.357696951200903612e+00
1.977622852259895758e+00
1.977622852259895758e+00
1.977622852259895758e+00
1.441168980986968551e+00
1.441168980986968551e+00
1.093345866267891653e+00
1.093345866267891653e+00
1.271851313821833029e+00
1.271851313821833029e+00
1.952309579760124647e+00
1.952309579760124647e+00
2.685081942197943050e+00
2.685081942197943050e+00
2.789147618030335618e+00
2.789147618030335618e+00
1.971060151982177322e+00
1.971060151982177322e+00
1.529671681875057310e+00
1.529671681875057310e+00
1.265476119266335076e+00
1.265476119266335076e+00
1.265476119266335076e+00
1.093908383434552878e+00
1.093908383434552878e+00
1.173223303933836004e+00
1.173223303933836004e+00
1.549359782708212618e+00
1.549359782708212618e+00
2.318883266701254442e+00
2.318883266701254442e+00
2.803773064363536793e+00
2.803773064363536793e+00
2.664268807031464625e+00
2.664268807031464625e+00
2.567890865810114054e+00
2.567890865810114054e+00
2.783522446363719816e+00
2.783522446363719816e+00
2.783522446363719816e+00
3.000654072695089436e+00
3.000654072695089436e+00
2.925839289529099219e+00
2.925839289529099219e+00
2.385072786645100695e+00
2.385072786645100695e+00
2.166816125980407293e+00
2.166816125980407293e+00
2.346071596423230599e+00
2.346071596423230599e+00
2.195879512924588717e+00
2.195879512924588717e+00
1.699364360484634018e+00
1.699364360484634018e+00
1.751865962706381508e+00
1.751865962706381508e+00
1.751865962706381508e+00
2.188379284035767647e+00
2.188379284035767647e+00
2.917401532029175737e+00
2.917401532029175737e+00
2.863024872585222980e+00
2.863024872585222980e+00
2.611954710531937618e+00
2.611954710531937618e+00
2.760646748252815641e+00
2.760646748252815641e+00
2.442074526200140649e+00
2.442074526200140649e+00
2.323945921201208797e+00
2.323945921201208797e+00
2.296007568590349823e+00
2.296007568590349823e+00
2.296007568590349823e+00
2.026749351481673678e+00
2.026749351481673678e+00
1.835306009094515911e+00
1.835306009094515911e+00
1.773241615039521601e+00
1.773241615039521601e+00
1.941434247871334007e+00
1.941434247871334007e+00
1.917621021149327198e+00
1.917621021149327198e+00
1.832305917538987305e+00
1.832305917538987305e+00
2.178628986480300345e+00
2.178628986480300345e+00
2.658081118198186932e+00
2.658081118198186932e+00
2.658081118198186932e+00
2.896213385418256347e+00
2.896213385418256347e+00
2.835649037141025897e+00
2.835649037141025897e+00
2.627517685476241649e+00
2.627517685476241649e+00
2.439449446089053009e+00
2.439449446089053009e+00
2.398385692922757606e+00
2.398385692922757606e+00
2.489325968199713301e+00
2.489325968199713301e+00
2.331821161534470832e+00
2.331821161534470832e+00
2.331821161534470832e+00
2.232068117313150690e+00
2.232068117313150690e+00
2.263381572923978347e+00
2.263381572923978347e+00
2.202817224646748340e+00
2.202817224646748340e+00
1.833993469038972091e+00
1.833993469038972091e+00
1.324915433210241966e+00
1.324915433210241966e+00
1.206786828211310114e+00
1.206786828211310114e+00
1.469669850764488528e+00
1.469669850764488528e+00
1.832493423261207788e+00
1.832493423261207788e+00
1.586673421430097264e+00
1.586673421430097264e+00
1.923246192815943001e+00
1.923246192815943001e+00
1.923246192815943001e+00
2.104376720480972018e+00
2.104376720480972018e+00
2.669518967253639019e+00
2.669518967253639019e+00
2.478825647755364070e+00
2.478825647755364070e+00
2.636892971587267542e+00
2.636892971587267542e+00
3.436979888302255315e+00
3.436979888302255315e+00
3.707550645466475725e+00
3.707550645466475725e+00
2.975528305917539029e+00
2.975528305917539029e+00
2.392573015533921321e+00
2.392573015533921321e+00
2.392573015533921321e+00
2.216880153813287624e+00
2.216880153813287624e+00
2.101189123203222930e+00
2.101189123203222930e+00
2.055437726981414581e+00
2.055437726981414581e+00
2.030499465926084213e+00
2.030499465926084213e+00
2.197192052980132537e+00
2.197192052980132537e+00
2.253068758201849597e+00
2.253068758201849597e+00
2.363509628589739453e+00
2.363509628589739453e+00
2.547452742088076594e+00
2.547452742088076594e+00
2.547452742088076594e+00
2.488950956755272337e+00
2.488950956755272337e+00
2.793835261085848565e+00
2.793835261085848565e+00
3.021842219306008825e+00
3.021842219306008825e+00
3.078468947416607815e+00
3.078468947416607815e+00
2.957715262306589210e+00
2.957715262306589210e+00
2.443949583422345917e+00
2.443949583422345917e+00
1.860994293038728209e+00
1.860994293038728209e+00
1.825368205816828127e+00
1.825368205816828127e+00
1.825368205816828127e+00
1.940496719260231373e+00
1.940496719260231373e+00
2.000686056093020415e+00
2.000686056093020415e+00
2.050000061037018817e+00
2.050000061037018817e+00
1.920246101260414395e+00
1.920246101260414395e+00
2.467762810144352947e+00
2.467762810144352947e+00
2.547827753532517558e+00
2.547827753532517558e+00
2.214817590868861874e+00
2.214817590868861874e+00
2.430824182866909045e+00
2.430824182866909045e+00
2.430824182866909045e+00
2.230193060090945423e+00
2.230193060090945423e+00
1.855369121372112406e+00
1.855369121372112406e+00
1.182223578600421154e+00
1.182223578600421154e+00
8.595262306588946633e-01
8.595262306588946633e-01
7.318348338267158804e-01
7.318348338267158804e-01
1.158035340433973159e+00
1.158035340433973159e+00
2.183129123813593253e+00
2.183129123813593253e+00
3.293725516525773056e+00
3.293725516525773056e+00
3.293725516525773056e+00
3.661611743522446449e+00
3.661611743522446449e+00
3.753864558854945521e+00
3.753864558854945521e+00
3.829991882076479115e+00
3.829991882076479115e+00
3.507294534134953068e+00
3.507294534134953068e+00
3.123282815027314196e+00
3.123282815027314196e+00
2.620017456587420579e+00
2.620017456587420579e+00
2.280819605090487201e+00
2.280819605090487201e+00
2.266756675923947917e+00
2.266756675923947917e+00
2.266756675923947917e+00
2.315508163701284872e+00
2.315508163701284872e+00
2.273506881923887057e+00
2.273506881923887057e+00
1.947246925260170292e+00
1.947246925260170292e+00
1.722240058595538192e+00
1.722240058595538192e+00
1.817867976928006835e+00
1.817867976928006835e+00
1.964122440260017699e+00
1.964122440260017699e+00
2.283257179479354360e+00
2.283257179479354360e+00
2.408886013367107282e+00
2.408886013367107282e+00
2.408886013367107282e+00
2.422761436811426083e+00
2.422761436811426083e+00
2.185379192480239485e+00
2.185379192480239485e+00
1.871119602038636476e+00
1.871119602038636476e+00
1.834180974761192573e+00
1.834180974761192573e+00
1.870369579149754324e+00
1.870369579149754324e+00
2.103814203314310571e+00
2.103814203314310571e+00
2.132690084536271069e+00
2.132690084536271069e+00
2.029374431592760875e+00
2.029374431592760875e+00
2.029374431592760875e+00
2.297695120090334608e+00
2.297695120090334608e+00
2.648143314920499147e+00
2.648143314920499147e+00
2.609329630420849977e+00
2.609329630420849977e+00
2.694269722586748905e+00
2.694269722586748905e+00
2.497013702810754854e+00
2.497013702810754854e+00
2.459887569811090469e+00
2.459887569811090469e+00
2.115064546647541732e+00
2.115064546647541732e+00
1.068032593768120320e+00
1.068032593768120320e+00
1.068032593768120320e+00
5.383289284951322529e-01
5.383289284951322529e-01
5.874554277169103944e-01
5.874554277169103944e-01
1.150535111545152311e+00
1.150535111545152311e+00
2.393510544145024177e+00
2.393510544145024177e+00
3.580234260078738018e+00
3.580234260078738018e+00
3.812553849909970705e+00
3.812553849909970705e+00
3.842929776909695505e+00
3.842929776909695505e+00
3.554920987578966685e+00
3.554920987578966685e+00
2.972903225806451388e+00
2.972903225806451388e+00
3.018279610583819217e+00
3.018279610583819217e+00
2.995591418195135525e+00
2.995591418195135525e+00
2.995591418195135525e+00
2.885713064973906672e+00
2.885713064973906672e+00
2.366697225867488541e+00
2.366697225867488541e+00
2.161753471480452937e+00
2.161753471480452937e+00
2.399510727256080500e+00
2.399510727256080500e+00
2.145815485091708386e+00
2.145815485091708386e+00
1.855931638538773631e+00
1.855931638538773631e+00
2.125189855647450443e+00
2.125189855647450443e+00
2.392385509811700839e+00
2.392385509811700839e+00
2.392385509811700839e+00
2.059375347148045154e+00
2.059375347148045154e+00
1.701426923429059768e+00
1.701426923429059768e+00
1.288351817377239250e+00
1.288351817377239250e+00
1.438918912320322319e+00
1.438918912320322319e+00
1.999373516037476817e+00
1.999373516037476817e+00
2.581391277809991891e+00
2.581391277809991891e+00
2.831523911252174841e+00
2.831523911252174841e+00
2.565078279976805931e+00
2.565078279976805931e+00
2.336508804589983779e+00
2.336508804589983779e+00
2.336508804589983779e+00
2.218567705313272853e+00
2.218567705313272853e+00
1.803242530594805659e+00
1.803242530594805659e+00
1.790304635761589491e+00
1.790304635761589491e+00
1.870369579149754324e+00
1.870369579149754324e+00
2.024124271370586037e+00
2.024124271370586037e+00
2.444512100589007364e+00
2.444512100589007364e+00
2.914588946195867614e+00
2.914588946195867614e+00
2.914588946195867614e+00
2.754459059419537947e+00
2.754459059419537947e+00
2.387510361033966966e+00
2.387510361033966966e+00
2.288882351145970162e+00
2.288882351145970162e+00
2.199629627368999252e+00
2.199629627368999252e+00
2.218380199591051927e+00
2.218380199591051927e+00
2.324508438367870244e+00
2.324508438367870244e+00
2.423698965422528495e+00
2.423698965422528495e+00
2.551952879421369058e+00
2.551952879421369058e+00
2.665018829920346999e+00
2.665018829920346999e+00
2.914213934751426649e+00
2.914213934751426649e+00
2.867712515640735926e+00
2.867712515640735926e+00
2.867712515640735926e+00
2.302382763145847999e+00
2.302382763145847999e+00
1.998623493148594665e+00
1.998623493148594665e+00
1.958309762871181414e+00
1.958309762871181414e+00
1.893807794427320168e+00
1.893807794427320168e+00
2.107001800592058771e+00
2.107001800592058771e+00
2.527202124088259172e+00
2.527202124088259172e+00
2.816710959196753183e+00
2.816710959196753183e+00
2.918339060640278149e+00
2.918339060640278149e+00
2.606892056031983707e+00
2.606892056031983707e+00
2.606892056031983707e+00
2.338196356089969008e+00
2.338196356089969008e+00
2.058812829981383707e+00
2.058812829981383707e+00
1.991310769981994078e+00
1.991310769981994078e+00
2.064438001647999510e+00
2.064438001647999510e+00
2.101751640369884377e+00
2.101751640369884377e+00
2.240505874813074172e+00
2.240505874813074172e+00
2.247443586535233351e+00
2.247443586535233351e+00
2.170378734702597345e+00
2.170378734702597345e+00
2.170378734702597345e+00
2.163253517258217240e+00
2.163253517258217240e+00
2.073250770592364400e+00
2.073250770592364400e+00
2.070625690481276759e+00
2.070625690481276759e+00
2.135315164647358710e+00
2.135315164647358710e+00
2.467762810144352947e+00
2.467762810144352947e+00
2.789897640919217547e+00
2.789897640919217547e+00
2.753521530808435092e+00
2.753521530808435092e+00
2.176566423535874595e+00
2.176566423535874595e+00
2.176566423535874595e+00
1.922871181371501814e+00
1.922871181371501814e+00
2.021311685537278358e+00
2.021311685537278358e+00
2.370072328867458111e+00
2.370072328867458111e+00
2.541452558977019383e+00
2.541452558977019383e+00
2.632017822809534113e+00
2.632017822809534113e+00
2.622830042420728258e+00
2.622830042420728258e+00
2.546327707754753256e+00
2.546327707754753256e+00
2.033687063203833301e+00
2.033687063203833301e+00
2.033687063203833301e+00
1.489732963042085023e+00
1.489732963042085023e+00
1.537921933652760531e+00
1.537921933652760531e+00
1.849368938261055417e+00
1.849368938261055417e+00
1.985310586870937088e+00
1.985310586870937088e+00
2.335383770256660885e+00
2.335383770256660885e+00
2.710770226142155348e+00
2.710770226142155348e+00
2.703457502975554316e+00
2.703457502975554316e+00
2.798897915585802920e+00
2.798897915585802920e+00
2.464012695699941968e+00
2.464012695699941968e+00
2.106439283425397324e+00
2.106439283425397324e+00
2.106439283425397324e+00
2.021311685537278358e+00
2.021311685537278358e+00
2.342508987701040546e+00
2.342508987701040546e+00
2.543140110477004168e+00
2.543140110477004168e+00
2.650205877864925341e+00
2.650205877864925341e+00
2.851962034974211857e+00
2.851962034974211857e+00
2.971215674306467047e+00
2.971215674306467047e+00
2.679081759086886283e+00
2.679081759086886283e+00
2.365197180089724238e+00
2.365197180089724238e+00
2.270881801812799416e+00
2.270881801812799416e+00
2.270881801812799416e+00
2.176941434980315559e+00
2.176941434980315559e+00
2.251568712424085295e+00
2.251568712424085295e+00
2.232818140202032620e+00
2.232818140202032620e+00
2.119939695425275605e+00
2.119939695425275605e+00
1.943871822260200721e+00
1.943871822260200721e+00
1.844681295205542026e+00
1.844681295205542026e+00
1.908995757927182790e+00
1.908995757927182790e+00
1.849368938261055417e+00
1.849368938261055417e+00
1.849368938261055417e+00
1.921933652760399180e+00
1.921933652760399180e+00
2.127627430036317158e+00
2.127627430036317158e+00
2.323570909756767389e+00
2.323570909756767389e+00
2.269569261757255596e+00
2.269569261757255596e+00
2.298820154423657947e+00
2.298820154423657947e+00
2.429324137089144742e+00
2.429324137089144742e+00
2.654706015198217806e+00
2.654706015198217806e+00
2.798147892696920547e+00
2.798147892696920547e+00
2.596579241309854513e+00
2.596579241309854513e+00
2.596579241309854513e+00
2.474700521866512126e+00
2.474700521866512126e+00
2.324133426923429280e+00
2.324133426923429280e+00
1.937121616260262025e+00
1.937121616260262025e+00
1.893995300149540650e+00
1.893995300149540650e+00
2.289257362590411127e+00
2.289257362590411127e+00
2.475825556199835464e+00
2.475825556199835464e+00
2.621142490920743473e+00
2.621142490920743473e+00
2.464200201422162451e+00
2.464200201422162451e+00
2.464200201422162451e+00
2.603329447309793654e+00
2.603329447309793654e+00
2.797585375530259100e+00
2.797585375530259100e+00
2.735520981475264790e+00
2.735520981475264790e+00
2.808648213141270222e+00
2.808648213141270222e+00
2.705707571642200993e+00
2.705707571642200993e+00
2.342133976256599581e+00
2.342133976256599581e+00
2.100626606036561483e+00
2.100626606036561483e+00
1.926996307260353314e+00
1.926996307260353314e+00
1.926996307260353314e+00
2.112626972258675018e+00
2.112626972258675018e+00
2.559078096865749163e+00
2.559078096865749163e+00
2.554765465254677181e+00
2.554765465254677181e+00
2.290944914090395912e+00
2.290944914090395912e+00
2.145627979369487459e+00
2.145627979369487459e+00
1.746428296761986187e+00
1.746428296761986187e+00
1.699364360484634018e+00
1.699364360484634018e+00
1.836806054872280214e+00
1.836806054872280214e+00
1.836806054872280214e+00
2.118439649647511303e+00
2.118439649647511303e+00
2.581578783532212373e+00
2.581578783532212373e+00
2.787272560808129906e+00
2.787272560808129906e+00
2.720145512253181685e+00
2.720145512253181685e+00
2.579141209143345659e+00
2.579141209143345659e+00
2.486138370921964214e+00
2.486138370921964214e+00
2.423511459700308013e+00
2.423511459700308013e+00
2.282132145146031021e+00
2.282132145146031021e+00
2.282132145146031021e+00
1.883682485427411901e+00
1.883682485427411901e+00
1.610674153874324777e+00
1.610674153874324777e+00
1.424293465987121143e+00
1.424293465987121143e+00
1.513358684041871349e+00
1.513358684041871349e+00
1.470794885097811866e+00
1.470794885097811866e+00
1.943871822260200721e+00
1.943871822260200721e+00
2.936714621417890303e+00
2.936714621417890303e+00
3.524545060579240996e+00
3.524545060579240996e+00
3.524545060579240996e+00
3.626360667744987332e+00
3.626360667744987332e+00
3.403603869747001909e+00
3.403603869747001909e+00
2.996528946806237936e+00
2.996528946806237936e+00
2.544640156254768470e+00
2.544640156254768470e+00
2.305382854701376161e+00
2.305382854701376161e+00
2.145440473647266977e+00
2.145440473647266977e+00
1.938996673482467070e+00
1.938996673482467070e+00
1.623612048707541167e+00
1.623612048707541167e+00
1.623612048707541167e+00
1.544297128208258485e+00
1.544297128208258485e+00
1.942184270760216158e+00
1.942184270760216158e+00
2.362947111423078006e+00
2.362947111423078006e+00
2.553452925199133361e+00
2.553452925199133361e+00
2.431761711478011456e+00
2.431761711478011456e+00
2.274256904812768987e+00
2.274256904812768987e+00
2.385635303811762142e+00
2.385635303811762142e+00
2.728395764030884685e+00
2.728395764030884685e+00
2.728395764030884685e+00
2.903526108584856491e+00
2.903526108584856491e+00
2.799272927030243885e+00
2.799272927030243885e+00
2.691457136753440782e+00
2.691457136753440782e+00
2.338758873256630455e+00
2.338758873256630455e+00
1.982122989593188223e+00
1.982122989593188223e+00
1.940121707815790408e+00
1.940121707815790408e+00
2.064250495925779028e+00
2.064250495925779028e+00
2.179003997924741309e+00
2.179003997924741309e+00
2.215942625202185212e+00
2.215942625202185212e+00
2.215942625202185212e+00
2.311383037812433372e+00
2.311383037812433372e+00
2.515201757866145638e+00
2.515201757866145638e+00
2.614767296365245741e+00
2.614767296365245741e+00
2.688082033753471656e+00
2.688082033753471656e+00
2.639143040253914219e+00
2.639143040253914219e+00
2.404385876033814373e+00
2.404385876033814373e+00
2.258506424146244473e+00
2.258506424146244473e+00
2.188004272591326682e+00
2.188004272591326682e+00
2.188004272591326682e+00
1.911995849482711396e+00
1.911995849482711396e+00
1.790304635761589491e+00
1.790304635761589491e+00
1.795367290261543625e+00
1.795367290261543625e+00
1.798367381817072008e+00
1.798367381817072008e+00
2.034812097537156195e+00
2.034812097537156195e+00
2.210879970702230857e+00
2.210879970702230857e+00
2.257943906979583026e+00
2.257943906979583026e+00
2.326008484145634547e+00
2.326008484145634547e+00
2.326008484145634547e+00
2.488013428144169481e+00
2.488013428144169481e+00
2.626017639698477346e+00
2.626017639698477346e+00
2.554577959532456255e+00
2.554577959532456255e+00
2.616079836420789118e+00
2.616079836420789118e+00
2.708707663197729598e+00
2.708707663197729598e+00
2.684706930753502085e+00
2.684706930753502085e+00
2.470200384533219218e+00
2.470200384533219218e+00
2.225505417035432032e+00
2.225505417035432032e+00
2.225505417035432032e+00
2.012498916592913467e+00
2.012498916592913467e+00
2.241818414868617992e+00
2.241818414868617992e+00
2.126877407147435228e+00
2.126877407147435228e+00
1.890245185705130337e+00
1.890245185705130337e+00
1.885557542649616947e+00
1.885557542649616947e+00
2.193254432813501520e+00
2.193254432813501520e+00
2.485763359477523249e+00
2.485763359477523249e+00
2.478075624866481697e+00
2.478075624866481697e+00
2.478075624866481697e+00
2.307070406201360946e+00
2.307070406201360946e+00
2.435886837366862956e+00
2.435886837366862956e+00
2.456699972533341381e+00
2.456699972533341381e+00
2.423323953978087530e+00
2.423323953978087530e+00
2.340633930478835278e+00
2.340633930478835278e+00
2.438886928922391562e+00
2.438886928922391562e+00
2.373822443311869090e+00
2.373822443311869090e+00
2.301445234534745587e+00
2.301445234534745587e+00
2.301445234534745587e+00
2.211254982146671821e+00
2.211254982146671821e+00
2.264506607257301685e+00
2.264506607257301685e+00
2.385822809533982625e+00
2.385822809533982625e+00
2.549515305032502344e+00
2.549515305032502344e+00
2.723145603808710291e+00
2.723145603808710291e+00
2.806210638752403508e+00
2.806210638752403508e+00
2.810710776085695972e+00
2.810710776085695972e+00
2.654143498031556359e+00
2.654143498031556359e+00
2.654143498031556359e+00
2.553640430921353843e+00
2.553640430921353843e+00
2.333321207312235135e+00
2.333321207312235135e+00
2.092563859981078966e+00
2.092563859981078966e+00
1.865494430372020673e+00
1.865494430372020673e+00
1.636924954985198521e+00
1.636924954985198521e+00
1.635612414929654923e+00
1.635612414929654923e+00
1.953059602649006798e+00
1.953059602649006798e+00
2.135690176091799675e+00
2.135690176091799675e+00
2.135690176091799675e+00
2.111501937925351680e+00
2.111501937925351680e+00
2.221380291146580532e+00
2.221380291146580532e+00
2.430636677144688562e+00
2.430636677144688562e+00
2.692582171086764120e+00
2.692582171086764120e+00
2.588516495254371552e+00
2.588516495254371552e+00
2.540515030365916971e+00
2.540515030365916971e+00
2.584203863643300014e+00
2.584203863643300014e+00
2.555327982421338628e+00
2.555327982421338628e+00
2.555327982421338628e+00
2.396885647144993747e+00
2.396885647144993747e+00
2.422573931089205601e+00
2.422573931089205601e+00
2.404760887478255782e+00
2.404760887478255782e+00
2.349259193700979687e+00
2.349259193700979687e+00
2.160253425702688634e+00
2.160253425702688634e+00
2.141877864925076924e+00
2.141877864925076924e+00
2.442074526200140649e+00
2.442074526200140649e+00
2.483513290810876573e+00
2.483513290810876573e+00
2.248381115146336207e+00
2.248381115146336207e+00
2.248381115146336207e+00
2.329946104312265120e+00
2.329946104312265120e+00
2.437199377422406776e+00
2.437199377422406776e+00
2.414886196478164049e+00
2.414886196478164049e+00
2.178253975035859380e+00
2.178253975035859380e+00
2.078500930814539238e+00
2.078500930814539238e+00
2.303507797479171337e+00
2.303507797479171337e+00
2.359572008423108880e+00
2.359572008423108880e+00
2.289444868312631609e+00
2.289444868312631609e+00
2.318508255256813033e+00
2.318508255256813033e+00
2.318508255256813033e+00
2.327321024201178368e+00
2.327321024201178368e+00
2.395198095645008962e+00
2.395198095645008962e+00
2.487075899533067069e+00
2.487075899533067069e+00
2.446012146366771223e+00
2.446012146366771223e+00
2.405135898922696747e+00
2.405135898922696747e+00
2.449199743644520311e+00
2.449199743644520311e+00
2.395948118533890892e+00
2.395948118533890892e+00
2.449949766533402684e+00
2.449949766533402684e+00
2.449949766533402684e+00
2.395573107089449927e+00
2.395573107089449927e+00
2.253443769646290562e+00
2.253443769646290562e+00
2.157628345591601438e+00
2.157628345591601438e+00
1.937121616260262025e+00
1.937121616260262025e+00
1.814867885372478451e+00
1.814867885372478451e+00
1.858744224372081755e+00
1.858744224372081755e+00
1.885745048371837429e+00
1.885745048371837429e+00
2.085438642536698417e+00
2.085438642536698417e+00
2.085438642536698417e+00
2.233193151646474028e+00
2.233193151646474028e+00
2.355446882534256936e+00
2.355446882534256936e+00
2.590016541032135855e+00
2.590016541032135855e+00
2.780522354808191210e+00
2.780522354808191210e+00
2.725958189642017970e+00
2.725958189642017970e+00
2.661831232642597911e+00
2.661831232642597911e+00
2.398573198644978088e+00
2.398573198644978088e+00
2.271631824701681346e+00
2.271631824701681346e+00
2.257193884090700653e+00
2.257193884090700653e+00
2.257193884090700653e+00
2.261319009979552597e+00
2.261319009979552597e+00
2.254193792535172935e+00
2.254193792535172935e+00
2.271819330423901828e+00
2.271819330423901828e+00
2.507701528977324568e+00
2.507701528977324568e+00
2.449199743644520311e+00
2.449199743644520311e+00
2.298820154423657947e+00
2.298820154423657947e+00
2.368759788811914291e+00
2.368759788811914291e+00
2.501513840144047762e+00
2.501513840144047762e+00
2.583828852198858606e+00
2.583828852198858606e+00
2.583828852198858606e+00
2.573328531754509374e+00
2.573328531754509374e+00
2.550452833643604755e+00
2.550452833643604755e+00
2.428386608478041886e+00
2.428386608478041886e+00
2.498888760032960121e+00
2.498888760032960121e+00
2.477700613422040732e+00
2.477700613422040732e+00
2.286819788201544412e+00
2.286819788201544412e+00
2.128564958647419569e+00
2.128564958647419569e+00
2.111126926480910715e+00
2.111126926480910715e+00
2.111126926480910715e+00
2.189691824091311467e+00
2.189691824091311467e+00
2.323570909756767389e+00
2.323570909756767389e+00
2.375134983367412023e+00
2.375134983367412023e+00
2.377197546311838217e+00
2.377197546311838217e+00
2.366884731589709023e+00
2.366884731589709023e+00
2.360134525589770327e+00
2.360134525589770327e+00
2.400635761589403838e+00
2.400635761589403838e+00
2.354884365367595489e+00
2.354884365367595489e+00
2.354884365367595489e+00
2.261319009979552597e+00
2.261319009979552597e+00
2.293194982757042144e+00
2.293194982757042144e+00
2.184629169591357556e+00
2.184629169591357556e+00
2.120314706869716570e+00
2.120314706869716570e+00
2.160815942869350526e+00
2.160815942869350526e+00
2.095376445814386202e+00
2.095376445814386202e+00
1.995248390148625317e+00
1.995248390148625317e+00
2.031436994537187068e+00
2.031436994537187068e+00
2.031436994537187068e+00
2.047562486648152102e+00
2.047562486648152102e+00
2.161940977202673420e+00
2.161940977202673420e+00
2.341946470534379099e+00
2.341946470534379099e+00
2.474513016144291644e+00
2.474513016144291644e+00
2.633142857142857007e+00
2.633142857142857007e+00
2.719207983642078830e+00
2.719207983642078830e+00
2.616829859309671491e+00
2.616829859309671491e+00
2.524764549699392902e+00
2.524764549699392902e+00
2.359947019867549844e+00
2.359947019867549844e+00
2.359947019867549844e+00
2.268256721701712220e+00
2.268256721701712220e+00
2.294507522812585520e+00
2.294507522812585520e+00
2.413948667867061193e+00
2.413948667867061193e+00
2.427261574144718992e+00
2.427261574144718992e+00
2.428574114200262368e+00
2.428574114200262368e+00
2.356759422589800756e+00
2.356759422589800756e+00
2.273131870479445649e+00
2.273131870479445649e+00
2.301820245979186552e+00
2.301820245979186552e+00
2.439824457533493973e+00
2.439824457533493973e+00
2.561890682699057287e+00
2.561890682699057287e+00
2.561890682699057287e+00
2.458762535477767130e+00
2.458762535477767130e+00
2.379260109256263966e+00
2.379260109256263966e+00
2.356759422589800756e+00
2.356759422589800756e+00
2.223630359813226764e+00
2.223630359813226764e+00
2.201504684591204519e+00
2.201504684591204519e+00
2.226442945646534444e+00
2.226442945646534444e+00
2.251006195257423848e+00
2.251006195257423848e+00
2.266381664479506952e+00
2.266381664479506952e+00
2.266381664479506952e+00
2.281382122257148648e+00
2.281382122257148648e+00
2.339696401867732423e+00
2.339696401867732423e+00
2.362759605700857524e+00
2.362759605700857524e+00
2.312695577867977192e+00
2.312695577867977192e+00
2.307070406201360946e+00
2.307070406201360946e+00
2.256256355479598685e+00
2.256256355479598685e+00
2.179566515091402756e+00
2.179566515091402756e+00
2.265444135868404540e+00
2.265444135868404540e+00
2.265444135868404540e+00
2.281194616534928166e+00
2.281194616534928166e+00
2.160440931424909561e+00
2.160440931424909561e+00
2.191379375591296252e+00
2.191379375591296252e+00
2.246881069368571904e+00
2.246881069368571904e+00
2.080938505203405953e+00
2.080938505203405953e+00
2.131002533036286284e+00
2.131002533036286284e+00
2.195692007202368234e+00
2.195692007202368234e+00
2.335196264534440402e+00
2.335196264534440402e+00
2.335196264534440402e+00
2.427636585589159957e+00
2.427636585589159957e+00
2.549515305032502344e+00
2.549515305032502344e+00
2.705145054475539546e+00
2.705145054475539546e+00
2.796835352641376726e+00
2.796835352641376726e+00
2.706457594531082922e+00
2.706457594531082922e+00
2.745271279030732092e+00
2.745271279030732092e+00
2.501888851588488727e+00
2.501888851588488727e+00
2.288319833979308715e+00
2.288319833979308715e+00
2.288319833979308715e+00
2.316633198034607766e+00
2.316633198034607766e+00
2.323758415478988315e+00
2.323758415478988315e+00
2.297132602923673161e+00
2.297132602923673161e+00
2.237880794701986531e+00
2.237880794701986531e+00
2.193066927091281038e+00
2.193066927091281038e+00
2.224942899868770141e+00
2.224942899868770141e+00
2.272006836146122755e+00
2.272006836146122755e+00
2.320758323923459709e+00
2.320758323923459709e+00
2.320758323923459709e+00
2.363509628589739453e+00
2.363509628589739453e+00
2.331258644367808941e+00
2.331258644367808941e+00
2.306507889034699499e+00
2.306507889034699499e+00
2.338383861812189490e+00
2.338383861812189490e+00
2.240693380535294654e+00
2.240693380535294654e+00
2.249693655201880027e+00
2.249693655201880027e+00
2.221192785424360050e+00
2.221192785424360050e+00
2.247818597979674760e+00
2.247818597979674760e+00
2.247818597979674760e+00
2.319070772423474924e+00
2.319070772423474924e+00
2.334446241645558029e+00
2.334446241645558029e+00
2.328446058534500818e+00
2.328446058534500818e+00
2.365009674367503756e+00
2.365009674367503756e+00
2.377197546311838217e+00
2.377197546311838217e+00
2.361447065645314147e+00
2.361447065645314147e+00
2.302382763145847999e+00
2.302382763145847999e+00
2.221380291146580532e+00
2.221380291146580532e+00
2.221380291146580532e+00
2.260568987090670667e+00
2.260568987090670667e+00
2.245381023590808045e+00
2.245381023590808045e+00
2.255318826868495830e+00
2.255318826868495830e+00
2.339133884701071420e+00
2.339133884701071420e+00
2.347571642200994901e+00
2.347571642200994901e+00
2.345134067812128187e+00
2.345134067812128187e+00
2.263569078646198829e+00
2.263569078646198829e+00
2.170378734702597345e+00
2.170378734702597345e+00
2.170378734702597345e+00
2.238818323313089387e+00
2.238818323313089387e+00
2.329008575701162709e+00
2.329008575701162709e+00
2.465512741477706271e+00
2.465512741477706271e+00
2.588328989532151070e+00
2.588328989532151070e+00
2.491951048310800498e+00
2.491951048310800498e+00
2.412636127811517817e+00
2.412636127811517817e+00
2.457262489700002828e+00
2.457262489700002828e+00
2.457262489700002828e+00
2.389572923978392716e+00
2.389572923978392716e+00
2.316445692312387283e+00
2.316445692312387283e+00
2.340633930478835278e+00
2.340633930478835278e+00
2.290007385479293500e+00
2.290007385479293500e+00
2.248381115146336207e+00
2.248381115146336207e+00
2.239005829035309869e+00
2.239005829035309869e+00
2.263944090090640238e+00
2.263944090090640238e+00
2.339696401867732423e+00
2.339696401867732423e+00
2.356759422589800756e+00
2.356759422589800756e+00
2.356759422589800756e+00
2.363322122867518971e+00
2.363322122867518971e+00
2.405698416089358194e+00
2.405698416089358194e+00
2.359196996978667915e+00
2.359196996978667915e+00
2.343446516312143402e+00
2.343446516312143402e+00
2.404010864589373409e+00
2.404010864589373409e+00
2.290569902645954947e+00
2.290569902645954947e+00
2.222505325479903426e+00
2.222505325479903426e+00
2.173566331980346433e+00
2.173566331980346433e+00
2.144502945036164565e+00
2.144502945036164565e+00
2.144502945036164565e+00
2.224192876979888212e+00
2.224192876979888212e+00
2.251943723868526259e+00
2.251943723868526259e+00
2.246506057924130939e+00
2.246506057924130939e+00
2.296757591479232197e+00
2.296757591479232197e+00
2.331258644367808941e+00
2.331258644367808941e+00
2.422573931089205601e+00
2.422573931089205601e+00
2.423136448255867048e+00
2.423136448255867048e+00
2.366322214423047576e+00
2.366322214423047576e+00
2.366322214423047576e+00
2.377010040589617734e+00
2.377010040589617734e+00
2.433449262977995797e+00
2.433449262977995797e+00
2.323195898312326424e+00
2.323195898312326424e+00
2.272944364757225166e+00
2.272944364757225166e+00
2.241818414868617992e+00
2.241818414868617992e+00
2.211442487868892304e+00
2.211442487868892304e+00
2.338196356089969008e+00
2.338196356089969008e+00
2.356384411145359792e+00
2.356384411145359792e+00
2.356384411145359792e+00
2.324695944090090727e+00
2.324695944090090727e+00
2.370447340311899076e+00
2.370447340311899076e+00
2.440011963255714900e+00
2.440011963255714900e+00
2.526264595477157204e+00
2.526264595477157204e+00
2.478263130588702179e+00
2.478263130588702179e+00
2.384510269478438804e+00
2.384510269478438804e+00
2.428949125644703777e+00
2.428949125644703777e+00
2.369509811700796664e+00
2.369509811700796664e+00
2.369509811700796664e+00
2.265256630146183614e+00
2.265256630146183614e+00
2.238630817590868904e+00
2.238630817590868904e+00
2.156128299813837135e+00
2.156128299813837135e+00
2.131190038758506766e+00
2.131190038758506766e+00
2.194754478591265823e+00
2.194754478591265823e+00
2.230380565813165905e+00
2.230380565813165905e+00
2.286257271034882521e+00
2.286257271034882521e+00
2.336508804589983779e+00
2.336508804589983779e+00
2.342508987701040546e+00
2.342508987701040546e+00
2.342508987701040546e+00
2.380572649311807787e+00
2.380572649311807787e+00
2.346821619312112972e+00
2.346821619312112972e+00
2.295257545701467894e+00
2.295257545701467894e+00
2.376635029145176325e+00
2.376635029145176325e+00
2.303132786034730373e+00
2.303132786034730373e+00
2.232255623035371173e+00
2.232255623035371173e+00
2.229443037202063049e+00
2.229443037202063049e+00
2.234693197424237443e+00
2.234693197424237443e+00
2.234693197424237443e+00
2.281382122257148648e+00
2.281382122257148648e+00
2.313820612201300086e+00
2.313820612201300086e+00
2.321320841090121156e+00
2.321320841090121156e+00
2.353384319589831186e+00
2.353384319589831186e+00
2.347759147923215384e+00
2.347759147923215384e+00
2.362572099978637485e+00
2.362572099978637485e+00
2.414886196478164049e+00
2.414886196478164049e+00
2.414886196478164049e+00
2.378697592089602519e+00
2.378697592089602519e+00
2.399698232978301426e+00
2.399698232978301426e+00
2.400823267311624321e+00
2.400823267311624321e+00
2.293757499923703591e+00
2.293757499923703591e+00
2.312133060701315301e+00
2.312133060701315301e+00
2.282694662312692468e+00
2.282694662312692468e+00
2.266756675923947917e+00
2.266756675923947917e+00
2.293194982757042144e+00
2.293194982757042144e+00
2.293194982757042144e+00
2.288507339701529197e+00
2.288507339701529197e+00
2.302757774590289408e+00
2.302757774590289408e+00
2.354509353923154524e+00
2.354509353923154524e+00
2.369884823145237629e+00
2.369884823145237629e+00
2.411511093478194478e+00
2.411511093478194478e+00
2.422386425366985119e+00
2.422386425366985119e+00
2.371947386089663379e+00
2.371947386089663379e+00
2.395760612811670409e+00
2.395760612811670409e+00
2.395760612811670409e+00
2.368572283089693808e+00
2.368572283089693808e+00
2.248943632312997654e+00
2.248943632312997654e+00
2.213880062257759462e+00
2.213880062257759462e+00
2.155190771202734279e+00
2.155190771202734279e+00
2.134565141758476781e+00
2.134565141758476781e+00
2.179379009369182274e+00
2.179379009369182274e+00
2.210504959257789892e+00
2.210504959257789892e+00
2.305007843256935196e+00
2.305007843256935196e+00
2.382260200811792572e+00
2.382260200811792572e+00
2.394635578478347071e+00
2.394635578478347071e+00
2.394635578478347071e+00
2.428011597033600921e+00
2.411511093478194478e+00
2.411511093478194478e+00
2.411511093478194478e+00
2.392948026978362286e+00
2.392948026978362286e+00
2.444324594866786882e+00
2.444324594866786882e+00
2.357321939756462204e+00
2.357321939756462204e+00
2.271631824701681346e+00
2.271631824701681346e+00
2.232818140202032620e+00
2.232818140202032620e+00
2.164003540147099169e+00
2.164003540147099169e+00
2.155753288369396170e+00
2.155753288369396170e+00
2.196254524369030126e+00
2.196254524369030126e+00
2.196254524369030126e+00
2.224192876979888212e+00
2.224192876979888212e+00
2.293382488479262626e+00
2.293382488479262626e+00
2.356384411145359792e+00
2.356384411145359792e+00
2.380197637867366822e+00
2.380197637867366822e+00
2.397073152867214230e+00
2.397073152867214230e+00
2.358259468367565059e+00
2.358259468367565059e+00
2.366884731589709023e+00
2.366884731589709023e+00
2.461950132755516218e+00
2.461950132755516218e+00
2.461950132755516218e+00
2.392760521256141804e+00
2.392760521256141804e+00
2.379822626422925413e+00
2.379822626422925413e+00
2.338946378978850937e+00
2.338946378978850937e+00
2.197567064424573946e+00
2.197567064424573946e+00
2.193816949980162967e+00
2.193816949980162967e+00
2.238630817590868904e+00
2.238630817590868904e+00
2.280069582201605716e+00
2.280069582201605716e+00
2.333321207312235135e+00
2.333321207312235135e+00
2.333321207312235135e+00
2.346071596423230599e+00
2.346071596423230599e+00
2.379447614978484449e+00
2.379447614978484449e+00
2.409448530533769173e+00
2.409448530533769173e+00
2.361822077089755112e+00
2.361822077089755112e+00
2.385822809533982625e+00
2.385822809533982625e+00
2.395010589922788480e+00
2.395010589922788480e+00
2.281194616534928166e+00
2.281194616534928166e+00
2.258693929868464956e+00
2.258693929868464956e+00
2.258693929868464956e+00
2.219692739646595747e+00
2.219692739646595747e+00
2.182754112369151844e+00
2.182754112369151844e+00
2.209942442091128445e+00
2.209942442091128445e+00
2.217817682424390480e+00
2.217817682424390480e+00
2.273881893368328022e+00
2.273881893368328022e+00
2.342321481978820064e+00
2.342321481978820064e+00
2.351696768089846401e+00
2.351696768089846401e+00
2.388260383922848895e+00
2.388260383922848895e+00
2.394073061311685624e+00
2.394073061311685624e+00
2.394073061311685624e+00
2.352634296700948813e+00
2.352634296700948813e+00
2.403448347422711961e+00
2.403448347422711961e+00
2.359947019867549844e+00
2.359947019867549844e+00
2.266006653035065987e+00
2.266006653035065987e+00
2.250256172368541474e+00
2.250256172368541474e+00
2.192129398480178182e+00
2.192129398480178182e+00
2.179191503646961792e+00
2.179191503646961792e+00
2.179191503646961792e+00
2.232818140202032620e+00
2.232818140202032620e+00
2.254943815424054865e+00
2.254943815424054865e+00
2.308757957701345731e+00
2.308757957701345731e+00
2.360697042756431774e+00
2.360697042756431774e+00
2.375697500534073914e+00
2.375697500534073914e+00
2.425199011200292798e+00
2.425199011200292798e+00
2.403635853144932444e+00
2.403635853144932444e+00
2.364634662923062791e+00
2.364634662923062791e+00
2.364634662923062791e+00
2.420136356700338887e+00
2.420136356700338887e+00
2.327321024201178368e+00
2.327321024201178368e+00
2.250068666646320992e+00
2.250068666646320992e+00
2.227005462813196335e+00
2.227005462813196335e+00
2.170941251869258792e+00
2.170941251869258792e+00
2.179941526535844165e+00
2.179941526535844165e+00
2.214817590868861874e+00
2.214817590868861874e+00
2.235630726035340299e+00
2.235630726035340299e+00
2.235630726035340299e+00
2.291319925534837321e+00
2.291319925534837321e+00
2.320195806756797818e+00
2.320195806756797818e+00
2.350384228034303025e+00
2.350384228034303025e+00
2.412636127811517817e+00
2.412636127811517817e+00
2.381135166478469234e+00
2.381135166478469234e+00
2.386572832422864110e+00
2.386572832422864110e+00
2.450887295144505096e+00
2.450887295144505096e+00
2.344009033478804849e+00
2.344009033478804849e+00
2.344009033478804849e+00
2.291882442701498768e+00
2.291882442701498768e+00
2.236380748924222672e+00
2.236380748924222672e+00
2.197942075869014911e+00
2.197942075869014911e+00
2.222505325479903426e+00
2.222505325479903426e+00
2.253256263924070080e+00
2.253256263924070080e+00
2.298632648701437464e+00
2.298632648701437464e+00
2.340633930478835278e+00
2.340633930478835278e+00
2.351321756645405436e+00
2.351321756645405436e+00
2.392198004089480357e+00
2.392198004089480357e+00
2.411323587755973996e+00
2.411323587755973996e+00
2.356009399700918827e+00
2.356009399700918827e+00
2.356009399700918827e+00
2.397073152867214230e+00
2.397073152867214230e+00
2.389197912533951751e+00
2.389197912533951751e+00
2.283632190923795324e+00
2.283632190923795324e+00
2.257568895535142062e+00
2.257568895535142062e+00
2.209379924924466998e+00
2.209379924924466998e+00
2.184816675313578038e+00
2.184816675313578038e+00
2.216317636646626177e+00
2.216317636646626177e+00
2.230568071535386387e+00
2.230568071535386387e+00
2.230568071535386387e+00
2.297320108645893644e+00
2.297320108645893644e+00
2.339696401867732423e+00
2.339696401867732423e+00
2.353759331034272151e+00
2.353759331034272151e+00
2.416761253700369316e+00
2.416761253700369316e+00
2.395010589922788480e+00
2.395010589922788480e+00
2.350759239478743989e+00
2.350759239478743989e+00
2.415636219367045978e+00
2.415636219367045978e+00
2.351321756645405436e+00
2.351321756645405436e+00
2.351321756645405436e+00
2.269569261757255596e+00
2.269569261757255596e+00
2.258881435590685438e+00
2.258881435590685438e+00
2.201317178868984037e+00
2.201317178868984037e+00
2.191566881313516735e+00
2.191566881313516735e+00
2.229255531479842567e+00
2.229255531479842567e+00
2.248943632312997654e+00
2.248943632312997654e+00
2.312133060701315301e+00
2.312133060701315301e+00
2.350759239478743989e+00
2.350759239478743989e+00
2.350759239478743989e+00
2.361072054200873183e+00
2.361072054200873183e+00
2.425011505478072316e+00
2.425011505478072316e+00
2.393323038422803695e+00
2.393323038422803695e+00
2.373634937589648164e+00
2.373634937589648164e+00
2.417511276589251690e+00
2.417511276589251690e+00
2.291319925534837321e+00
2.291319925534837321e+00
2.240505874813074172e+00
2.240505874813074172e+00
2.218942716757713818e+00
2.218942716757713818e+00
2.218942716757713818e+00
2.166816125980407293e+00
2.166816125980407293e+00
2.172816309091464060e+00
2.172816309091464060e+00
2.210879970702230857e+00
2.210879970702230857e+00
2.265819147312845505e+00
2.265819147312845505e+00
2.340633930478835278e+00
2.340633930478835278e+00
2.361822077089755112e+00
2.361822077089755112e+00
2.388072878200628413e+00
2.388072878200628413e+00
2.429324137089144742e+00
2.429324137089144742e+00
2.429324137089144742e+00
2.381885189367351607e+00
2.381885189367351607e+00
2.392573015533921321e+00
2.392573015533921321e+00
2.400448255867183356e+00
2.400448255867183356e+00
2.278569536423841413e+00
2.278569536423841413e+00
2.246131046479689974e+00
2.246131046479689974e+00
2.200004638813440216e+00
2.200004638813440216e+00
2.166628620258186366e+00
2.166628620258186366e+00
2.202254707480086449e+00
2.202254707480086449e+00
2.202254707480086449e+00
2.224942899868770141e+00
2.224942899868770141e+00
2.278382030701620931e+00
2.278382030701620931e+00
2.336696310312204705e+00
2.336696310312204705e+00
2.347196630756553937e+00
2.347196630756553937e+00
2.393323038422803695e+00
2.393323038422803695e+00
2.407760979033784388e+00
2.407760979033784388e+00
2.359572008423108880e+00
2.359572008423108880e+00
2.401385784478286212e+00
2.401385784478286212e+00
2.401385784478286212e+00
2.360509537034211291e+00
2.360509537034211291e+00
2.265069124423963132e+00
2.265069124423963132e+00
2.253068758201849597e+00
2.253068758201849597e+00
2.208817407757805107e+00
2.208817407757805107e+00
2.188379284035767647e+00
2.188379284035767647e+00
2.226067934202093479e+00
2.226067934202093479e+00
2.239005829035309869e+00
2.239005829035309869e+00
2.239005829035309869e+00
2.291132419812616394e+00
2.291132419812616394e+00
2.335196264534440402e+00
2.335196264534440402e+00
2.348884182256538722e+00
2.348884182256538722e+00
2.401573290200506694e+00
2.401573290200506694e+00
2.394823084200567997e+00
2.394823084200567997e+00
2.365384685811944721e+00
2.365384685811944721e+00
2.424823999755851833e+00
2.424823999755851833e+00
2.333133701590014208e+00
2.333133701590014208e+00
2.333133701590014208e+00
2.258318918424023991e+00
2.258318918424023991e+00
2.243130954924161813e+00
2.243130954924161813e+00
2.188379284035767647e+00
2.188379284035767647e+00
2.186129215369121415e+00
2.186129215369121415e+00
2.222317819757682944e+00
2.222317819757682944e+00
2.249693655201880027e+00
2.249693655201880027e+00
2.312133060701315301e+00
2.312133060701315301e+00
2.341008941923276243e+00
2.341008941923276243e+00
2.358821985534226506e+00
2.358821985534226506e+00
2.358821985534226506e+00
2.399885738700521909e+00
2.365759697256386129e+00
2.365759697256386129e+00
2.365759697256386129e+00
2.368197271645252844e+00
2.368197271645252844e+00
2.402135807367168141e+00
2.402135807367168141e+00
2.288507339701529197e+00
2.288507339701529197e+00
2.242568437757499922e+00
2.242568437757499922e+00
2.206567339091158875e+00
2.206567339091158875e+00
2.174128849147007880e+00
2.174128849147007880e+00
2.220630268257698603e+00
2.220630268257698603e+00
2.220630268257698603e+00
2.257006378368480615e+00
2.257006378368480615e+00
2.293945005645924073e+00
2.293945005645924073e+00
2.346634113589892490e+00
2.346634113589892490e+00
2.352634296700948813e+00
2.352634296700948813e+00
2.381135166478469234e+00
2.381135166478469234e+00
2.401573290200506694e+00
2.401573290200506694e+00
2.353571825312051669e+00
2.353571825312051669e+00
2.394448072756126589e+00
2.394448072756126589e+00
2.392385509811700839e+00
2.392385509811700839e+00
2.392385509811700839e+00
2.281757133701590057e+00
2.281757133701590057e+00
2.251568712424085295e+00
2.251568712424085295e+00
2.202817224646748340e+00
2.202817224646748340e+00
2.172628803369243577e+00
2.172628803369243577e+00
2.215005096591082356e+00
2.215005096591082356e+00
2.233193151646474028e+00
2.233193151646474028e+00
2.283444685201574842e+00
2.283444685201574842e+00
2.346634113589892490e+00
2.346634113589892490e+00
2.346634113589892490e+00
2.370072328867458111e+00
2.370072328867458111e+00
2.415636219367045978e+00
2.415636219367045978e+00
2.397448164311655194e+00
2.397448164311655194e+00
2.353759331034272151e+00
2.353759331034272151e+00
2.412636127811517817e+00
2.412636127811517817e+00
2.345884090701010116e+00
2.345884090701010116e+00
2.270694296090578934e+00
2.270694296090578934e+00
2.242380932035279439e+00
2.242380932035279439e+00
2.187816766869105756e+00
2.187816766869105756e+00
2.187816766869105756e+00
2.180316537980285130e+00
2.180316537980285130e+00
2.226255439924313961e+00
2.226255439924313961e+00
2.258131412701803509e+00
2.258131412701803509e+00
2.306320383312479017e+00
2.306320383312479017e+00
2.337258827478866152e+00
2.337258827478866152e+00
2.364447157200842309e+00
2.364447157200842309e+00
2.428386608478041886e+00
2.428386608478041886e+00
2.402698324533829588e+00
2.402698324533829588e+00
2.402698324533829588e+00
2.380010132145145896e+00
2.380010132145145896e+00
2.428761619922483295e+00
2.428761619922483295e+00
2.323945921201208797e+00
2.323945921201208797e+00
2.258131412701803509e+00
2.258131412701803509e+00
2.221942808313242423e+00
2.221942808313242423e+00
2.172253791924802613e+00
2.172253791924802613e+00
2.187066743980223826e+00
2.187066743980223826e+00
2.225317911313211550e+00
2.225317911313211550e+00
2.225317911313211550e+00
2.261131504257332114e+00
2.261131504257332114e+00
2.319445783867915889e+00
2.319445783867915889e+00
2.344571550645466296e+00
2.344571550645466296e+00
2.376635029145176325e+00
2.376635029145176325e+00
2.411323587755973996e+00
2.411323587755973996e+00
2.366697225867488541e+00
2.366697225867488541e+00
2.382635212256233537e+00
2.382635212256233537e+00
2.398198187200537124e+00
2.398198187200537124e+00
2.398198187200537124e+00
2.287194799645985377e+00
2.287194799645985377e+00
2.260568987090670667e+00
2.260568987090670667e+00
2.223442854091006282e+00
2.223442854091006282e+00
2.180316537980285130e+00
2.180316537980285130e+00
2.216130130924405695e+00
2.216130130924405695e+00
2.233568163090914993e+00
2.233568163090914993e+00
2.275569444868312807e+00
2.275569444868312807e+00
2.332196172978911797e+00
2.332196172978911797e+00
2.332196172978911797e+00
2.347196630756553937e+00
2.347196630756553937e+00
2.400823267311624321e+00
2.400823267311624321e+00
2.408511001922666317e+00
2.408511001922666317e+00
2.361634571367534630e+00
2.361634571367534630e+00
2.413386150700399746e+00
2.413386150700399746e+00
2.381885189367351607e+00
2.381885189367351607e+00
2.288319833979308715e+00
2.288319833979308715e+00
2.250256172368541474e+00
2.250256172368541474e+00
2.250256172368541474e+00
2.191566881313516735e+00
2.191566881313516735e+00
2.170941251869258792e+00
2.170941251869258792e+00
2.212567522202215642e+00
2.212567522202215642e+00
2.231318094424268317e+00
2.231318094424268317e+00
2.289632374034852091e+00
2.289632374034852091e+00
2.343259010589922919e+00
2.343259010589922919e+00
2.356946928312021239e+00
2.356946928312021239e+00
2.404010864589373409e+00
2.404010864589373409e+00
2.383947752311777357e+00
2.383947752311777357e+00
2.352259285256507848e+00
2.352259285256507848e+00
2.408886013367107282e+00
2.408886013367107282e+00
2.408886013367107282e+00
2.315320657979064389e+00
2.315320657979064389e+00
2.246881069368571904e+00
2.246881069368571904e+00
2.229068025757622085e+00
2.229068025757622085e+00
2.179566515091402756e+00
2.179566515091402756e+00
2.179379009369182274e+00
2.179379009369182274e+00
2.214817590868861874e+00
2.214817590868861874e+00
2.248006103701895242e+00
2.248006103701895242e+00
2.308570451979125249e+00
2.308570451979125249e+00
2.335196264534440402e+00
2.335196264534440402e+00
2.335196264534440402e+00
2.348884182256538722e+00
2.348884182256538722e+00
2.390510452589495571e+00
2.390510452589495571e+00
2.350759239478743989e+00
2.350759239478743989e+00
2.360884548478652700e+00
2.360884548478652700e+00
2.402135807367168141e+00
2.402135807367168141e+00
2.306695394756919981e+00
2.306695394756919981e+00
2.283632190923795324e+00
2.283632190923795324e+00
2.245381023590808045e+00
2.245381023590808045e+00
2.245381023590808045e+00
2.187254249702444309e+00
2.187254249702444309e+00
2.216880153813287624e+00
2.216880153813287624e+00
2.248568620868556689e+00
2.248568620868556689e+00
2.287757316812646824e+00
2.287757316812646824e+00
2.340821436201055761e+00
2.340821436201055761e+00
2.350196722312082542e+00
2.350196722312082542e+00
2.394260567033906106e+00
2.394260567033906106e+00
2.409448530533769173e+00
2.409448530533769173e+00
2.409448530533769173e+00
2.358071962645344577e+00
2.358071962645344577e+00
2.395760612811670409e+00
2.395760612811670409e+00
2.385260292367321178e+00
2.385260292367321178e+00
2.271256813257240381e+00
2.271256813257240381e+00
2.231880611590930208e+00
2.231880611590930208e+00
2.175441389202551257e+00
2.175441389202551257e+00
2.150503128147221332e+00
2.150503128147221332e+00
2.200942167424543072e+00
2.200942167424543072e+00
2.213505050813318054e+00
2.213505050813318054e+00
2.213505050813318054e+00
2.280444593646046680e+00
2.280444593646046680e+00
2.348884182256538722e+00
2.348884182256538722e+00
2.371384868923001932e+00
2.371384868923001932e+00
2.430636677144688562e+00
2.430636677144688562e+00
2.430261665700247153e+00
2.430261665700247153e+00
2.380572649311807787e+00
2.380572649311807787e+00
2.433449262977995797e+00
2.433449262977995797e+00
2.353384319589831186e+00
2.353384319589831186e+00
2.266194158757286470e+00
2.266194158757286470e+00
2.266194158757286470e+00
2.242005920590838475e+00
2.242005920590838475e+00
2.176191412091433186e+00
2.176191412091433186e+00
2.178441480758079862e+00
2.178441480758079862e+00
2.228318002868740155e+00
2.228318002868740155e+00
2.242943449201941331e+00
2.242943449201941331e+00
2.302945280312509890e+00
2.302945280312509890e+00
2.356384411145359792e+00
2.356384411145359792e+00
2.364634662923062791e+00
2.364634662923062791e+00
2.410573564867091623e+00
2.410573564867091623e+00
2.410573564867091623e+00
2.378510086367381593e+00
2.378510086367381593e+00
2.363134617145298488e+00
2.363134617145298488e+00
2.418636310922574584e+00
2.418636310922574584e+00
2.313820612201300086e+00
2.313820612201300086e+00
2.256818872646260132e+00
2.256818872646260132e+00
2.227005462813196335e+00
2.227005462813196335e+00
2.175253883480330774e+00
2.175253883480330774e+00
2.195129490035706787e+00
2.195129490035706787e+00
2.195129490035706787e+00
2.232818140202032620e+00
2.232818140202032620e+00
2.267319193090609808e+00
2.267319193090609808e+00
2.328821069978942226e+00
2.328821069978942226e+00
2.349259193700979687e+00
2.349259193700979687e+00
2.380010132145145896e+00
2.380010132145145896e+00
2.420511368144779851e+00
2.420511368144779851e+00
2.375322489089632505e+00
2.375322489089632505e+00
2.379635120700704931e+00
2.379635120700704931e+00
2.391447981200597983e+00
2.391447981200597983e+00
2.391447981200597983e+00
2.278569536423841413e+00
2.278569536423841413e+00
2.248568620868556689e+00
2.248568620868556689e+00
2.209567430646687480e+00
2.209567430646687480e+00
2.169628711813714972e+00
2.169628711813714972e+00
2.207879879146702695e+00
2.207879879146702695e+00
2.228880520035401602e+00
2.228880520035401602e+00
2.275006927701650916e+00
2.275006927701650916e+00
2.331071138645588459e+00
2.331071138645588459e+00
2.331071138645588459e+00
2.338571367534409973e+00
2.338571367534409973e+00
2.390885464033936536e+00
2.390885464033936536e+00
2.406635944700461049e+00
2.406635944700461049e+00
2.367259743034150432e+00
2.367259743034150432e+00
2.420886379589221260e+00
2.420886379589221260e+00
2.375322489089632505e+00
2.375322489089632505e+00
2.275194433423871843e+00
2.275194433423871843e+00
2.251756218146305777e+00
2.251756218146305777e+00
2.198129581591235393e+00
2.198129581591235393e+00
2.198129581591235393e+00
2.175066377758110736e+00
2.175066377758110736e+00
2.220630268257698603e+00
2.220630268257698603e+00
2.235630726035340299e+00
2.235630726035340299e+00
2.292069948423719250e+00
2.292069948423719250e+00
2.338946378978850937e+00
2.338946378978850937e+00
2.357321939756462204e+00
2.357321939756462204e+00
2.411886104922635443e+00
2.411886104922635443e+00
2.395385601367229444e+00
2.395385601367229444e+00
2.395385601367229444e+00
2.357321939756462204e+00
2.357321939756462204e+00
2.414698690755943566e+00
2.414698690755943566e+00
2.325070955534531691e+00
2.325070955534531691e+00
2.254193792535172935e+00
2.254193792535172935e+00
2.239755851924192243e+00
2.239755851924192243e+00
2.191754387035737217e+00
2.191754387035737217e+00
2.192316904202398664e+00
2.192316904202398664e+00
2.232630634479812137e+00
2.232630634479812137e+00
2.232630634479812137e+00
2.255131321146275347e+00
2.255131321146275347e+00
2.317008209479048730e+00
2.317008209479048730e+00
2.347571642200994901e+00
2.347571642200994901e+00
2.370447340311899076e+00
2.370447340311899076e+00
2.410573564867091623e+00
2.410573564867091623e+00
2.378322580645161111e+00
2.378322580645161111e+00
2.388635395367290304e+00
2.388635395367290304e+00
2.431011688589129527e+00
2.431011688589129527e+00
2.431011688589129527e+00
2.317570726645710621e+00
2.317570726645710621e+00
2.267881710257271255e+00
2.267881710257271255e+00
2.227942991424298746e+00
2.227942991424298746e+00
2.181066560869167059e+00
2.181066560869167059e+00
2.210692464980010374e+00
2.210692464980010374e+00
2.244443494979705633e+00
2.244443494979705633e+00
2.276319467757194737e+00
2.276319467757194737e+00
2.336696310312204705e+00
2.336696310312204705e+00
2.352259285256507848e+00
2.352259285256507848e+00
2.352259285256507848e+00
2.393135532700583212e+00
2.393135532700583212e+00
2.414136173589282119e+00
2.414136173589282119e+00
2.362009582811975594e+00
2.362009582811975594e+00
2.400823267311624321e+00
2.400823267311624321e+00
2.383010223700674501e+00
2.383010223700674501e+00
2.271069307535019899e+00
2.271069307535019899e+00
2.249506149479659545e+00
2.249506149479659545e+00
2.198504593035676358e+00
2.198504593035676358e+00
2.198504593035676358e+00
2.166253608813745402e+00
2.166253608813745402e+00
2.199629627368999252e+00
2.199629627368999252e+00
2.213880062257759462e+00
2.213880062257759462e+00
2.265256630146183614e+00
2.265256630146183614e+00
2.332571184423352761e+00
2.332571184423352761e+00
2.355446882534256936e+00
2.355446882534256936e+00
2.416011230811487387e+00
2.416011230811487387e+00
2.431386700033570492e+00
2.431386700033570492e+00
2.431386700033570492e+00
2.397635670033875677e+00
2.397635670033875677e+00
2.446199652088991705e+00
2.446199652088991705e+00
2.369322305978576182e+00
2.369322305978576182e+00
2.271256813257240381e+00
2.271256813257240381e+00
2.245943540757469048e+00
2.245943540757469048e+00
2.190254341257972914e+00
2.190254341257972914e+00
2.184629169591357556e+00
2.184629169591357556e+00
2.233755668813135031e+00
2.233755668813135031e+00
2.233755668813135031e+00
2.248381115146336207e+00
2.248381115146336207e+00
2.304070314645832784e+00
2.304070314645832784e+00
2.343446516312143402e+00
2.343446516312143402e+00
2.358634479812006024e+00
2.358634479812006024e+00
2.412073610644855925e+00
2.412073610644855925e+00
2.387322855311746483e+00
2.387322855311746483e+00
2.364634662923062791e+00
2.364634662923062791e+00
2.412636127811517817e+00
2.412636127811517817e+00
2.412636127811517817e+00
2.311008026367992407e+00
2.311008026367992407e+00
2.256818872646260132e+00
2.256818872646260132e+00
2.224567888424329176e+00
2.224567888424329176e+00
2.174503860591448845e+00
2.174503860591448845e+00
2.198317087313455875e+00
2.198317087313455875e+00
2.230005554368724940e+00
2.230005554368724940e+00
2.252318735312967224e+00
2.252318735312967224e+00
2.319633289590136371e+00
2.319633289590136371e+00
2.351134250923184954e+00
2.351134250923184954e+00
2.351134250923184954e+00
2.390135441145054607e+00
2.390135441145054607e+00
2.426324045533616136e+00
2.426324045533616136e+00
2.383197729422894984e+00
2.383197729422894984e+00
2.396510635700552783e+00
2.396510635700552783e+00
2.406823450422681532e+00
2.406823450422681532e+00
2.296195074312570750e+00
2.296195074312570750e+00
2.263194067201757864e+00
2.263194067201757864e+00
2.217817682424390480e+00
2.217817682424390480e+00
2.178816492202520827e+00
2.178816492202520827e+00
2.178816492202520827e+00
2.212380016479995160e+00
2.212380016479995160e+00
2.227005462813196335e+00
2.227005462813196335e+00
2.268444227423932702e+00
2.268444227423932702e+00
2.323008392590105942e+00
2.323008392590105942e+00
2.337258827478866152e+00
2.337258827478866152e+00
2.388072878200628413e+00
2.388072878200628413e+00
2.397260658589434712e+00
2.397260658589434712e+00
2.357134434034241721e+00
2.357134434034241721e+00
2.357134434034241721e+00
2.413948667867061193e+00
2.413948667867061193e+00
2.374759971922971058e+00
2.374759971922971058e+00
2.279882076479384789e+00
2.279882076479384789e+00
2.265069124423963132e+00
2.265069124423963132e+00
2.212942533646656607e+00
2.212942533646656607e+00
2.184066652424695665e+00
2.184066652424695665e+00
2.223817865535447247e+00
2.223817865535447247e+00
2.238255806146427940e+00
2.238255806146427940e+00
2.238255806146427940e+00
2.289257362590411127e+00
2.289257362590411127e+00
2.337821344645527599e+00
2.337821344645527599e+00
2.355634388256477418e+00
2.355634388256477418e+00
2.420511368144779851e+00
2.420511368144779851e+00
2.401948301644947659e+00
2.401948301644947659e+00
2.366884731589709023e+00
2.366884731589709023e+00
2.432136722922452865e+00
2.432136722922452865e+00
2.341571459089938134e+00
2.341571459089938134e+00
2.341571459089938134e+00
2.267694204535050773e+00
2.267694204535050773e+00
2.240505874813074172e+00
2.240505874813074172e+00
2.183316629535813735e+00
2.183316629535813735e+00
2.188566789757988129e+00
2.188566789757988129e+00
2.229443037202063049e+00
2.229443037202063049e+00
2.248756126590777171e+00
2.248756126590777171e+00
2.306882900479140464e+00
2.306882900479140464e+00
2.336883816034425188e+00
2.336883816034425188e+00
2.336883816034425188e+00
2.355071871089815971e+00
2.355071871089815971e+00
2.403073335978270997e+00
2.403073335978270997e+00
2.365572191534165203e+00
2.365572191534165203e+00
2.366697225867488541e+00
2.366697225867488541e+00
2.403823358867152926e+00
2.403823358867152926e+00
2.304632831812494231e+00
2.304632831812494231e+00
2.262631550035096417e+00
2.262631550035096417e+00
2.230380565813165905e+00
2.230380565813165905e+00
2.230380565813165905e+00
2.186691732535783306e+00
2.186691732535783306e+00
2.218192693868831444e+00
2.218192693868831444e+00
2.241443403424177028e+00
