2.247631092257453833e+00
2.247631092257453833e+00
2.247631092257453833e+00
2.247631092257453833e+00
2.224192876979888212e+00
2.224192876979888212e+00
2.224192876979888212e+00
2.164003540147099169e+00
2.164003540147099169e+00
2.164003540147099169e+00
2.172441297647023095e+00
2.172441297647023095e+00
2.172441297647023095e+00
2.172441297647023095e+00
2.218192693868831444e+00
2.218192693868831444e+00
2.218192693868831444e+00
2.242005920590838475e+00
2.242005920590838475e+00
2.242005920590838475e+00
2.307257911923581428e+00
2.307257911923581428e+00
2.307257911923581428e+00
2.307257911923581428e+00
2.342696493423261028e+00
2.342696493423261028e+00
2.342696493423261028e+00
2.365759697256386129e+00
2.365759697256386129e+00
2.365759697256386129e+00
2.422198919644764192e+00
2.422198919644764192e+00
2.422198919644764192e+00
2.422198919644764192e+00
2.389010406811731269e+00
2.389010406811731269e+00
2.389010406811731269e+00
2.377572557756279181e+00
2.377572557756279181e+00
2.377572557756279181e+00
2.428949125644703777e+00
2.428949125644703777e+00
2.428949125644703777e+00
2.428949125644703777e+00
2.310820520645771925e+00
2.310820520645771925e+00
2.310820520645771925e+00
2.256068849757378203e+00
2.256068849757378203e+00
2.256068849757378203e+00
2.213317545091097571e+00
2.213317545091097571e+00
2.213317545091097571e+00
2.213317545091097571e+00
2.157065828424939546e+00
2.157065828424939546e+00
2.157065828424939546e+00
2.184441663869136629e+00
2.184441663869136629e+00
2.184441663869136629e+00
2.184441663869136629e+00
2.216505142368846659e+00
2.216505142368846659e+00
2.216505142368846659e+00
2.254193792535172935e+00
2.254193792535172935e+00
2.254193792535172935e+00
2.321508346812341639e+00
2.321508346812341639e+00
2.321508346812341639e+00
2.321508346812341639e+00
2.346446607867672007e+00
2.346446607867672007e+00
2.346446607867672007e+00
2.391822992645039392e+00
2.391822992645039392e+00
2.391822992645039392e+00
2.427636585589159957e+00
2.427636585589159957e+00
2.427636585589159957e+00
2.427636585589159957e+00
2.381135166478469234e+00
2.381135166478469234e+00
2.381135166478469234e+00
2.398010681478316641e+00
2.398010681478316641e+00
2.398010681478316641e+00
2.398010681478316641e+00
2.395010589922788480e+00
2.395010589922788480e+00
2.395010589922788480e+00
2.278382030701620931e+00
2.278382030701620931e+00
2.278382030701620931e+00
2.254006286812952009e+00
2.254006286812952009e+00
2.254006286812952009e+00
2.207129856257820322e+00
2.207129856257820322e+00
2.207129856257820322e+00
2.207129856257820322e+00
2.166816125980407293e+00
2.166816125980407293e+00
2.166816125980407293e+00
2.210317453535568966e+00
2.210317453535568966e+00
2.210317453535568966e+00
2.219317728202154782e+00
2.219317728202154782e+00
2.219317728202154782e+00
2.219317728202154782e+00
2.279694570757164307e+00
2.279694570757164307e+00
2.279694570757164307e+00
2.335196264534440402e+00
2.335196264534440402e+00
2.335196264534440402e+00
2.351134250923184954e+00
2.351134250923184954e+00
2.351134250923184954e+00
2.351134250923184954e+00
2.409073519089327764e+00
2.409073519089327764e+00
2.409073519089327764e+00
2.415636219367045978e+00
2.415636219367045978e+00
2.415636219367045978e+00
2.366509720145268059e+00
2.366509720145268059e+00
2.366509720145268059e+00
2.366509720145268059e+00
2.418823816644795066e+00
2.418823816644795066e+00
2.418823816644795066e+00
2.357884456923124095e+00
2.357884456923124095e+00
2.357884456923124095e+00
2.246506057924130939e+00
2.246506057924130939e+00
2.246506057924130939e+00
2.225317911313211550e+00
2.225317911313211550e+00
2.225317911313211550e+00
2.225317911313211550e+00
2.164941068758201581e+00
2.164941068758201581e+00
2.164941068758201581e+00
2.150690633869442259e+00
2.150690633869442259e+00
2.150690633869442259e+00
2.204879787591174090e+00
2.204879787591174090e+00
2.204879787591174090e+00
2.204879787591174090e+00
2.230193060090945423e+00
2.230193060090945423e+00
2.230193060090945423e+00
2.298632648701437464e+00
2.298632648701437464e+00
2.298632648701437464e+00
2.350009216589862060e+00
2.350009216589862060e+00
2.350009216589862060e+00
2.350009216589862060e+00
2.367634754478591397e+00
2.367634754478591397e+00
2.367634754478591397e+00
2.426886562700277583e+00
2.426886562700277583e+00
2.426886562700277583e+00
2.410198553422650658e+00
2.410198553422650658e+00
2.410198553422650658e+00
2.410198553422650658e+00
2.379635120700704931e+00
2.379635120700704931e+00
2.379635120700704931e+00
2.444137089144566399e+00
2.444137089144566399e+00
2.444137089144566399e+00
2.330321115756706529e+00
2.330321115756706529e+00
2.330321115756706529e+00
2.330321115756706529e+00
2.255881344035157721e+00
2.255881344035157721e+00
2.255881344035157721e+00
2.218192693868831444e+00
2.218192693868831444e+00
2.218192693868831444e+00
2.218192693868831444e+00
2.156315805536057617e+00
2.156315805536057617e+00
2.156315805536057617e+00
2.170753746147038310e+00
2.170753746147038310e+00
2.170753746147038310e+00
2.216880153813287624e+00
2.216880153813287624e+00
2.216880153813287624e+00
2.216880153813287624e+00
2.251943723868526259e+00
2.251943723868526259e+00
2.251943723868526259e+00
2.317195715201269657e+00
2.317195715201269657e+00
2.317195715201269657e+00
2.342696493423261028e+00
2.342696493423261028e+00
2.342696493423261028e+00
2.342696493423261028e+00
2.372884914700766235e+00
2.372884914700766235e+00
2.372884914700766235e+00
2.429324137089144742e+00
2.429324137089144742e+00
2.429324137089144742e+00
2.388635395367290304e+00
2.388635395367290304e+00
2.388635395367290304e+00
2.388635395367290304e+00
2.387322855311746483e+00
2.387322855311746483e+00
2.387322855311746483e+00
2.415073702200384531e+00
2.415073702200384531e+00
2.415073702200384531e+00
2.289069856868190644e+00
2.289069856868190644e+00
2.289069856868190644e+00
2.289069856868190644e+00
2.248006103701895242e+00
2.248006103701895242e+00
2.248006103701895242e+00
2.202067201757865966e+00
2.202067201757865966e+00
2.202067201757865966e+00
2.152190679647205673e+00
2.152190679647205673e+00
2.152190679647205673e+00
2.152190679647205673e+00
2.190629352702413879e+00
2.190629352702413879e+00
2.190629352702413879e+00
2.226255439924313961e+00
2.226255439924313961e+00
2.226255439924313961e+00
2.270131778923917043e+00
2.270131778923917043e+00
2.270131778923917043e+00
2.270131778923917043e+00
2.336696310312204705e+00
2.336696310312204705e+00
2.336696310312204705e+00
2.352634296700948813e+00
2.352634296700948813e+00
2.352634296700948813e+00
2.403823358867152926e+00
2.403823358867152926e+00
2.403823358867152926e+00
2.403823358867152926e+00
2.426136539811395654e+00
2.426136539811395654e+00
2.426136539811395654e+00
2.369884823145237629e+00
2.369884823145237629e+00
2.369884823145237629e+00
2.369884823145237629e+00
2.404573381756035300e+00
2.404573381756035300e+00
2.404573381756035300e+00
2.378510086367381593e+00
2.378510086367381593e+00
2.378510086367381593e+00
2.267694204535050773e+00
2.267694204535050773e+00
2.267694204535050773e+00
2.239380840479750834e+00
2.239380840479750834e+00
2.239380840479750834e+00
2.239380840479750834e+00
2.180691549424726094e+00
2.180691549424726094e+00
2.180691549424726094e+00
2.161003448591571008e+00
2.161003448591571008e+00
2.161003448591571008e+00
2.161003448591571008e+00
2.212192510757774677e+00
2.212192510757774677e+00
2.212192510757774677e+00
2.238630817590868904e+00
2.238630817590868904e+00
2.238630817590868904e+00
2.295820062868129341e+00
2.295820062868129341e+00
2.295820062868129341e+00
2.295820062868129341e+00
2.343821527756584366e+00
2.343821527756584366e+00
2.343821527756584366e+00
2.357134434034241721e+00
2.357134434034241721e+00
2.357134434034241721e+00
2.415073702200384531e+00
2.415073702200384531e+00
2.415073702200384531e+00
2.415073702200384531e+00
2.408886013367107282e+00
2.408886013367107282e+00
2.408886013367107282e+00
2.359947019867549844e+00
2.359947019867549844e+00
2.359947019867549844e+00
2.425949034089175171e+00
2.425949034089175171e+00
2.425949034089175171e+00
2.425949034089175171e+00
2.344009033478804849e+00
2.344009033478804849e+00
2.344009033478804849e+00
2.254568803979613900e+00
2.254568803979613900e+00
2.254568803979613900e+00
2.228318002868740155e+00
2.228318002868740155e+00
2.228318002868740155e+00
2.228318002868740155e+00
2.166816125980407293e+00
2.166816125980407293e+00
2.166816125980407293e+00
2.167003631702627775e+00
2.167003631702627775e+00
2.167003631702627775e+00
2.216880153813287624e+00
2.216880153813287624e+00
2.216880153813287624e+00
2.216880153813287624e+00
2.238255806146427940e+00
2.238255806146427940e+00
2.238255806146427940e+00
2.308945463423566213e+00
2.308945463423566213e+00
2.308945463423566213e+00
2.346259102145451525e+00
2.346259102145451525e+00
2.346259102145451525e+00
2.346259102145451525e+00
2.364259651478621826e+00
2.364259651478621826e+00
2.364259651478621826e+00
2.423136448255867048e+00
2.423136448255867048e+00
2.423136448255867048e+00
2.390135441145054607e+00
2.390135441145054607e+00
2.390135441145054607e+00
2.390135441145054607e+00
2.376072511978514878e+00
2.376072511978514878e+00
2.376072511978514878e+00
2.431011688589129527e+00
2.431011688589129527e+00
2.431011688589129527e+00
2.306695394756919981e+00
2.306695394756919981e+00
2.306695394756919981e+00
2.306695394756919981e+00
2.244631000701926116e+00
2.244631000701926116e+00
2.244631000701926116e+00
2.215567613757744247e+00
2.215567613757744247e+00
2.215567613757744247e+00
2.215567613757744247e+00
2.160065919980468152e+00
2.160065919980468152e+00
2.160065919980468152e+00
2.181816583758049433e+00
2.181816583758049433e+00
2.181816583758049433e+00
2.215942625202185212e+00
2.215942625202185212e+00
2.215942625202185212e+00
2.215942625202185212e+00
2.257193884090700653e+00
2.257193884090700653e+00
2.257193884090700653e+00
2.328446058534500818e+00
2.328446058534500818e+00
2.328446058534500818e+00
2.349821710867641578e+00
2.349821710867641578e+00
2.349821710867641578e+00
2.349821710867641578e+00
2.389010406811731269e+00
2.389010406811731269e+00
2.389010406811731269e+00
2.424448988311410869e+00
2.424448988311410869e+00
2.424448988311410869e+00
2.377010040589617734e+00
2.377010040589617734e+00
2.377010040589617734e+00
2.377010040589617734e+00
2.396698141422773265e+00
2.396698141422773265e+00
2.396698141422773265e+00
2.408698507644886799e+00
2.408698507644886799e+00
2.408698507644886799e+00
2.278007019257179522e+00
2.278007019257179522e+00
2.278007019257179522e+00
2.246506057924130939e+00
2.246506057924130939e+00
2.246506057924130939e+00
2.246506057924130939e+00
2.195129490035706787e+00
2.195129490035706787e+00
2.195129490035706787e+00
2.156315805536057617e+00
2.156315805536057617e+00
2.156315805536057617e+00
2.197942075869014911e+00
2.197942075869014911e+00
2.197942075869014911e+00
2.197942075869014911e+00
2.220255256813257638e+00
2.220255256813257638e+00
2.220255256813257638e+00
2.278194524979400004e+00
2.278194524979400004e+00
2.278194524979400004e+00
2.343446516312143402e+00
2.343446516312143402e+00
2.343446516312143402e+00
2.343446516312143402e+00
2.355446882534256936e+00
2.355446882534256936e+00
2.355446882534256936e+00
2.408511001922666317e+00
2.408511001922666317e+00
2.408511001922666317e+00
2.419386333811456957e+00
2.419386333811456957e+00
2.419386333811456957e+00
2.419386333811456957e+00
2.365759697256386129e+00
2.365759697256386129e+00
2.365759697256386129e+00
2.413948667867061193e+00
2.413948667867061193e+00
2.413948667867061193e+00
2.368009765923032361e+00
2.368009765923032361e+00
2.368009765923032361e+00
2.368009765923032361e+00
2.259443952757347329e+00
2.259443952757347329e+00
2.259443952757347329e+00
2.233755668813135031e+00
2.233755668813135031e+00
2.233755668813135031e+00
2.168128666035950669e+00
2.168128666035950669e+00
2.168128666035950669e+00
2.168128666035950669e+00
2.152565691091647082e+00
2.152565691091647082e+00
2.152565691091647082e+00
2.204692281868953607e+00
2.204692281868953607e+00
2.204692281868953607e+00
2.204692281868953607e+00
2.234318185979796478e+00
2.234318185979796478e+00
2.234318185979796478e+00
2.305007843256935196e+00
2.305007843256935196e+00
2.305007843256935196e+00
2.349446699423200169e+00
2.349446699423200169e+00
2.349446699423200169e+00
2.349446699423200169e+00
2.358446974089785542e+00
2.358446974089785542e+00
2.358446974089785542e+00
2.423323953978087530e+00
2.423323953978087530e+00
2.423323953978087530e+00
2.407760979033784388e+00
2.407760979033784388e+00
2.407760979033784388e+00
2.407760979033784388e+00
2.366134708700827094e+00
2.366134708700827094e+00
2.366134708700827094e+00
2.427261574144718992e+00
2.427261574144718992e+00
2.427261574144718992e+00
2.327508529923398850e+00
2.327508529923398850e+00
2.327508529923398850e+00
2.327508529923398850e+00
2.264319101535081202e+00
2.264319101535081202e+00
2.264319101535081202e+00
2.243318460646382295e+00
2.243318460646382295e+00
2.243318460646382295e+00
2.169253700369274007e+00
2.169253700369274007e+00
2.169253700369274007e+00
2.169253700369274007e+00
2.170378734702597345e+00
2.170378734702597345e+00
2.170378734702597345e+00
2.212567522202215642e+00
2.212567522202215642e+00
2.212567522202215642e+00
2.239755851924192243e+00
2.239755851924192243e+00
2.239755851924192243e+00
2.239755851924192243e+00
2.309320474868007622e+00
2.309320474868007622e+00
2.309320474868007622e+00
2.340258919034394314e+00
2.340258919034394314e+00
2.340258919034394314e+00
2.340258919034394314e+00
2.371197363200781449e+00
2.371197363200781449e+00
2.371197363200781449e+00
2.422386425366985119e+00
2.422386425366985119e+00
2.422386425366985119e+00
2.382822717978454019e+00
2.382822717978454019e+00
2.382822717978454019e+00
2.382822717978454019e+00
2.386572832422864110e+00
2.386572832422864110e+00
2.386572832422864110e+00
2.431574205755790974e+00
2.431574205755790974e+00
2.431574205755790974e+00
2.301632740256966070e+00
2.301632740256966070e+00
2.301632740256966070e+00
2.243880977813043742e+00
2.243880977813043742e+00
2.243880977813043742e+00
2.243880977813043742e+00
2.199629627368999252e+00
2.199629627368999252e+00
2.199629627368999252e+00
2.155378276924954761e+00
2.155378276924954761e+00
2.155378276924954761e+00
2.155378276924954761e+00
2.192691915646840073e+00
2.192691915646840073e+00
2.192691915646840073e+00
2.225505417035432032e+00
2.225505417035432032e+00
2.225505417035432032e+00
2.269756767479476078e+00
2.269756767479476078e+00
2.269756767479476078e+00
2.269756767479476078e+00
2.337071321756645670e+00
2.337071321756645670e+00
2.337071321756645670e+00
2.353009308145390222e+00
2.353009308145390222e+00
2.353009308145390222e+00
2.399885738700521909e+00
2.399885738700521909e+00
2.399885738700521909e+00
2.399885738700521909e+00
2.426886562700277583e+00
2.426886562700277583e+00
2.426886562700277583e+00
2.370447340311899076e+00
2.370447340311899076e+00
2.370447340311899076e+00
2.401010773033844803e+00
2.401010773033844803e+00
2.401010773033844803e+00
2.401010773033844803e+00
2.391635486922818910e+00
2.391635486922818910e+00
2.391635486922818910e+00
2.273131870479445649e+00
2.273131870479445649e+00
2.273131870479445649e+00
2.242568437757499922e+00
2.242568437757499922e+00
2.242568437757499922e+00
2.242568437757499922e+00
2.179941526535844165e+00
2.179941526535844165e+00
2.179941526535844165e+00
2.151815668202764709e+00
2.151815668202764709e+00
2.151815668202764709e+00
2.151815668202764709e+00
2.202067201757865966e+00
2.202067201757865966e+00
2.202067201757865966e+00
2.223067842646564873e+00
2.223067842646564873e+00
2.223067842646564873e+00
2.282507156590471986e+00
2.282507156590471986e+00
2.282507156590471986e+00
2.282507156590471986e+00
2.339133884701071420e+00
2.339133884701071420e+00
2.339133884701071420e+00
2.350946745200964472e+00
2.350946745200964472e+00
2.350946745200964472e+00
2.415073702200384531e+00
2.415073702200384531e+00
2.415073702200384531e+00
2.415073702200384531e+00
2.418261299478133619e+00
2.418261299478133619e+00
2.418261299478133619e+00
2.369509811700796664e+00
2.369509811700796664e+00
2.369509811700796664e+00
2.428949125644703777e+00
2.428949125644703777e+00
2.428949125644703777e+00
2.428949125644703777e+00
2.356196905423139309e+00
2.356196905423139309e+00
2.356196905423139309e+00
2.260943998535111632e+00
2.260943998535111632e+00
2.260943998535111632e+00
2.237693288979766049e+00
2.237693288979766049e+00
2.237693288979766049e+00
2.237693288979766049e+00
2.170003723258155937e+00
2.170003723258155937e+00
2.170003723258155937e+00
2.166441114535965884e+00
2.166441114535965884e+00
2.166441114535965884e+00
2.218380199591051927e+00
2.218380199591051927e+00
2.218380199591051927e+00
2.218380199591051927e+00
2.241818414868617992e+00
2.241818414868617992e+00
2.241818414868617992e+00
2.312508072145756710e+00
2.312508072145756710e+00
2.312508072145756710e+00
2.350946745200964472e+00
2.350946745200964472e+00
2.350946745200964472e+00
2.350946745200964472e+00
2.362009582811975594e+00
2.362009582811975594e+00
2.362009582811975594e+00
2.418823816644795066e+00
2.418823816644795066e+00
2.418823816644795066e+00
2.392010498367259874e+00
2.392010498367259874e+00
2.392010498367259874e+00
2.392010498367259874e+00
2.368009765923032361e+00
2.368009765923032361e+00
2.368009765923032361e+00
2.425574022644734207e+00
2.425574022644734207e+00
2.425574022644734207e+00
2.305382854701376161e+00
2.305382854701376161e+00
2.305382854701376161e+00
2.246318552201910457e+00
2.246318552201910457e+00
2.246318552201910457e+00
2.246318552201910457e+00
2.221942808313242423e+00
2.221942808313242423e+00
2.221942808313242423e+00
2.157628345591601438e+00
2.157628345591601438e+00
2.157628345591601438e+00
2.174503860591448845e+00
2.174503860591448845e+00
2.174503860591448845e+00
2.174503860591448845e+00
2.210879970702230857e+00
2.210879970702230857e+00
2.210879970702230857e+00
2.250818689535202921e+00
2.250818689535202921e+00
2.250818689535202921e+00
2.326758507034516477e+00
2.326758507034516477e+00
2.326758507034516477e+00
2.326758507034516477e+00
2.358259468367565059e+00
2.358259468367565059e+00
2.358259468367565059e+00
2.389385418256172233e+00
2.389385418256172233e+00
2.389385418256172233e+00
2.389385418256172233e+00
2.436636860255744885e+00
2.436636860255744885e+00
2.436636860255744885e+00
2.393510544145024177e+00
2.393510544145024177e+00
2.393510544145024177e+00
2.399135715811639535e+00
2.399135715811639535e+00
2.399135715811639535e+00
2.399135715811639535e+00
2.414511185033723084e+00
2.414511185033723084e+00
2.414511185033723084e+00
2.286632282479323930e+00
2.286632282479323930e+00
2.286632282479323930e+00
2.247256080813012868e+00
2.247256080813012868e+00
2.247256080813012868e+00
2.247256080813012868e+00
2.193066927091281038e+00
2.193066927091281038e+00
2.193066927091281038e+00
2.150690633869442259e+00
2.150690633869442259e+00
2.150690633869442259e+00
2.193066927091281038e+00
2.193066927091281038e+00
2.193066927091281038e+00
2.193066927091281038e+00
2.218005188146610962e+00
2.218005188146610962e+00
2.218005188146610962e+00
2.271444318979460864e+00
2.271444318979460864e+00
2.271444318979460864e+00
2.334821253089998994e+00
2.334821253089998994e+00
2.334821253089998994e+00
2.334821253089998994e+00
2.348134159367656792e+00
2.348134159367656792e+00
2.348134159367656792e+00
2.403073335978270997e+00
2.403073335978270997e+00
2.403073335978270997e+00
2.417323770867030763e+00
2.417323770867030763e+00
2.417323770867030763e+00
2.417323770867030763e+00
2.369697317423017147e+00
2.369697317423017147e+00
2.369697317423017147e+00
2.417323770867030763e+00
2.417323770867030763e+00
2.417323770867030763e+00
2.381322672200689716e+00
2.381322672200689716e+00
2.381322672200689716e+00
2.381322672200689716e+00
2.268069215979491737e+00
2.268069215979491737e+00
2.268069215979491737e+00
2.242005920590838475e+00
2.242005920590838475e+00
2.242005920590838475e+00
2.180879055146946577e+00
2.180879055146946577e+00
2.180879055146946577e+00
2.180879055146946577e+00
2.163441022980437278e+00
2.163441022980437278e+00
2.163441022980437278e+00
2.213505050813318054e+00
2.213505050813318054e+00
2.213505050813318054e+00
2.227567979979857782e+00
2.227567979979857782e+00
2.227567979979857782e+00
2.227567979979857782e+00
2.285694753868221074e+00
2.285694753868221074e+00
2.285694753868221074e+00
2.342883999145481511e+00
2.342883999145481511e+00
2.342883999145481511e+00
2.357884456923124095e+00
2.357884456923124095e+00
2.357884456923124095e+00
2.357884456923124095e+00
2.415073702200384531e+00
2.415073702200384531e+00
2.415073702200384531e+00
2.405323404644917229e+00
2.405323404644917229e+00
2.405323404644917229e+00
2.364259651478621826e+00
2.364259651478621826e+00
2.364259651478621826e+00
2.364259651478621826e+00
2.431386700033570492e+00
2.431386700033570492e+00
2.431386700033570492e+00
2.336508804589983779e+00
2.336508804589983779e+00
2.336508804589983779e+00
2.336508804589983779e+00
2.247443586535233351e+00
2.247443586535233351e+00
2.247443586535233351e+00
2.220067751091036712e+00
2.220067751091036712e+00
2.220067751091036712e+00
2.160628437147130043e+00
2.160628437147130043e+00
2.160628437147130043e+00
2.160628437147130043e+00
2.168316171758171151e+00
2.168316171758171151e+00
2.168316171758171151e+00
2.227380474257637299e+00
2.227380474257637299e+00
2.227380474257637299e+00
2.252506241035188150e+00
2.252506241035188150e+00
2.252506241035188150e+00
2.252506241035188150e+00
2.313445600756859122e+00
2.313445600756859122e+00
2.313445600756859122e+00
2.355634388256477418e+00
2.355634388256477418e+00
2.355634388256477418e+00
2.377385052034058699e+00
2.377385052034058699e+00
2.377385052034058699e+00
2.377385052034058699e+00
2.427824091311380439e+00
2.427824091311380439e+00
2.427824091311380439e+00
2.390510452589495571e+00
2.390510452589495571e+00
2.390510452589495571e+00
2.381135166478469234e+00
2.381135166478469234e+00
2.381135166478469234e+00
2.381135166478469234e+00
2.428949125644703777e+00
2.428949125644703777e+00
2.428949125644703777e+00
2.301820245979186552e+00
2.301820245979186552e+00
2.301820245979186552e+00
2.252881252479629115e+00
2.252881252479629115e+00
2.252881252479629115e+00
2.252881252479629115e+00
2.209379924924466998e+00
2.209379924924466998e+00
2.209379924924466998e+00
2.158003357036042402e+00
2.158003357036042402e+00
2.158003357036042402e+00
2.183316629535813735e+00
2.183316629535813735e+00
2.183316629535813735e+00
2.183316629535813735e+00
2.219692739646595747e+00
2.219692739646595747e+00
2.219692739646595747e+00
2.258506424146244473e+00
2.258506424146244473e+00
2.258506424146244473e+00
2.325820978423414065e+00
2.325820978423414065e+00
2.325820978423414065e+00
2.325820978423414065e+00
2.351134250923184954e+00
2.351134250923184954e+00
2.351134250923184954e+00
2.394448072756126589e+00
2.394448072756126589e+00
2.394448072756126589e+00
2.425574022644734207e+00
2.425574022644734207e+00
2.425574022644734207e+00
2.425574022644734207e+00
2.376260017700735361e+00
2.376260017700735361e+00
2.376260017700735361e+00
2.398198187200537124e+00
2.398198187200537124e+00
2.398198187200537124e+00
2.394448072756126589e+00
2.394448072756126589e+00
2.394448072756126589e+00
2.394448072756126589e+00
2.278569536423841413e+00
2.278569536423841413e+00
2.278569536423841413e+00
2.249693655201880027e+00
2.249693655201880027e+00
2.249693655201880027e+00
2.186129215369121415e+00
2.186129215369121415e+00
2.186129215369121415e+00
2.186129215369121415e+00
2.151628162480544670e+00
2.151628162480544670e+00
2.151628162480544670e+00
2.203567247535630269e+00
2.203567247535630269e+00
2.203567247535630269e+00
2.224755394146549659e+00
2.224755394146549659e+00
2.224755394146549659e+00
2.224755394146549659e+00
2.277819513534959039e+00
2.277819513534959039e+00
2.277819513534959039e+00
2.337071321756645670e+00
2.337071321756645670e+00
2.337071321756645670e+00
2.337071321756645670e+00
2.348134159367656792e+00
2.348134159367656792e+00
2.348134159367656792e+00
2.410198553422650658e+00
2.410198553422650658e+00
2.410198553422650658e+00
2.422948942533646566e+00
2.422948942533646566e+00
2.422948942533646566e+00
2.375134983367412023e+00
2.375134983367412023e+00
2.375134983367412023e+00
2.375134983367412023e+00
2.433261757255775315e+00
2.433261757255775315e+00
2.433261757255775315e+00
2.362009582811975594e+00
2.362009582811975594e+00
2.362009582811975594e+00
2.362009582811975594e+00
2.259631458479567812e+00
2.259631458479567812e+00
2.259631458479567812e+00
2.235443220313119816e+00
2.235443220313119816e+00
2.235443220313119816e+00
2.165316080202642990e+00
2.165316080202642990e+00
2.165316080202642990e+00
2.150878139591662741e+00
2.150878139591662741e+00
2.150878139591662741e+00
2.150878139591662741e+00
2.205442304757835537e+00
2.205442304757835537e+00
2.205442304757835537e+00
2.236943266090884119e+00
2.236943266090884119e+00
2.236943266090884119e+00
2.299007660145878429e+00
2.299007660145878429e+00
2.299007660145878429e+00
2.299007660145878429e+00
2.343071504867702437e+00
2.343071504867702437e+00
2.343071504867702437e+00
2.359384502700888397e+00
2.359384502700888397e+00
2.359384502700888397e+00
2.418448805200354101e+00
2.418448805200354101e+00
2.418448805200354101e+00
2.418448805200354101e+00
2.401760795922727176e+00
2.401760795922727176e+00
2.401760795922727176e+00
2.374384960478530537e+00
2.374384960478530537e+00
2.374384960478530537e+00
2.428949125644703777e+00
2.428949125644703777e+00
2.428949125644703777e+00
2.428949125644703777e+00
2.321695852534562121e+00
2.321695852534562121e+00
2.321695852534562121e+00
2.253818781090731527e+00
2.253818781090731527e+00
2.253818781090731527e+00
2.222317819757682944e+00
2.222317819757682944e+00
2.222317819757682944e+00
2.222317819757682944e+00
2.165316080202642990e+00
2.165316080202642990e+00
2.165316080202642990e+00
2.180316537980285130e+00
2.180316537980285130e+00
2.180316537980285130e+00
2.216130130924405695e+00
2.216130130924405695e+00
2.216130130924405695e+00
2.216130130924405695e+00
2.250818689535202921e+00
2.250818689535202921e+00
2.250818689535202921e+00
2.318883266701254442e+00
2.318883266701254442e+00
2.318883266701254442e+00
2.348696676534318240e+00
2.348696676534318240e+00
2.348696676534318240e+00
2.348696676534318240e+00
2.380010132145145896e+00
2.380010132145145896e+00
2.380010132145145896e+00
2.426886562700277583e+00
2.426886562700277583e+00
2.426886562700277583e+00
2.426886562700277583e+00
2.382822717978454019e+00
2.382822717978454019e+00
2.382822717978454019e+00
2.391447981200597983e+00
2.391447981200597983e+00
2.391447981200597983e+00
2.428386608478041886e+00
2.428386608478041886e+00
2.428386608478041886e+00
2.428386608478041886e+00
2.302195257423627517e+00
2.302195257423627517e+00
2.302195257423627517e+00
2.258131412701803509e+00
2.258131412701803509e+00
2.258131412701803509e+00
2.210692464980010374e+00
2.210692464980010374e+00
2.210692464980010374e+00
2.210692464980010374e+00
2.163066011535996758e+00
2.163066011535996758e+00
2.163066011535996758e+00
2.206004821924497428e+00
2.206004821924497428e+00
2.206004821924497428e+00
2.227567979979857782e+00
2.227567979979857782e+00
2.227567979979857782e+00
2.227567979979857782e+00
2.270506790368358452e+00
2.270506790368358452e+00
2.270506790368358452e+00
2.335946287423322332e+00
2.335946287423322332e+00
2.335946287423322332e+00
2.349634205145421095e+00
2.349634205145421095e+00
2.349634205145421095e+00
2.397823175756096159e+00
2.397823175756096159e+00
2.397823175756096159e+00
2.397823175756096159e+00
2.422948942533646566e+00
2.422948942533646566e+00
2.422948942533646566e+00
2.367447248756370914e+00
2.367447248756370914e+00
2.367447248756370914e+00
2.367447248756370914e+00
2.410948576311533031e+00
2.410948576311533031e+00
2.410948576311533031e+00
2.382822717978454019e+00
2.382822717978454019e+00
2.382822717978454019e+00
2.276881984923856628e+00
2.276881984923856628e+00
2.276881984923856628e+00
2.243693472090823260e+00
2.243693472090823260e+00
2.243693472090823260e+00
2.243693472090823260e+00
2.179754020813623683e+00
2.179754020813623683e+00
2.179754020813623683e+00
2.151440656758324188e+00
2.151440656758324188e+00
2.151440656758324188e+00
2.201129673146763555e+00
2.201129673146763555e+00
2.201129673146763555e+00
2.201129673146763555e+00
2.216130130924405695e+00
2.216130130924405695e+00
2.216130130924405695e+00
2.276319467757194737e+00
2.276319467757194737e+00
2.276319467757194737e+00
2.324883449812311209e+00
2.324883449812311209e+00
2.324883449812311209e+00
2.324883449812311209e+00
2.353009308145390222e+00
2.353009308145390222e+00
2.353009308145390222e+00
2.422573931089205601e+00
2.422573931089205601e+00
2.422573931089205601e+00
2.416386242255928352e+00
2.416386242255928352e+00
2.416386242255928352e+00
2.416386242255928352e+00
2.366697225867488541e+00
2.366697225867488541e+00
2.366697225867488541e+00
2.425949034089175171e+00
2.425949034089175171e+00
2.425949034089175171e+00
2.337633838923307117e+00
2.337633838923307117e+00
2.337633838923307117e+00
2.337633838923307117e+00
2.249881160924100509e+00
2.249881160924100509e+00
2.249881160924100509e+00
2.230380565813165905e+00
2.230380565813165905e+00
2.230380565813165905e+00
2.173753837702566916e+00
2.173753837702566916e+00
2.173753837702566916e+00
2.173753837702566916e+00
2.179754020813623683e+00
2.179754020813623683e+00
2.179754020813623683e+00
2.226817957090975852e+00
2.226817957090975852e+00
2.226817957090975852e+00
2.241255897701956545e+00
2.241255897701956545e+00
2.241255897701956545e+00
2.241255897701956545e+00
2.305007843256935196e+00
2.305007843256935196e+00
2.305007843256935196e+00
2.348321665089877275e+00
2.348321665089877275e+00
2.348321665089877275e+00
2.348321665089877275e+00
2.378510086367381593e+00
2.378510086367381593e+00
2.378510086367381593e+00
2.429699148533585706e+00
2.429699148533585706e+00
2.429699148533585706e+00
2.393323038422803695e+00
2.393323038422803695e+00
2.393323038422803695e+00
2.393323038422803695e+00
2.372697408978545752e+00
2.372697408978545752e+00
2.372697408978545752e+00
2.418261299478133619e+00
2.418261299478133619e+00
2.418261299478133619e+00
2.294132511368144556e+00
2.294132511368144556e+00
2.294132511368144556e+00
2.294132511368144556e+00
2.240505874813074172e+00
2.240505874813074172e+00
2.240505874813074172e+00
2.206754844813379357e+00
2.206754844813379357e+00
2.206754844813379357e+00
2.147128025147251762e+00
2.147128025147251762e+00
2.147128025147251762e+00
2.147128025147251762e+00
2.170191228980376863e+00
2.170191228980376863e+00
2.170191228980376863e+00
2.211442487868892304e+00
2.211442487868892304e+00
2.211442487868892304e+00
2.253818781090731527e+00
2.253818781090731527e+00
2.253818781090731527e+00
2.253818781090731527e+00
2.327508529923398850e+00
2.327508529923398850e+00
2.327508529923398850e+00
2.361072054200873183e+00
2.361072054200873183e+00
2.361072054200873183e+00
2.407010956144902014e+00
2.407010956144902014e+00
2.407010956144902014e+00
2.407010956144902014e+00
2.443387066255684470e+00
2.443387066255684470e+00
2.443387066255684470e+00
2.388635395367290304e+00
2.388635395367290304e+00
2.388635395367290304e+00
2.410573564867091623e+00
2.410573564867091623e+00
2.410573564867091623e+00
2.410573564867091623e+00
2.408323496200445835e+00
2.408323496200445835e+00
2.408323496200445835e+00
2.280257087923826198e+00
2.280257087923826198e+00
2.280257087923826198e+00
2.243880977813043742e+00
2.243880977813043742e+00
2.243880977813043742e+00
2.189504318369090985e+00
2.189504318369090985e+00
2.189504318369090985e+00
2.189504318369090985e+00
2.157253334147160473e+00
2.157253334147160473e+00
2.157253334147160473e+00
2.202067201757865966e+00
2.202067201757865966e+00
2.202067201757865966e+00
2.221567796868801015e+00
2.221567796868801015e+00
2.221567796868801015e+00
2.221567796868801015e+00
2.274444410534989469e+00
2.274444410534989469e+00
2.274444410534989469e+00
2.333883724478896582e+00
2.333883724478896582e+00
2.333883724478896582e+00
2.333883724478896582e+00
2.345321573534348669e+00
2.345321573534348669e+00
2.345321573534348669e+00
2.402323313089388623e+00
2.402323313089388623e+00
2.402323313089388623e+00
2.412073610644855925e+00
2.412073610644855925e+00
2.412073610644855925e+00
2.412073610644855925e+00
2.363884640034180418e+00
2.363884640034180418e+00
2.363884640034180418e+00
2.419198828089236475e+00
2.419198828089236475e+00
2.419198828089236475e+00
2.368197271645252844e+00
2.368197271645252844e+00
2.368197271645252844e+00
2.368197271645252844e+00
2.255693838312936794e+00
2.255693838312936794e+00
2.255693838312936794e+00
2.230193060090945423e+00
2.230193060090945423e+00
2.230193060090945423e+00
2.168878688924833043e+00
2.168878688924833043e+00
2.168878688924833043e+00
2.168878688924833043e+00
2.156503311258278099e+00
2.156503311258278099e+00
2.156503311258278099e+00
2.201317178868984037e+00
2.201317178868984037e+00
2.201317178868984037e+00
2.225880428479872997e+00
2.225880428479872997e+00
2.225880428479872997e+00
2.225880428479872997e+00
2.293945005645924073e+00
2.293945005645924073e+00
2.293945005645924073e+00
2.353196813867610704e+00
2.353196813867610704e+00
2.353196813867610704e+00
2.367634754478591397e+00
2.367634754478591397e+00
2.367634754478591397e+00
2.367634754478591397e+00
2.425761528366954689e+00
2.425761528366954689e+00
2.425761528366954689e+00
2.404760887478255782e+00
2.404760887478255782e+00
2.404760887478255782e+00
2.370634846034120002e+00
2.370634846034120002e+00
2.370634846034120002e+00
2.370634846034120002e+00
2.442449537644581614e+00
2.442449537644581614e+00
2.442449537644581614e+00
2.337258827478866152e+00
2.337258827478866152e+00
2.337258827478866152e+00
2.337258827478866152e+00
2.255693838312936794e+00
2.255693838312936794e+00
2.255693838312936794e+00
2.228880520035401602e+00
2.228880520035401602e+00
2.228880520035401602e+00
2.169628711813714972e+00
2.169628711813714972e+00
2.169628711813714972e+00
2.169628711813714972e+00
2.176191412091433186e+00
2.176191412091433186e+00
2.176191412091433186e+00
2.220255256813257638e+00
2.220255256813257638e+00
2.220255256813257638e+00
2.245756035035248566e+00
2.245756035035248566e+00
2.245756035035248566e+00
2.245756035035248566e+00
2.314008117923521013e+00
2.314008117923521013e+00
2.314008117923521013e+00
2.343259010589922919e+00
2.343259010589922919e+00
2.343259010589922919e+00
2.378322580645161111e+00
2.378322580645161111e+00
2.378322580645161111e+00
2.378322580645161111e+00
2.431761711478011456e+00
2.431761711478011456e+00
2.431761711478011456e+00
2.386010315256203107e+00
2.386010315256203107e+00
2.386010315256203107e+00
2.378322580645161111e+00
2.378322580645161111e+00
2.378322580645161111e+00
2.378322580645161111e+00
2.422948942533646566e+00
2.422948942533646566e+00
2.422948942533646566e+00
2.298070131534776017e+00
2.298070131534776017e+00
2.298070131534776017e+00
2.247256080813012868e+00
2.247256080813012868e+00
2.247256080813012868e+00
2.247256080813012868e+00
2.204879787591174090e+00
2.204879787591174090e+00
2.204879787591174090e+00
2.151253151036103706e+00
2.151253151036103706e+00
2.151253151036103706e+00
2.180691549424726094e+00
2.180691549424726094e+00
2.180691549424726094e+00
2.180691549424726094e+00
2.210129947813348927e+00
2.210129947813348927e+00
2.210129947813348927e+00
2.263381572923978347e+00
2.263381572923978347e+00
2.263381572923978347e+00
2.329571092867824156e+00
2.329571092867824156e+00
2.329571092867824156e+00
2.329571092867824156e+00
2.348696676534318240e+00
2.348696676534318240e+00
2.348696676534318240e+00
2.403073335978270997e+00
2.403073335978270997e+00
2.403073335978270997e+00
2.427449079866939474e+00
2.427449079866939474e+00
2.427449079866939474e+00
2.427449079866939474e+00
2.377197546311838217e+00
2.377197546311838217e+00
2.377197546311838217e+00
2.414323679311502602e+00
2.414323679311502602e+00
2.414323679311502602e+00
2.414323679311502602e+00
2.398385692922757606e+00
2.398385692922757606e+00
2.398385692922757606e+00
2.278007019257179522e+00
2.278007019257179522e+00
2.278007019257179522e+00
2.245193517868587563e+00
2.245193517868587563e+00
2.245193517868587563e+00
2.245193517868587563e+00
2.183504135258034218e+00
2.183504135258034218e+00
2.183504135258034218e+00
2.152003173924985191e+00
2.152003173924985191e+00
2.152003173924985191e+00
2.210129947813348927e+00
2.210129947813348927e+00
2.210129947813348927e+00
2.210129947813348927e+00
2.232630634479812137e+00
2.232630634479812137e+00
2.232630634479812137e+00
2.297320108645893644e+00
2.297320108645893644e+00
2.297320108645893644e+00
2.349446699423200169e+00
2.349446699423200169e+00
2.349446699423200169e+00
2.349446699423200169e+00
2.361634571367534630e+00
2.361634571367534630e+00
2.361634571367534630e+00
2.416011230811487387e+00
2.416011230811487387e+00
2.416011230811487387e+00
2.410761070589312105e+00
2.410761070589312105e+00
2.410761070589312105e+00
2.410761070589312105e+00
2.364072145756401344e+00
2.364072145756401344e+00
2.364072145756401344e+00
2.425761528366954689e+00
2.425761528366954689e+00
2.425761528366954689e+00
2.345321573534348669e+00
2.345321573534348669e+00
2.345321573534348669e+00
2.345321573534348669e+00
2.250443678090761956e+00
2.250443678090761956e+00
2.250443678090761956e+00
2.220255256813257638e+00
2.220255256813257638e+00
2.220255256813257638e+00
2.159503402813806705e+00
2.159503402813806705e+00
2.159503402813806705e+00
2.159503402813806705e+00
2.154815759758293314e+00
2.154815759758293314e+00
2.154815759758293314e+00
2.207129856257820322e+00
2.207129856257820322e+00
2.207129856257820322e+00
2.207129856257820322e+00
2.236755760368663637e+00
2.236755760368663637e+00
2.236755760368663637e+00
2.299195165868098911e+00
2.299195165868098911e+00
2.299195165868098911e+00
2.338758873256630455e+00
2.338758873256630455e+00
2.338758873256630455e+00
2.338758873256630455e+00
2.364634662923062791e+00
2.364634662923062791e+00
2.364634662923062791e+00
2.420698873867000778e+00
2.420698873867000778e+00
2.420698873867000778e+00
2.388635395367290304e+00
2.388635395367290304e+00
2.388635395367290304e+00
2.388635395367290304e+00
2.365197180089724238e+00
2.365197180089724238e+00
2.365197180089724238e+00
2.426324045533616136e+00
2.426324045533616136e+00
2.426324045533616136e+00
2.309507980590228104e+00
2.309507980590228104e+00
2.309507980590228104e+00
2.309507980590228104e+00
2.258693929868464956e+00
2.258693929868464956e+00
2.258693929868464956e+00
2.231318094424268317e+00
2.231318094424268317e+00
2.231318094424268317e+00
2.168691183202612560e+00
2.168691183202612560e+00
2.168691183202612560e+00
2.168691183202612560e+00
2.184441663869136629e+00
2.184441663869136629e+00
2.184441663869136629e+00
2.223442854091006282e+00
2.223442854091006282e+00
2.223442854091006282e+00
2.259256447035126847e+00
2.259256447035126847e+00
2.259256447035126847e+00
2.259256447035126847e+00
2.327883541367839371e+00
2.327883541367839371e+00
2.327883541367839371e+00
2.347196630756553937e+00
2.347196630756553937e+00
2.347196630756553937e+00
2.375322489089632505e+00
2.375322489089632505e+00
2.422761436811426083e+00
2.422761436811426083e+00
2.377760063478499664e+00
2.377760063478499664e+00
2.392948026978362286e+00
2.392948026978362286e+00
2.392948026978362286e+00
2.411886104922635443e+00
2.411886104922635443e+00
2.282132145146031021e+00
2.282132145146031021e+00
2.247256080813012868e+00
2.247256080813012868e+00
2.203567247535630269e+00
2.203567247535630269e+00
2.161378460036011973e+00
2.161378460036011973e+00
2.204692281868953607e+00
2.204692281868953607e+00
2.232443128757591655e+00
2.232443128757591655e+00
2.232443128757591655e+00
2.280444593646046680e+00
2.280444593646046680e+00
2.338196356089969008e+00
2.338196356089969008e+00
2.354321848200934042e+00
2.354321848200934042e+00
2.410573564867091623e+00
2.410573564867091623e+00
2.420511368144779851e+00
2.420511368144779851e+00
2.367072237311929506e+00
2.367072237311929506e+00
2.411136082033753514e+00
2.411136082033753514e+00
2.358821985534226506e+00
2.358821985534226506e+00
2.358821985534226506e+00
2.244255989257484707e+00
2.244255989257484707e+00
2.215755119479964730e+00
2.215755119479964730e+00
2.151253151036103706e+00
2.151253151036103706e+00
2.141127842036194995e+00
2.141127842036194995e+00
2.183879146702475182e+00
2.183879146702475182e+00
2.209379924924466998e+00
2.209379924924466998e+00
2.284757225257118218e+00
2.284757225257118218e+00
2.357696951200903612e+00
2.357696951200903612e+00
2.357696951200903612e+00
2.385447798089541660e+00
2.385447798089541660e+00
2.443387066255684470e+00
2.443387066255684470e+00
2.414511185033723084e+00
2.414511185033723084e+00
2.365197180089724238e+00
2.365197180089724238e+00
2.416198736533707869e+00
2.416198736533707869e+00
2.307820429090243319e+00
2.307820429090243319e+00
2.225505417035432032e+00
2.225505417035432032e+00
2.191191869869075770e+00
2.191191869869075770e+00
2.124814844203009478e+00
2.124814844203009478e+00
2.124814844203009478e+00
2.140002807702871657e+00
2.140002807702871657e+00
2.206754844813379357e+00
2.206754844813379357e+00
2.265631641590625023e+00
2.265631641590625023e+00
2.349821710867641578e+00
2.349821710867641578e+00
2.361447065645314147e+00
2.361447065645314147e+00
2.366697225867488541e+00
2.366697225867488541e+00
2.396323129978331856e+00
2.396323129978331856e+00
2.326571001312295994e+00
2.326571001312295994e+00
2.326571001312295994e+00
2.282882168034912951e+00
2.282882168034912951e+00
2.323195898312326424e+00
2.323195898312326424e+00
2.219692739646595747e+00
2.219692739646595747e+00
2.166628620258186366e+00
2.166628620258186366e+00
2.113189489425336465e+00
2.113189489425336465e+00
2.065375530259102366e+00
2.065375530259102366e+00
2.134190130314035372e+00
2.134190130314035372e+00
2.227380474257637299e+00
2.227380474257637299e+00
2.227380474257637299e+00
2.399323221533860018e+00
2.399323221533860018e+00
2.531327249977111116e+00
2.531327249977111116e+00
2.550452833643604755e+00
2.550452833643604755e+00
2.522139469588305261e+00
2.522139469588305261e+00
2.412261116367076408e+00
2.412261116367076408e+00
2.244068483535264225e+00
2.244068483535264225e+00
2.218942716757713818e+00
2.218942716757713818e+00
2.222505325479903426e+00
2.222505325479903426e+00
2.222505325479903426e+00
2.137190221869563977e+00
2.137190221869563977e+00
2.146940519425031280e+00
2.146940519425031280e+00
2.120877224036378017e+00
2.120877224036378017e+00
2.126314889980773337e+00
2.126314889980773337e+00
2.214067567979979945e+00
2.214067567979979945e+00
2.289632374034852091e+00
2.289632374034852091e+00
2.396698141422773265e+00
2.396698141422773265e+00
2.465137730033265306e+00
2.465137730033265306e+00
2.465137730033265306e+00
2.446199652088991705e+00
2.446199652088991705e+00
2.434949308755760100e+00
2.434949308755760100e+00
2.377010040589617734e+00
2.377010040589617734e+00
2.299757683034760802e+00
2.299757683034760802e+00
2.336508804589983779e+00
2.336508804589983779e+00
2.271819330423901828e+00
2.271819330423901828e+00
2.185754203924680450e+00
2.185754203924680450e+00
2.194004455702383449e+00
2.194004455702383449e+00
2.154628254036072832e+00
2.154628254036072832e+00
2.157440839869380955e+00
2.157440839869380955e+00
2.234318185979796478e+00
2.234318185979796478e+00
2.234318185979796478e+00
2.302945280312509890e+00
2.302945280312509890e+00
2.374009949034089573e+00
2.374009949034089573e+00
2.378322580645161111e+00
2.378322580645161111e+00
2.320383312479018745e+00
2.320383312479018745e+00
2.316070680867946319e+00
2.316070680867946319e+00
2.291694936979278285e+00
2.291694936979278285e+00
2.319070772423474924e+00
2.319070772423474924e+00
2.424636494033631351e+00
2.424636494033631351e+00
2.371197363200781449e+00
2.371197363200781449e+00
2.371197363200781449e+00
2.326946012756737403e+00
2.326946012756737403e+00
2.253256263924070080e+00
2.253256263924070080e+00
2.161940977202673420e+00
2.161940977202673420e+00
2.140752830591753586e+00
2.140752830591753586e+00
2.161565965758232455e+00
2.161565965758232455e+00
2.209379924924466998e+00
2.209379924924466998e+00
2.298632648701437464e+00
2.298632648701437464e+00
2.358259468367565059e+00
2.358259468367565059e+00
2.358259468367565059e+00
2.412823633533738299e+00
2.412823633533738299e+00
2.440761986144596829e+00
2.440761986144596829e+00
2.419198828089236475e+00
2.419198828089236475e+00
2.489138462477492819e+00
2.489138462477492819e+00
2.550452833643604755e+00
2.550452833643604755e+00
2.386385326700643628e+00
2.386385326700643628e+00
2.282882168034912951e+00
2.282882168034912951e+00
2.179566515091402756e+00
2.179566515091402756e+00
2.179566515091402756e+00
2.082626056703390294e+00
2.082626056703390294e+00
2.071750724814600098e+00
2.071750724814600098e+00
2.051500106814783120e+00
2.051500106814783120e+00
2.098189031647694325e+00
2.098189031647694325e+00
2.216317636646626177e+00
2.216317636646626177e+00
2.296382580034791232e+00
2.296382580034791232e+00
2.403260841700491479e+00
2.403260841700491479e+00
2.459887569811090469e+00
2.459887569811090469e+00
2.412448622089296890e+00
2.412448622089296890e+00
2.457825006866664719e+00
2.457825006866664719e+00
2.457825006866664719e+00
2.409823541978209693e+00
2.409823541978209693e+00
2.276694479201635701e+00
2.276694479201635701e+00
2.239380840479750834e+00
2.239380840479750834e+00
2.177878963591417971e+00
2.177878963591417971e+00
2.146565507980590315e+00
2.146565507980590315e+00
2.176566423535874595e+00
2.176566423535874595e+00
2.203754753257850751e+00
2.203754753257850751e+00
2.318320749534592551e+00
2.318320749534592551e+00
2.318320749534592551e+00
2.369884823145237629e+00
2.369884823145237629e+00
2.392198004089480357e+00
2.392198004089480357e+00
2.467575304422132465e+00
2.467575304422132465e+00
2.479200659199805035e+00
2.479200659199805035e+00
2.427449079866939474e+00
2.427449079866939474e+00
2.476950590533158358e+00
2.476950590533158358e+00
2.382822717978454019e+00
2.382822717978454019e+00
2.313633106479079604e+00
2.313633106479079604e+00
2.313633106479079604e+00
2.301070223090304623e+00
2.301070223090304623e+00
2.221942808313242423e+00
2.221942808313242423e+00
2.188941801202429094e+00
2.188941801202429094e+00
2.222692831202123909e+00
2.222692831202123909e+00
2.227005462813196335e+00
2.227005462813196335e+00
2.264881618701742649e+00
2.264881618701742649e+00
2.300507705923642732e+00
2.300507705923642732e+00
2.316070680867946319e+00
2.316070680867946319e+00
2.316070680867946319e+00
2.362572099978637485e+00
2.362572099978637485e+00
2.344946562089907705e+00
2.344946562089907705e+00
2.324883449812311209e+00
2.324883449812311209e+00
2.339883907589953349e+00
2.339883907589953349e+00
2.164941068758201581e+00
2.164941068758201581e+00
2.093313882869960452e+00
2.093313882869960452e+00
2.055812738425855546e+00
2.055812738425855546e+00
2.044187383648182976e+00
2.044187383648182976e+00
2.044187383648182976e+00
2.103251686147648680e+00
2.103251686147648680e+00
2.189691824091311467e+00
2.189691824091311467e+00
2.369134800256355700e+00
2.369134800256355700e+00
2.551202856532486685e+00
2.551202856532486685e+00
2.588704000976592479e+00
2.588704000976592479e+00
2.599204321420941710e+00
2.599204321420941710e+00
2.525514572588274831e+00
2.525514572588274831e+00
2.375509994811853431e+00
2.375509994811853431e+00
2.375509994811853431e+00
2.348884182256538722e+00
2.348884182256538722e+00
2.322258369701224012e+00
2.322258369701224012e+00
2.220442762535478121e+00
2.220442762535478121e+00
2.221192785424360050e+00
2.221192785424360050e+00
2.251568712424085295e+00
2.251568712424085295e+00
2.236755760368663637e+00
2.236755760368663637e+00
2.188379284035767647e+00
2.188379284035767647e+00
2.129689992980742907e+00
2.129689992980742907e+00
2.145440473647266977e+00
2.145440473647266977e+00
2.213317545091097571e+00
2.213317545091097571e+00
2.213317545091097571e+00
2.249131138035218136e+00
2.249131138035218136e+00
2.323008392590105942e+00
2.323008392590105942e+00
2.358634479812006024e+00
2.358634479812006024e+00
2.292819971312600735e+00
2.292819971312600735e+00
2.301070223090304623e+00
2.301070223090304623e+00
2.248006103701895242e+00
2.248006103701895242e+00
2.195504501480147752e+00
2.195504501480147752e+00
2.230943082979827352e+00
2.230943082979827352e+00
2.230943082979827352e+00
2.221380291146580532e+00
2.221380291146580532e+00
2.214817590868861874e+00
2.214817590868861874e+00
2.239943357646412725e+00
2.239943357646412725e+00
2.219317728202154782e+00
2.219317728202154782e+00
2.329571092867824156e+00
2.329571092867824156e+00
2.382072695089572090e+00
2.382072695089572090e+00
2.248943632312997654e+00
2.248943632312997654e+00
2.226442945646534444e+00
2.226442945646534444e+00
2.226442945646534444e+00
2.229255531479842567e+00
2.229255531479842567e+00
2.284757225257118218e+00
2.284757225257118218e+00
2.386010315256203107e+00
2.386010315256203107e+00
2.238255806146427940e+00
2.238255806146427940e+00
2.201692190313425002e+00
2.201692190313425002e+00
2.214255073702200427e+00
2.214255073702200427e+00
2.229630542924283532e+00
2.229630542924283532e+00
2.318695760979033516e+00
2.318695760979033516e+00
2.318695760979033516e+00
2.381510177922910199e+00
2.381510177922910199e+00
2.407385967589342979e+00
2.407385967589342979e+00
2.495138645588549586e+00
2.495138645588549586e+00
2.545577684865871326e+00
2.545577684865871326e+00
2.572953520310068409e+00
2.572953520310068409e+00
2.628080202642903096e+00
2.628080202642903096e+00
2.567140842921231680e+00
2.567140842921231680e+00
2.454824915311136557e+00
2.454824915311136557e+00
2.454824915311136557e+00
2.444324594866786882e+00
2.444324594866786882e+00
2.221942808313242423e+00
2.221942808313242423e+00
2.068375621814630971e+00
2.068375621814630971e+00
1.992998321481978863e+00
1.992998321481978863e+00
1.966935026093325822e+00
1.966935026093325822e+00
2.071563219092379615e+00
2.071563219092379615e+00
2.206942350535599839e+00
2.206942350535599839e+00
2.310445509201330516e+00
2.310445509201330516e+00
2.310445509201330516e+00
2.349071687978759204e+00
2.349071687978759204e+00
2.278757042146061895e+00
2.278757042146061895e+00
2.277819513534959039e+00
2.277819513534959039e+00
2.317758232367931104e+00
2.317758232367931104e+00
2.334071230201117064e+00
2.334071230201117064e+00
2.380010132145145896e+00
2.380010132145145896e+00
2.357884456923124095e+00
2.357884456923124095e+00
2.293382488479262626e+00
2.293382488479262626e+00
2.293382488479262626e+00
2.245756035035248566e+00
2.245756035035248566e+00
2.069875667592394830e+00
2.069875667592394830e+00
2.076438367870113488e+00
2.076438367870113488e+00
2.149190588091677956e+00
2.149190588091677956e+00
2.196629535813471090e+00
2.196629535813471090e+00
2.339508896145511940e+00
2.339508896145511940e+00
2.537702444532609292e+00
2.537702444532609292e+00
2.549515305032502344e+00
2.549515305032502344e+00
2.549515305032502344e+00
2.450887295144505096e+00
2.450887295144505096e+00
2.314570635090182460e+00
2.314570635090182460e+00
2.212567522202215642e+00
2.212567522202215642e+00
2.143002899258400262e+00
2.143002899258400262e+00
2.144315439313944083e+00
2.144315439313944083e+00
2.201692190313425002e+00
2.201692190313425002e+00
2.225505417035432032e+00
2.225505417035432032e+00
2.145815485091708386e+00
2.145815485091708386e+00
2.145815485091708386e+00
2.135502670369579192e+00
2.135502670369579192e+00
2.216317636646626177e+00
2.216317636646626177e+00
2.266381664479506952e+00
2.266381664479506952e+00
2.307257911923581428e+00
2.307257911923581428e+00
2.320383312479018745e+00
2.320383312479018745e+00
2.367634754478591397e+00
2.367634754478591397e+00
2.395385601367229444e+00
2.395385601367229444e+00
2.329571092867824156e+00
2.329571092867824156e+00
2.347196630756553937e+00
2.347196630756553937e+00
2.347196630756553937e+00
2.402698324533829588e+00
2.402698324533829588e+00
2.228318002868740155e+00
2.228318002868740155e+00
2.141315347758415477e+00
2.141315347758415477e+00
2.025061799981688893e+00
2.025061799981688893e+00
1.990748252815332409e+00
1.990748252815332409e+00
2.149940610980559885e+00
2.149940610980559885e+00
2.270506790368358452e+00
2.270506790368358452e+00
2.491388531144139051e+00
2.491388531144139051e+00
2.563203222754600663e+00
2.563203222754600663e+00
2.436636860255744885e+00
2.436636860255744885e+00
2.407198461867122496e+00
2.407198461867122496e+00
2.407198461867122496e+00
2.335196264534440402e+00
2.335196264534440402e+00
2.149753105258339403e+00
2.149753105258339403e+00
2.137190221869563977e+00
2.137190221869563977e+00
2.278569536423841413e+00
2.278569536423841413e+00
2.308757957701345731e+00
2.308757957701345731e+00
2.447137180700094561e+00
2.447137180700094561e+00
2.453887386700033701e+00
2.453887386700033701e+00
2.343446516312143402e+00
2.343446516312143402e+00
2.343446516312143402e+00
2.291694936979278285e+00
2.291694936979278285e+00
2.285507248146000592e+00
2.285507248146000592e+00
2.227567979979857782e+00
2.227567979979857782e+00
2.155190771202734279e+00
2.155190771202734279e+00
2.189504318369090985e+00
2.189504318369090985e+00
2.148815576647236547e+00
2.148815576647236547e+00
1.982498001037629409e+00
1.982498001037629409e+00
1.899245460371715488e+00
1.899245460371715488e+00
1.899245460371715488e+00
1.952122074037903943e+00
1.952122074037903943e+00
1.911058320871608762e+00
1.911058320871608762e+00
1.910308297982726611e+00
1.910308297982726611e+00
2.074563310647907777e+00
2.074563310647907777e+00
2.029374431592760875e+00
2.029374431592760875e+00
2.135502670369579192e+00
2.135502670369579192e+00
2.350571733756523507e+00
2.350571733756523507e+00
2.428574114200262368e+00
2.428574114200262368e+00
2.428574114200262368e+00
2.542015076143681274e+00
2.542015076143681274e+00
2.681144322031312033e+00
2.681144322031312033e+00
2.667456404309213713e+00
2.667456404309213713e+00
2.707395123142185778e+00
2.707395123142185778e+00
2.717707937864314527e+00
2.717707937864314527e+00
2.619267433698538206e+00
2.619267433698538206e+00
2.582141300698873820e+00
2.582141300698873820e+00
2.392760521256141804e+00
2.392760521256141804e+00
2.392760521256141804e+00
2.253443769646290562e+00
2.253443769646290562e+00
2.121814752647480873e+00
2.121814752647480873e+00
1.920621112704855360e+00
1.920621112704855360e+00
1.845243812372203696e+00
1.845243812372203696e+00
1.895495345927304953e+00
1.895495345927304953e+00
2.018311593981750196e+00
2.018311593981750196e+00
2.270131778923917043e+00
2.270131778923917043e+00
2.334258735923337547e+00
2.334258735923337547e+00
2.334258735923337547e+00
2.174128849147007880e+00
2.174128849147007880e+00
2.036687154759361462e+00
2.036687154759361462e+00
2.044937406537064906e+00
2.044937406537064906e+00
2.103814203314310571e+00
2.103814203314310571e+00
2.193254432813501520e+00
2.193254432813501520e+00
2.208254890591143660e+00
2.208254890591143660e+00
2.126877407147435228e+00
2.126877407147435228e+00
2.094063905758842381e+00
2.094063905758842381e+00
2.094063905758842381e+00
2.032187017426068998e+00
2.032187017426068998e+00
2.019624134037293572e+00
2.019624134037293572e+00
2.221755302591021497e+00
2.221755302591021497e+00
2.380947660756248752e+00
2.380947660756248752e+00
2.347571642200994901e+00
2.347571642200994901e+00
2.582891323587756194e+00
2.582891323587756194e+00
3.004779198583941380e+00
3.004779198583941380e+00
3.085031647694326917e+00
3.085031647694326917e+00
3.085031647694326917e+00
2.770959562974944390e+00
2.770959562974944390e+00
2.438699423200171079e+00
2.438699423200171079e+00
2.023561754203924590e+00
2.023561754203924590e+00
1.695051728873561814e+00
1.695051728873561814e+00
1.645550218207342708e+00
1.645550218207342708e+00
1.711364726706747552e+00
1.711364726706747552e+00
1.980997955259865106e+00
1.980997955259865106e+00
2.156878322702719064e+00
2.156878322702719064e+00
2.118627155369731785e+00
2.118627155369731785e+00
2.118627155369731785e+00
2.144690450758385047e+00
2.144690450758385047e+00
2.266194158757286470e+00
2.266194158757286470e+00
2.495513657032990551e+00
2.495513657032990551e+00
2.707395123142185778e+00
2.707395123142185778e+00
2.892650776696066295e+00
2.892650776696066295e+00
2.658081118198186932e+00
2.658081118198186932e+00
2.470762901699881109e+00
2.470762901699881109e+00
2.229443037202063049e+00
2.229443037202063049e+00
2.229443037202063049e+00
2.034812097537156195e+00
2.034812097537156195e+00
1.939559190649128739e+00
1.939559190649128739e+00
1.861556810205389434e+00
1.861556810205389434e+00
1.896432874538407587e+00
1.896432874538407587e+00
2.090876308481094181e+00
2.090876308481094181e+00
2.090501297036652772e+00
2.090501297036652772e+00
2.154065736869411385e+00
2.154065736869411385e+00
2.000311044648579006e+00
2.000311044648579006e+00
1.803430036317026142e+00
1.803430036317026142e+00
1.833430951872310644e+00
1.833430951872310644e+00
1.833430951872310644e+00
1.863056855983153737e+00
1.863056855983153737e+00
1.941246742149113524e+00
1.941246742149113524e+00
1.915370952482680744e+00
1.915370952482680744e+00
2.074375804925687294e+00
2.074375804925687294e+00
2.269756767479476078e+00
2.269756767479476078e+00
2.447324686422315043e+00
2.447324686422315043e+00
2.833023957029938700e+00
2.833023957029938700e+00
2.935964598529007930e+00
2.935964598529007930e+00
2.935964598529007930e+00
2.812960844752342204e+00
2.812960844752342204e+00
2.608204596087527527e+00
2.608204596087527527e+00
2.530389721366008260e+00
2.530389721366008260e+00
2.421636402478102745e+00
2.421636402478102745e+00
2.307070406201360946e+00
2.307070406201360946e+00
2.384697775200659287e+00
2.384697775200659287e+00
2.502826380199591139e+00
2.502826380199591139e+00
2.581203772087771409e+00
2.581203772087771409e+00
2.581203772087771409e+00
2.401573290200506694e+00
2.401573290200506694e+00
1.921558641315958216e+00
1.921558641315958216e+00
1.688114017151402413e+00
1.688114017151402413e+00
1.660925687429426034e+00
1.660925687429426034e+00
1.841306192205572678e+00
1.841306192205572678e+00
1.926246284371471162e+00
1.926246284371471162e+00
1.983248023926511561e+00
1.983248023926511561e+00
2.318695760979033516e+00
2.318695760979033516e+00
2.318695760979033516e+00
2.560390636921292984e+00
2.560390636921292984e+00
2.401010773033844803e+00
2.401010773033844803e+00
2.230193060090945423e+00
2.230193060090945423e+00
2.171691274758141166e+00
2.171691274758141166e+00
2.065750541703543330e+00
2.065750541703543330e+00
2.118064638203069894e+00
2.118064638203069894e+00
2.318695760979033516e+00
2.318695760979033516e+00
2.318695760979033516e+00
2.453887386700033701e+00
2.453887386700033701e+00
2.329008575701162709e+00
2.329008575701162709e+00
1.959997314371166199e+00
1.959997314371166199e+00
1.614236762596514829e+00
1.614236762596514829e+00
1.463669667653431761e+00
1.463669667653431761e+00
1.618924405652027998e+00
1.618924405652027998e+00
2.042124820703756782e+00
2.042124820703756782e+00
2.470575395977660182e+00
2.470575395977660182e+00
2.680769310586870624e+00
2.680769310586870624e+00
2.680769310586870624e+00
2.924526749473555842e+00
2.924526749473555842e+00
3.103594714194158666e+00
3.103594714194158666e+00
3.059343363750114619e+00
3.059343363750114619e+00
2.657518601031525485e+00
2.657518601031525485e+00
2.191566881313516735e+00
2.191566881313516735e+00
2.163253517258217240e+00
2.163253517258217240e+00
2.206379833368938392e+00
2.206379833368938392e+00
2.014186468092898252e+00
2.014186468092898252e+00
2.014186468092898252e+00
1.746803308206427152e+00
1.746803308206427152e+00
1.861181798760948691e+00
1.861181798760948691e+00
1.695051728873561814e+00
1.695051728873561814e+00
1.445481612598040533e+00
1.445481612598040533e+00
1.561360148930326375e+00
1.561360148930326375e+00
1.768178960539567246e+00
1.768178960539567246e+00
1.986060609759819240e+00
1.986060609759819240e+00
2.112439466536454535e+00
2.112439466536454535e+00
2.112439466536454535e+00
2.382822717978454019e+00
2.382822717978454019e+00
2.937652150028992271e+00
2.937652150028992271e+00
3.267287209692678385e+00
3.267287209692678385e+00
3.542733115634632668e+00
3.542733115634632668e+00
3.312288583025605249e+00
3.312288583025605249e+00
2.887775627918332866e+00
2.887775627918332866e+00
2.419198828089236475e+00
2.419198828089236475e+00
2.023561754203924590e+00
2.023561754203924590e+00
2.023561754203924590e+00
2.075500839259010633e+00
2.075500839259010633e+00
2.279132053590502860e+00
2.279132053590502860e+00
2.211442487868892304e+00
2.211442487868892304e+00
2.046812463759269729e+00
2.046812463759269729e+00
1.862494338816492068e+00
1.862494338816492068e+00
2.010248847926267679e+00
2.010248847926267679e+00
2.078875942258980203e+00
2.078875942258980203e+00
2.078875942258980203e+00
1.880869899594103778e+00
1.880869899594103778e+00
1.464794701986754877e+00
1.464794701986754877e+00
1.286851771599475169e+00
1.286851771599475169e+00
1.530234199041718757e+00
1.530234199041718757e+00
1.894745323038422802e+00
1.894745323038422802e+00
2.558890591143528681e+00
2.558890591143528681e+00
3.201472701193273984e+00
3.201472701193273984e+00
3.596359752189703052e+00
3.596359752189703052e+00
3.549670827356791847e+00
3.549670827356791847e+00
3.109032380138553986e+00
3.109032380138553986e+00
3.109032380138553986e+00
2.758584185308389891e+00
2.758584185308389891e+00
2.289819879757073018e+00
2.289819879757073018e+00
2.054875209814752690e+00
2.054875209814752690e+00
2.302007751701407035e+00
2.302007751701407035e+00
2.400073244422742391e+00
2.400073244422742391e+00
2.397260658589434712e+00
2.397260658589434712e+00
2.392198004089480357e+00
2.392198004089480357e+00
2.174878872035889810e+00
2.174878872035889810e+00
2.174878872035889810e+00
1.934121524704733419e+00
1.934121524704733419e+00
1.766303903317361979e+00
1.766303903317361979e+00
1.683801385540330209e+00
1.683801385540330209e+00
1.715489852595599274e+00
1.715489852595599274e+00
1.641987609485152877e+00
1.641987609485152877e+00
1.450919278542436075e+00
1.450919278542436075e+00
1.791242164372691903e+00
1.791242164372691903e+00
2.100626606036561483e+00
2.100626606036561483e+00
2.100626606036561483e+00
1.978560380870998392e+00
1.978560380870998392e+00
2.009311319315164823e+00
2.009311319315164823e+00
1.887057588427381249e+00
1.887057588427381249e+00
1.808117679372539532e+00
1.808117679372539532e+00
1.484670308542130890e+00
1.484670308542130890e+00
1.339915890987884106e+00
1.339915890987884106e+00
1.563610217596972607e+00
1.563610217596972607e+00
2.297507614368114126e+00
2.297507614368114126e+00
2.297507614368114126e+00
2.977215857417523814e+00
2.977215857417523814e+00
3.563358745078890166e+00
3.563358745078890166e+00
3.372852931302835255e+00
3.372852931302835255e+00
2.942714804528947070e+00
2.942714804528947070e+00
2.661643726920377429e+00
2.661643726920377429e+00
2.482950773644215126e+00
2.482950773644215126e+00
2.674581621753593819e+00
2.674581621753593819e+00
2.732708395641957111e+00
2.732708395641957111e+00
2.732708395641957111e+00
2.566578325754570233e+00
2.566578325754570233e+00
2.098376537369914807e+00
2.098376537369914807e+00
1.347603625598925658e+00
1.347603625598925658e+00
9.204655903805658568e-01
9.204655903805658568e-01
8.310253608813745752e-01
8.310253608813745752e-01
1.085845637379070583e+00
1.085845637379070583e+00
1.746803308206427152e+00
1.746803308206427152e+00
2.505263954588457853e+00
2.505263954588457853e+00
3.205972838526566449e+00
3.205972838526566449e+00
3.205972838526566449e+00
3.782365428632465498e+00
3.782365428632465498e+00
3.812553849909970705e+00
3.812553849909970705e+00
3.631985839411603134e+00
3.631985839411603134e+00
3.070031189916684333e+00
3.070031189916684333e+00
2.763084322641681911e+00
2.763084322641681911e+00
2.417511276589251690e+00
2.417511276589251690e+00
2.217067659535508550e+00
2.217067659535508550e+00
2.101001617481002448e+00
2.101001617481002448e+00
2.101001617481002448e+00
1.432918729209265551e+00
1.432918729209265551e+00
9.067776726584674263e-01
9.067776726584674263e-01
4.066999114963225637e-01
4.066999114963225637e-01
8.419006927701651322e-02
8.419006927701651322e-02
8.379630726035340871e-01
8.379630726035340871e-01
1.761616260261849032e+00
1.761616260261849032e+00
2.139627796258431136e+00
2.139627796258431136e+00
2.849899472029786107e+00
2.849899472029786107e+00
3.413916684469130658e+00
3.413916684469130658e+00
3.413916684469130658e+00
3.708675679799798619e+00
3.708675679799798619e+00
3.578171697134312268e+00
3.578171697134312268e+00
2.796460341196936206e+00
2.796460341196936206e+00
2.056000244148076028e+00
2.056000244148076028e+00
1.753553514206366293e+00
1.753553514206366293e+00
1.749615894039735275e+00
1.749615894039735275e+00
1.775866695150608798e+00
1.775866695150608798e+00
1.713427289651173524e+00
1.713427289651173524e+00
1.713427289651173524e+00
1.837368572038941661e+00
1.837368572038941661e+00
2.222130314035462462e+00
2.222130314035462462e+00
2.563578234199041628e+00
2.563578234199041628e+00
2.802460524307992973e+00
2.802460524307992973e+00
2.446949674977874079e+00
2.446949674977874079e+00
2.167003631702627775e+00
2.167003631702627775e+00
2.411886104922635443e+00
2.411886104922635443e+00
2.251568712424085295e+00
2.251568712424085295e+00
2.251568712424085295e+00
2.356946928312021239e+00
2.356946928312021239e+00
2.542015076143681274e+00
2.542015076143681274e+00
2.661268715475936020e+00
2.661268715475936020e+00
3.111844965971862109e+00
3.111844965971862109e+00
3.009091830195013362e+00
3.009091830195013362e+00
2.888525650807214795e+00
2.888525650807214795e+00
2.360509537034211291e+00
2.360509537034211291e+00
1.714552323984496640e+00
1.714552323984496640e+00
1.512796166875209902e+00
1.512796166875209902e+00
1.512796166875209902e+00
1.606361522263252795e+00
1.606361522263252795e+00
2.094251411481063307e+00
2.094251411481063307e+00
2.871462630085146461e+00
2.871462630085146461e+00
3.086344187749870294e+00
3.086344187749870294e+00
2.598829309976500745e+00
2.598829309976500745e+00
2.006498733481856700e+00
2.006498733481856700e+00
1.669550950651570220e+00
1.669550950651570220e+00
1.790867152928251160e+00
1.790867152928251160e+00
1.790867152928251160e+00
1.920621112704855360e+00
1.920621112704855360e+00
1.773616626483962344e+00
1.773616626483962344e+00
1.770429029206213700e+00
1.770429029206213700e+00
1.768366466261787728e+00
1.768366466261787728e+00
2.281944639423810539e+00
2.281944639423810539e+00
2.885713064973906672e+00
2.885713064973906672e+00
3.181409588915677489e+00
3.181409588915677489e+00
2.903151097140415526e+00
2.903151097140415526e+00
2.903151097140415526e+00
2.774147160252693034e+00
2.774147160252693034e+00
2.426886562700277583e+00
2.426886562700277583e+00
2.074563310647907777e+00
2.074563310647907777e+00
1.886870082705160767e+00
1.886870082705160767e+00
1.764241340372936229e+00
1.764241340372936229e+00
1.360729026154362753e+00
1.360729026154362753e+00
8.610262764366588550e-01
8.610262764366588550e-01
6.568325449385051806e-01
6.568325449385051806e-01
6.568325449385051806e-01
5.218284249397259211e-01
5.218284249397259211e-01
1.046844447157200708e+00
1.046844447157200708e+00
2.096501480147709540e+00
2.096501480147709540e+00
2.977965880306405744e+00
2.977965880306405744e+00
3.411666615802484426e+00
3.411666615802484426e+00
3.682612384411145356e+00
3.682612384411145356e+00
3.812553849909970705e+00
3.812553849909970705e+00
3.857930234687338089e+00
3.857930234687338089e+00
3.857930234687338089e+00
3.460418103579821381e+00
3.460418103579821381e+00
2.742646198919644895e+00
2.742646198919644895e+00
2.102689168980987233e+00
2.102689168980987233e+00
2.075500839259010633e+00
2.075500839259010633e+00
2.177503952146977007e+00
2.177503952146977007e+00
2.120689718314157535e+00
2.120689718314157535e+00
2.178253975035859380e+00
2.178253975035859380e+00
2.366884731589709023e+00
2.366884731589709023e+00
2.476950590533158358e+00
2.476950590533158358e+00
2.476950590533158358e+00
2.453887386700033701e+00
2.453887386700033701e+00
2.320570818201239227e+00
2.320570818201239227e+00
2.267694204535050773e+00
2.267694204535050773e+00
2.126127384258552855e+00
2.126127384258552855e+00
1.623612048707541167e+00
1.623612048707541167e+00
1.223849848933378004e+00
1.223849848933378004e+00
1.178285958433790137e+00
1.178285958433790137e+00
1.803430036317026142e+00
1.803430036317026142e+00
1.803430036317026142e+00
2.528514664143802992e+00
2.528514664143802992e+00
2.842024231696524073e+00
2.842024231696524073e+00
2.892088259529404404e+00
2.892088259529404404e+00
2.676081667531358121e+00
2.676081667531358121e+00
2.593016632587664461e+00
2.593016632587664461e+00
2.604829493087557513e+00
2.604829493087557513e+00
2.635017914365062275e+00
2.635017914365062275e+00
2.278382030701620931e+00
2.278382030701620931e+00
2.278382030701620931e+00
1.610674153874324777e+00
1.610674153874324777e+00
1.382479689931943811e+00
1.382479689931943811e+00
1.515796258430738064e+00
1.515796258430738064e+00
1.653050447096163778e+00
1.653050447096163778e+00
2.389572923978392716e+00
2.389572923978392716e+00
2.952277596362193446e+00
2.952277596362193446e+00
2.863024872585222980e+00
2.863024872585222980e+00
2.338571367534409973e+00
2.338571367534409973e+00
2.338571367534409973e+00
1.918183538315988645e+00
1.918183538315988645e+00
1.783554429761650573e+00
1.783554429761650573e+00
1.886495071260719580e+00
1.886495071260719580e+00
2.225880428479872997e+00
2.225880428479872997e+00
2.746208807641834948e+00
2.746208807641834948e+00
2.972153202917569903e+00
2.972153202917569903e+00
3.025404828028199322e+00
3.025404828028199322e+00
3.242536454359568943e+00
3.242536454359568943e+00
3.242536454359568943e+00
3.183097140415662274e+00
3.183097140415662274e+00
2.877837824640644637e+00
2.877837824640644637e+00
2.360509537034211291e+00
2.360509537034211291e+00
1.437418866542558238e+00
1.437418866542558238e+00
9.658419751579333523e-01
9.658419751579333523e-01
8.379630726035340871e-01
8.379630726035340871e-01
1.078720419934690478e+00
1.078720419934690478e+00
1.564547746208075241e+00
1.564547746208075241e+00
2.357696951200903612e+00
2.357696951200903612e+00
3.348852198858607743e+00
3.348852198858607743e+00
3.782365428632465498e+00
3.782365428632465498e+00
3.782365428632465498e+00
3.812553849909970705e+00
3.812553849909970705e+00
3.708488174077578137e+00
3.708488174077578137e+00
2.878400341807306528e+00
2.878400341807306528e+00
2.321320841090121156e+00
2.321320841090121156e+00
2.292069948423719250e+00
2.292069948423719250e+00
2.162128482924894346e+00
2.162128482924894346e+00
1.997310953093050845e+00
1.997310953093050845e+00
1.947246925260170292e+00
1.947246925260170292e+00
1.947246925260170292e+00
1.725427655873287280e+00
1.725427655873287280e+00
1.788242072817163741e+00
1.788242072817163741e+00
2.214817590868861874e+00
2.214817590868861874e+00
2.190816858424634361e+00
2.190816858424634361e+00
1.947434430982390996e+00
1.947434430982390996e+00
2.023749259926145072e+00
2.023749259926145072e+00
2.079250953703421168e+00
2.079250953703421168e+00
2.210879970702230857e+00
2.210879970702230857e+00
2.210879970702230857e+00
2.154065736869411385e+00
2.154065736869411385e+00
2.279694570757164307e+00
2.279694570757164307e+00
2.503763908810693550e+00
2.503763908810693550e+00
2.617017365031891973e+00
2.617017365031891973e+00
2.429699148533585706e+00
2.429699148533585706e+00
1.998998504593035630e+00
1.998998504593035630e+00
1.651550401318399475e+00
1.651550401318399475e+00
1.679301248207037744e+00
1.679301248207037744e+00
1.679301248207037744e+00
2.018874111148411643e+00
2.018874111148411643e+00
2.491951048310800498e+00
2.491951048310800498e+00
3.109032380138553986e+00
3.109032380138553986e+00
3.196785058137760593e+00
3.196785058137760593e+00
2.853837092196417569e+00
2.853837092196417569e+00
2.563390728476821145e+00
2.563390728476821145e+00
2.251381206701864812e+00
2.251381206701864812e+00
2.074563310647907777e+00
2.074563310647907777e+00
2.071750724814600098e+00
2.071750724814600098e+00
2.071750724814600098e+00
2.127252418591876193e+00
2.127252418591876193e+00
2.257568895535142062e+00
2.257568895535142062e+00
2.366134708700827094e+00
2.366134708700827094e+00
2.477513107699820250e+00
2.477513107699820250e+00
2.385072786645100695e+00
2.385072786645100695e+00
2.218755211035493335e+00
2.218755211035493335e+00
2.212005005035553751e+00
2.212005005035553751e+00
2.211442487868892304e+00
2.211442487868892304e+00
2.211442487868892304e+00
2.348696676534318240e+00
2.348696676534318240e+00
2.918151554918057666e+00
2.918151554918057666e+00
2.836774071474349235e+00
2.836774071474349235e+00
2.429324137089144742e+00
2.429324137089144742e+00
1.985685598315378275e+00
1.985685598315378275e+00
1.514296212652974205e+00
1.514296212652974205e+00
1.223662343211157522e+00
1.223662343211157522e+00
1.181848567155979968e+00
1.181848567155979968e+00
1.181848567155979968e+00
1.540359508041627246e+00
1.540359508041627246e+00
2.199629627368999252e+00
2.199629627368999252e+00
2.705520065919980510e+00
2.705520065919980510e+00
2.925089266640217733e+00
2.925089266640217733e+00
3.226035950804162944e+00
3.226035950804162944e+00
3.372852931302835255e+00
3.372852931302835255e+00
2.873337687307352173e+00
2.873337687307352173e+00
2.546140202032532773e+00
2.546140202032532773e+00
2.546140202032532773e+00
2.206192327646717910e+00
2.206192327646717910e+00
2.215192602313302839e+00
2.215192602313302839e+00
2.097251503036591469e+00
2.097251503036591469e+00
1.793304727317117875e+00
1.793304727317117875e+00
2.085438642536698417e+00
2.085438642536698417e+00
2.292069948423719250e+00
2.292069948423719250e+00
2.269381756035035114e+00
2.269381756035035114e+00
2.195316995757927270e+00
2.195316995757927270e+00
2.195316995757927270e+00
2.156878322702719064e+00
2.156878322702719064e+00
2.084688619647816488e+00
2.084688619647816488e+00
1.978185369426557427e+00
1.978185369426557427e+00
2.070813196203497242e+00
2.070813196203497242e+00
2.621892513809625402e+00
2.621892513809625402e+00
2.877275307473983190e+00
2.877275307473983190e+00
2.524764549699392902e+00
2.524764549699392902e+00
2.234130680257575996e+00
2.234130680257575996e+00
2.234130680257575996e+00
2.375509994811853431e+00
2.375509994811853431e+00
2.370822351756340485e+00
2.370822351756340485e+00
2.259631458479567812e+00
2.259631458479567812e+00
2.182754112369151844e+00
2.182754112369151844e+00
2.401010773033844803e+00
2.401010773033844803e+00
2.629955259865108363e+00
2.629955259865108363e+00
2.764021851252784767e+00
2.764021851252784767e+00
2.872962675862910764e+00
2.872962675862910764e+00
2.680019287697988695e+00
2.680019287697988695e+00
2.491763542588580016e+00
2.491763542588580016e+00
2.369322305978576182e+00
2.369322305978576182e+00
2.369322305978576182e+00
2.177878963591417971e+00
2.177878963591417971e+00
1.868494521927549057e+00
1.868494521927549057e+00
1.685676442762535476e+00
1.685676442762535476e+00
1.504920926541947646e+00
1.504920926541947646e+00
1.524234015930661990e+00
1.524234015930661990e+00
1.905433149204992960e+00
1.905433149204992960e+00
2.113939512314218838e+00
2.113939512314218838e+00
2.354134342478713116e+00
2.354134342478713116e+00
2.635580431531724166e+00
2.635580431531724166e+00
2.751646473586229824e+00
2.751646473586229824e+00
2.751646473586229824e+00
2.839586657307657358e+00
2.839586657307657358e+00
2.699144871364482778e+00
2.699144871364482778e+00
2.585703909421063873e+00
2.585703909421063873e+00
2.523264503921628599e+00
2.523264503921628599e+00
2.182566606646931362e+00
2.182566606646931362e+00
2.118439649647511303e+00
2.118439649647511303e+00
1.903558091982787470e+00
1.903558091982787470e+00
1.642550126651814324e+00
1.642550126651814324e+00
1.642550126651814324e+00
2.058250312814721816e+00
2.058250312814721816e+00
2.900901028473769738e+00
2.900901028473769738e+00
2.994466383861812631e+00
2.994466383861812631e+00
2.746958830530716877e+00
2.746958830530716877e+00
2.705895077364421475e+00
2.705895077364421475e+00
2.578578691976683768e+00
2.578578691976683768e+00
2.109439374980925930e+00
2.109439374980925930e+00
1.684926419873653547e+00
1.684926419873653547e+00
1.684926419873653547e+00
1.879744865260780662e+00
1.879744865260780662e+00
2.196817041535691573e+00
2.196817041535691573e+00
2.232630634479812137e+00
2.232630634479812137e+00
2.281944639423810539e+00
2.281944639423810539e+00
2.308382946256904766e+00
2.308382946256904766e+00
2.241443403424177028e+00
2.241443403424177028e+00
2.020749168370616911e+00
2.020749168370616911e+00
2.098751548814355772e+00
2.098751548814355772e+00
2.098751548814355772e+00
2.513139194921720332e+00
2.513139194921720332e+00
2.688269539475692138e+00
2.688269539475692138e+00
2.735145970030823825e+00
2.735145970030823825e+00
2.873900204474013620e+00
2.873900204474013620e+00
2.985091097750785849e+00
2.985091097750785849e+00
2.698957365642262296e+00
2.698957365642262296e+00
2.364447157200842309e+00
2.364447157200842309e+00
2.301070223090304623e+00
2.301070223090304623e+00
2.301070223090304623e+00
2.338008850367748082e+00
2.338008850367748082e+00
2.281944639423810539e+00
2.281944639423810539e+00
1.749803399761955758e+00
1.749803399761955758e+00
1.384167241431928597e+00
1.384167241431928597e+00
1.387354838709677463e+00
1.387354838709677463e+00
1.766491409039582683e+00
1.766491409039582683e+00
2.301257728812525105e+00
2.301257728812525105e+00
2.541265053254798900e+00
2.541265053254798900e+00
2.541265053254798900e+00
2.443762077700125435e+00
2.443762077700125435e+00
2.202817224646748340e+00
2.202817224646748340e+00
2.115439558091983141e+00
2.115439558091983141e+00
2.204317270424512643e+00
2.204317270424512643e+00
2.956402722251045390e+00
2.956402722251045390e+00
3.120657734916227000e+00
3.120657734916227000e+00
2.766084414197210517e+00
2.766084414197210517e+00
2.426511551255836618e+00
2.426511551255836618e+00
2.426511551255836618e+00
2.265256630146183614e+00
2.265256630146183614e+00
2.535264870143742133e+00
2.535264870143742133e+00
2.744521256141850163e+00
2.744521256141850163e+00
2.380947660756248752e+00
2.380947660756248752e+00
1.919871089815973431e+00
1.919871089815973431e+00
1.686426465651417628e+00
1.686426465651417628e+00
2.046624958037049247e+00
2.046624958037049247e+00
2.505076448866237371e+00
2.505076448866237371e+00
2.505076448866237371e+00
2.705707571642200993e+00
2.705707571642200993e+00
2.873525193029572655e+00
2.873525193029572655e+00
3.007779290139469541e+00
3.007779290139469541e+00
2.854774620807519980e+00
2.854774620807519980e+00
2.484263313699758946e+00
2.484263313699758946e+00
2.306320383312479017e+00
2.306320383312479017e+00
2.109626880703146412e+00
2.109626880703146412e+00
2.055062715536973172e+00
2.055062715536973172e+00
2.108876857814264483e+00
2.108876857814264483e+00
2.148065553758354618e+00
2.148065553758354618e+00
2.014936490981780626e+00
2.014936490981780626e+00
2.014936490981780626e+00
1.927558824427014983e+00
1.927558824427014983e+00
1.846556352427747516e+00
1.846556352427747516e+00
1.920808618427076064e+00
1.920808618427076064e+00
1.851056489761039980e+00
1.851056489761039980e+00
2.134752647480697263e+00
2.134752647480697263e+00
2.303320291756950855e+00
2.303320291756950855e+00
2.480513199255348411e+00
2.480513199255348411e+00
2.765146885586108105e+00
2.765146885586108105e+00
2.765146885586108105e+00
2.629392742698446916e+00
2.629392742698446916e+00
2.253631275368511044e+00
2.253631275368511044e+00
2.004061159092989985e+00
2.004061159092989985e+00
2.159503402813806705e+00
2.159503402813806705e+00
2.515576769310586602e+00
2.515576769310586602e+00
2.728208258308664202e+00
2.728208258308664202e+00
2.838086611529893055e+00
2.838086611529893055e+00
2.591329081087679675e+00
2.591329081087679675e+00
2.591329081087679675e+00
2.294695028534806447e+00
2.294695028534806447e+00
2.118439649647511303e+00
2.118439649647511303e+00
2.315320657979064389e+00
2.315320657979064389e+00
2.071938230536820580e+00
2.071938230536820580e+00
1.597361247596667422e+00
1.597361247596667422e+00
1.689051545762505047e+00
1.689051545762505047e+00
2.327321024201178368e+00
2.327321024201178368e+00
2.653580980864894912e+00
2.653580980864894912e+00
2.653580980864894912e+00
2.734770958586382861e+00
2.734770958586382861e+00
2.752208990752891715e+00
2.752208990752891715e+00
2.793085238196966635e+00
2.793085238196966635e+00
2.715082857753227330e+00
2.715082857753227330e+00
2.577266151921139947e+00
2.577266151921139947e+00
2.554202948088015290e+00
2.554202948088015290e+00
2.460450086977751916e+00
2.460450086977751916e+00
2.351321756645405436e+00
2.351321756645405436e+00
2.351321756645405436e+00
2.392385509811700839e+00
2.392385509811700839e+00
2.248568620868556689e+00
2.248568620868556689e+00
2.115064546647541732e+00
2.115064546647541732e+00
2.097439008758812395e+00
2.097439008758812395e+00
2.059562852870265637e+00
2.059562852870265637e+00
2.095001434369945237e+00
2.095001434369945237e+00
2.117877132480849411e+00
2.117877132480849411e+00
2.086376171147801273e+00
2.086376171147801273e+00
2.086376171147801273e+00
1.952309579760124647e+00
1.952309579760124647e+00
1.769679006317331549e+00
1.769679006317331549e+00
1.848056398205511819e+00
1.848056398205511819e+00
1.882932462538529750e+00
1.882932462538529750e+00
2.119189672536393232e+00
2.119189672536393232e+00
2.432699240089114312e+00
2.432699240089114312e+00
2.823086153752250915e+00
2.823086153752250915e+00
2.839211645863215949e+00
2.839211645863215949e+00
2.839211645863215949e+00
2.539765007477034597e+00
2.539765007477034597e+00
2.189504318369090985e+00
2.189504318369090985e+00
2.004811181981871915e+00
2.004811181981871915e+00
2.389947935422834124e+00
2.389947935422834124e+00
2.517639332255012796e+00
2.517639332255012796e+00
2.409636036255989211e+00
2.409636036255989211e+00
2.248381115146336207e+00
2.248381115146336207e+00
1.952872096926786094e+00
1.952872096926786094e+00
1.952872096926786094e+00
2.033874568926053783e+00
2.033874568926053783e+00
2.487638416699728516e+00
2.487638416699728516e+00
3.168846705526902063e+00
3.168846705526902063e+00
3.391040986358226483e+00
3.391040986358226483e+00
3.226223456526383426e+00
3.226223456526383426e+00
2.815398419141209363e+00
2.815398419141209363e+00
2.540515030365916971e+00
2.540515030365916971e+00
2.307445417645802355e+00
2.307445417645802355e+00
2.307445417645802355e+00
2.027499374370555607e+00
2.027499374370555607e+00
1.843931272316659875e+00
1.843931272316659875e+00
1.937121616260262025e+00
1.937121616260262025e+00
2.093313882869960452e+00
2.093313882869960452e+00
2.165128574480422063e+00
2.165128574480422063e+00
2.186504226813562823e+00
2.186504226813562823e+00
2.351134250923184954e+00
2.351134250923184954e+00
2.365759697256386129e+00
2.365759697256386129e+00
2.365759697256386129e+00
2.202629718924527857e+00
2.202629718924527857e+00
2.323570909756767389e+00
2.323570909756767389e+00
2.402510818811609106e+00
2.402510818811609106e+00
2.432699240089114312e+00
2.432699240089114312e+00
2.382635212256233537e+00
2.382635212256233537e+00
2.133065095980712478e+00
2.133065095980712478e+00
1.997123447370830363e+00
1.997123447370830363e+00
1.991498275704214560e+00
1.991498275704214560e+00
2.070625690481276759e+00
2.070625690481276759e+00
2.054125186925870761e+00
2.054125186925870761e+00
2.196254524369030126e+00
2.196254524369030126e+00
2.196254524369030126e+00
2.302195257423627517e+00
2.302195257423627517e+00
2.411136082033753514e+00
2.411136082033753514e+00
2.273881893368328022e+00
2.273881893368328022e+00
2.257943906979583026e+00
2.257943906979583026e+00
2.504701437421796406e+00
2.504701437421796406e+00
2.583266335032197158e+00
2.583266335032197158e+00
2.854774620807519980e+00
2.854774620807519980e+00
2.699332377086703261e+00
2.699332377086703261e+00
2.699332377086703261e+00
2.378510086367381593e+00
2.378510086367381593e+00
2.030311960203863730e+00
2.030311960203863730e+00
1.967497543259987047e+00
1.967497543259987047e+00
1.851994018372142614e+00
1.851994018372142614e+00
2.069688161870173904e+00
2.069688161870173904e+00
2.394635578478347071e+00
2.394635578478347071e+00
2.546890224921415147e+00
2.546890224921415147e+00
2.558328073976867234e+00
2.558328073976867234e+00
2.558328073976867234e+00
2.409073519089327764e+00
2.409073519089327764e+00
2.337446333201086635e+00
2.337446333201086635e+00
2.474513016144291644e+00
2.474513016144291644e+00
2.474513016144291644e+00
2.474513016144291644e+00
2.359009491256446989e+00
2.359009491256446989e+00
2.215755119479964730e+00
2.215755119479964730e+00
2.090501297036652772e+00
2.090501297036652772e+00
2.122564775536362802e+00
2.122564775536362802e+00
2.122564775536362802e+00
2.173753837702566916e+00
2.173753837702566916e+00
2.338383861812189490e+00
2.338383861812189490e+00
2.744521256141850163e+00
2.744521256141850163e+00
2.933152012695700250e+00
2.933152012695700250e+00
2.878025330362865120e+00
2.878025330362865120e+00
2.785022492141483674e+00
2.785022492141483674e+00
2.513326700643940814e+00
2.513326700643940814e+00
2.335571275978881367e+00
2.335571275978881367e+00
2.226817957090975852e+00
2.226817957090975852e+00
2.226817957090975852e+00
2.129689992980742907e+00
2.129689992980742907e+00
2.031999511703848516e+00
2.031999511703848516e+00
1.811680288094729585e+00
1.811680288094729585e+00
1.825930722983489574e+00
1.825930722983489574e+00
1.869244544816431208e+00
1.869244544816431208e+00
1.991685781426435042e+00
1.991685781426435042e+00
2.046999969481490211e+00
2.046999969481490211e+00
2.056375255592516993e+00
2.056375255592516993e+00
2.119939695425275605e+00
2.119939695425275605e+00
2.119939695425275605e+00
2.321883358256782603e+00
2.321883358256782603e+00
2.319633289590136371e+00
2.319633289590136371e+00
2.285319742423780109e+00
2.285319742423780109e+00
2.445262123477889293e+00
2.445262123477889293e+00
2.617392376476332938e+00
2.617392376476332938e+00
2.581766289254432856e+00
2.581766289254432856e+00
2.482763267921994643e+00
2.482763267921994643e+00
2.278569536423841413e+00
2.278569536423841413e+00
2.278569536423841413e+00
2.210504959257789892e+00
2.210504959257789892e+00
2.505451460310678335e+00
2.505451460310678335e+00
2.727833246864223238e+00
2.727833246864223238e+00
2.613454756309701921e+00
2.613454756309701921e+00
2.396510635700552783e+00
2.396510635700552783e+00
2.370072328867458111e+00
2.370072328867458111e+00
2.658268623920407858e+00
2.658268623920407858e+00
2.658268623920407858e+00
2.859837275307473892e+00
2.859837275307473892e+00
2.852524552140873748e+00
2.852524552140873748e+00
2.630892788476211219e+00
2.630892788476211219e+00
2.251381206701864812e+00
2.251381206701864812e+00
1.972747703482162107e+00
1.972747703482162107e+00
1.881619922482985929e+00
1.881619922482985929e+00
1.938059144871364436e+00
1.938059144871364436e+00
2.062187932981353278e+00
2.062187932981353278e+00
2.062187932981353278e+00
2.234880703146458369e+00
2.234880703146458369e+00
2.450512283700064131e+00
2.450512283700064131e+00
2.448637226477858864e+00
2.448637226477858864e+00
2.339508896145511940e+00
2.339508896145511940e+00
2.394823084200567997e+00
2.394823084200567997e+00
2.441699514755699685e+00
2.441699514755699685e+00
2.369134800256355700e+00
2.369134800256355700e+00
2.378322580645161111e+00
2.378322580645161111e+00
2.378322580645161111e+00
2.371197363200781449e+00
2.371197363200781449e+00
2.166628620258186366e+00
2.166628620258186366e+00
2.076250862147892562e+00
2.076250862147892562e+00
2.079438459425641650e+00
2.079438459425641650e+00
2.152565691091647082e+00
2.152565691091647082e+00
2.207692373424482213e+00
2.207692373424482213e+00
2.002373607593005200e+00
2.002373607593005200e+00
2.009123813592944341e+00
2.009123813592944341e+00
2.217630176702169997e+00
2.217630176702169997e+00
2.387322855311746483e+00
2.387322855311746483e+00
2.387322855311746483e+00
2.245193517868587563e+00
2.245193517868587563e+00
2.168878688924833043e+00
2.168878688924833043e+00
2.251006195257423848e+00
2.251006195257423848e+00
2.381135166478469234e+00
2.381135166478469234e+00
2.524577043977172419e+00
2.524577043977172419e+00
2.744333750419629681e+00
2.744333750419629681e+00
2.665581347087008446e+00
2.665581347087008446e+00
2.375885006256294396e+00
2.375885006256294396e+00
2.077750907925656865e+00
2.077750907925656865e+00
2.077750907925656865e+00
2.128752464369640052e+00
2.128752464369640052e+00
2.356946928312021239e+00
2.356946928312021239e+00
2.385635303811762142e+00
2.385635303811762142e+00
2.312133060701315301e+00
2.312133060701315301e+00
2.416011230811487387e+00
2.416011230811487387e+00
2.556828028199102931e+00
2.556828028199102931e+00
2.581016266365550926e+00
2.581016266365550926e+00
2.601829401532029351e+00
2.601829401532029351e+00
2.601829401532029351e+00
2.679456770531327248e+00
2.679456770531327248e+00
2.480513199255348411e+00
2.480513199255348411e+00
2.339696401867732423e+00
2.339696401867732423e+00
2.187254249702444309e+00
2.187254249702444309e+00
2.103064180425428198e+00
2.103064180425428198e+00
2.034437086092715230e+00
2.034437086092715230e+00
2.037249671926022909e+00
2.037249671926022909e+00
2.130815027314065802e+00
2.130815027314065802e+00
2.130815027314065802e+00
2.288132328257088233e+00
2.288132328257088233e+00
2.389385418256172233e+00
2.389385418256172233e+00
2.515764275032807085e+00
2.515764275032807085e+00
2.694832239753410352e+00
2.694832239753410352e+00
2.662018738364818393e+00
2.662018738364818393e+00
2.610454664754173315e+00
2.610454664754173315e+00
2.524764549699392902e+00
2.524764549699392902e+00
2.276881984923856628e+00
2.276881984923856628e+00
2.276881984923856628e+00
2.167191137424848257e+00
2.167191137424848257e+00
2.122002258369701355e+00
2.122002258369701355e+00
2.052062623981445011e+00
2.052062623981445011e+00
2.160065919980468152e+00
2.160065919980468152e+00
2.049250038148136888e+00
2.049250038148136888e+00
1.821055574205755700e+00
1.821055574205755700e+00
2.002748619037446165e+00
2.002748619037446165e+00
2.323758415478988315e+00
2.323758415478988315e+00
2.550640339365825238e+00
2.550640339365825238e+00
2.550640339365825238e+00
2.755209082308420321e+00
2.755209082308420321e+00
2.596391735587634031e+00
2.596391735587634031e+00
2.429511642811365224e+00
2.429511642811365224e+00
2.323195898312326424e+00
2.323195898312326424e+00
2.282132145146031021e+00
2.282132145146031021e+00
2.458950041199987613e+00
2.458950041199987613e+00
2.414323679311502602e+00
2.414323679311502602e+00
2.308945463423566213e+00
2.308945463423566213e+00
2.308945463423566213e+00
2.472262947477644968e+00
2.472262947477644968e+00
2.496076174199651998e+00
2.496076174199651998e+00
2.434761803033539618e+00
2.434761803033539618e+00
2.339508896145511940e+00
2.339508896145511940e+00
2.301070223090304623e+00
2.301070223090304623e+00
2.367447248756370914e+00
2.367447248756370914e+00
2.334821253089998994e+00
2.334821253089998994e+00
2.397823175756096159e+00
2.397823175756096159e+00
2.397823175756096159e+00
2.432324228644673347e+00
2.432324228644673347e+00
2.274444410534989469e+00
2.274444410534989469e+00
2.142440382091738371e+00
2.142440382091738371e+00
2.146753013702810797e+00
2.146753013702810797e+00
2.161565965758232455e+00
2.161565965758232455e+00
2.226255439924313961e+00
2.226255439924313961e+00
2.334446241645558029e+00
2.334446241645558029e+00
2.408698507644886799e+00
2.408698507644886799e+00
2.408698507644886799e+00
2.446949674977874079e+00
2.446949674977874079e+00
2.380385143589587305e+00
2.380385143589587305e+00
2.361072054200873183e+00
2.361072054200873183e+00
2.324508438367870244e+00
2.324508438367870244e+00
2.198879604480116878e+00
2.198879604480116878e+00
2.216692648091067142e+00
2.216692648091067142e+00
2.356571916867580274e+00
2.356571916867580274e+00
2.228130497146519229e+00
2.228130497146519229e+00
2.228130497146519229e+00
2.255693838312936794e+00
2.255693838312936794e+00
2.194379467146824858e+00
2.194379467146824858e+00
2.142252876369517889e+00
2.142252876369517889e+00
2.235255714590899334e+00
2.235255714590899334e+00
2.434386791589098653e+00
2.434386791589098653e+00
2.646455763420514362e+00
2.646455763420514362e+00
2.609329630420849977e+00
2.609329630420849977e+00
2.342696493423261028e+00
2.342696493423261028e+00
2.129127475814081016e+00
2.129127475814081016e+00
2.129127475814081016e+00
1.951372051149021791e+00
1.951372051149021791e+00
1.852744041261024766e+00
1.852744041261024766e+00
1.838306100650044295e+00
1.838306100650044295e+00
1.912183355204931878e+00
1.912183355204931878e+00
1.903558091982787470e+00
1.903558091982787470e+00
2.135315164647358710e+00
2.135315164647358710e+00
2.349259193700979687e+00
2.349259193700979687e+00
2.693707205420087014e+00
2.693707205420087014e+00
3.100032105471969057e+00
3.100032105471969057e+00
3.100032105471969057e+00
3.133595629749443390e+00
3.133595629749443390e+00
3.060655903805657996e+00
3.060655903805657996e+00
2.824211188085573809e+00
2.824211188085573809e+00
2.532827295754875419e+00
2.532827295754875419e+00
2.466450270088809127e+00
2.466450270088809127e+00
2.431199194311350009e+00
2.431199194311350009e+00
2.361072054200873183e+00
2.361072054200873183e+00
2.345134067812128187e+00
2.345134067812128187e+00
2.345134067812128187e+00
2.264694112979522167e+00
2.264694112979522167e+00
2.169253700369274007e+00
2.169253700369274007e+00
2.123689809869686140e+00
2.123689809869686140e+00
2.095751457258827610e+00
2.095751457258827610e+00
2.115064546647541732e+00
2.115064546647541732e+00
2.187629261146885273e+00
2.187629261146885273e+00
2.230755577257606870e+00
2.230755577257606870e+00
2.326571001312295994e+00
2.326571001312295994e+00
2.326571001312295994e+00
2.347946653645436310e+00
2.347946653645436310e+00
2.299195165868098911e+00
2.299195165868098911e+00
2.323570909756767389e+00
2.323570909756767389e+00
2.291319925534837321e+00
2.291319925534837321e+00
2.220817773979919085e+00
2.220817773979919085e+00
2.254756309701834383e+00
2.254756309701834383e+00
2.182004089480269915e+00
2.182004089480269915e+00
2.195879512924588717e+00
2.195879512924588717e+00
2.195879512924588717e+00
2.209567430646687480e+00
2.209567430646687480e+00
2.220067751091036712e+00
2.220067751091036712e+00
2.267319193090609808e+00
2.267319193090609808e+00
2.366884731589709023e+00
2.366884731589709023e+00
2.440949491866817311e+00
2.440949491866817311e+00
2.523264503921628599e+00
2.523264503921628599e+00
2.600329355754265048e+00
2.600329355754265048e+00
2.644580706198309095e+00
2.644580706198309095e+00
2.644580706198309095e+00
2.578953703421124732e+00
2.578953703421124732e+00
2.386947843867305519e+00
2.386947843867305519e+00
2.276319467757194737e+00
2.276319467757194737e+00
2.322445875423444495e+00
2.322445875423444495e+00
2.168878688924833043e+00
2.168878688924833043e+00
2.160628437147130043e+00
2.160628437147130043e+00
2.189879329813531950e+00
2.189879329813531950e+00
2.099126560258797181e+00
2.099126560258797181e+00
2.099126560258797181e+00
2.167378643147068740e+00
2.167378643147068740e+00
2.275381939146092325e+00
2.275381939146092325e+00
2.392385509811700839e+00
2.392385509811700839e+00
2.511451643421735547e+00
2.511451643421735547e+00
2.434386791589098653e+00
2.434386791589098653e+00
2.478263130588702179e+00
2.478263130588702179e+00
2.495138645588549586e+00
2.495138645588549586e+00
2.385447798089541660e+00
2.385447798089541660e+00
2.385447798089541660e+00
2.393135532700583212e+00
2.393135532700583212e+00
2.360884548478652700e+00
2.360884548478652700e+00
2.242005920590838475e+00
2.242005920590838475e+00
2.217255165257729033e+00
2.217255165257729033e+00
2.155003265480513797e+00
2.155003265480513797e+00
2.149753105258339403e+00
2.149753105258339403e+00
2.213317545091097571e+00
2.213317545091097571e+00
2.256443861201819168e+00
2.256443861201819168e+00
2.256443861201819168e+00
2.291882442701498768e+00
2.291882442701498768e+00
2.305945371868038052e+00
2.305945371868038052e+00
2.314570635090182460e+00
2.314570635090182460e+00
2.374009949034089573e+00
2.374009949034089573e+00
2.377385052034058699e+00
2.377385052034058699e+00
2.320008301034577336e+00
2.320008301034577336e+00
2.362759605700857524e+00
2.362759605700857524e+00
2.290569902645954947e+00
2.290569902645954947e+00
2.290569902645954947e+00
2.231693105868709726e+00
2.231693105868709726e+00
2.195129490035706787e+00
2.195129490035706787e+00
2.148440565202795582e+00
2.148440565202795582e+00
2.144690450758385047e+00
2.144690450758385047e+00
2.272006836146122755e+00
2.272006836146122755e+00
2.392010498367259874e+00
2.392010498367259874e+00
2.421448896755882263e+00
2.421448896755882263e+00
2.501701345866268245e+00
2.501701345866268245e+00
2.549140293588061379e+00
2.549140293588061379e+00
2.549140293588061379e+00
2.516139286477248493e+00
2.516139286477248493e+00
2.426136539811395654e+00
2.426136539811395654e+00
2.391072969756157018e+00
2.391072969756157018e+00
2.397823175756096159e+00
2.397823175756096159e+00
2.194941984313486305e+00
2.194941984313486305e+00
2.157253334147160473e+00
2.157253334147160473e+00
2.218380199591051927e+00
2.218380199591051927e+00
2.239568346201971760e+00
2.239568346201971760e+00
2.239568346201971760e+00
2.234505691702016961e+00
2.234505691702016961e+00
2.269944273201696561e+00
2.269944273201696561e+00
2.276319467757194737e+00
2.276319467757194737e+00
2.284382213812677254e+00
2.284382213812677254e+00
2.293569994201483109e+00
2.293569994201483109e+00
2.409636036255989211e+00
2.409636036255989211e+00
2.533952330088198757e+00
2.533952330088198757e+00
2.458387524033326166e+00
2.458387524033326166e+00
2.458387524033326166e+00
2.363322122867518971e+00
2.363322122867518971e+00
2.298632648701437464e+00
2.298632648701437464e+00
2.189316812646870059e+00
2.189316812646870059e+00
2.192691915646840073e+00
2.192691915646840073e+00
2.200754661702322146e+00
2.200754661702322146e+00
2.145440473647266977e+00
2.145440473647266977e+00
2.140752830591753586e+00
2.140752830591753586e+00
2.186691732535783306e+00
2.186691732535783306e+00
2.269381756035035114e+00
2.269381756035035114e+00
2.269381756035035114e+00
2.320383312479018745e+00
2.320383312479018745e+00
2.403448347422711961e+00
2.403448347422711961e+00
2.507326517532883603e+00
2.507326517532883603e+00
2.515389263588366120e+00
2.515389263588366120e+00
2.445824640644550740e+00
2.445824640644550740e+00
2.485013336588640875e+00
2.485013336588640875e+00
2.402510818811609106e+00
2.402510818811609106e+00
2.266194158757286470e+00
2.266194158757286470e+00
2.266194158757286470e+00
2.245943540757469048e+00
2.245943540757469048e+00
2.199817133091219734e+00
2.199817133091219734e+00
2.222130314035462462e+00
2.222130314035462462e+00
2.297132602923673161e+00
2.297132602923673161e+00
2.396885647144993747e+00
2.396885647144993747e+00
2.429511642811365224e+00
2.429511642811365224e+00
2.405698416089358194e+00
2.405698416089358194e+00
2.288319833979308715e+00
2.288319833979308715e+00
2.300695211645863214e+00
2.300695211645863214e+00
2.300695211645863214e+00
2.336321298867763296e+00
2.336321298867763296e+00
2.325070955534531691e+00
2.325070955534531691e+00
2.410198553422650658e+00
2.410198553422650658e+00
2.343259010589922919e+00
2.343259010589922919e+00
2.279132053590502860e+00
2.279132053590502860e+00
2.297132602923673161e+00
2.297132602923673161e+00
2.245568529313028083e+00
2.245568529313028083e+00
2.245568529313028083e+00
2.278944547868282378e+00
2.278944547868282378e+00
2.343259010589922919e+00
2.343259010589922919e+00
2.339133884701071420e+00
2.339133884701071420e+00
2.316445692312387283e+00
2.316445692312387283e+00
2.381135166478469234e+00
2.381135166478469234e+00
2.424261482589190386e+00
2.424261482589190386e+00
2.462325144199957183e+00
2.462325144199957183e+00
2.382822717978454019e+00
2.382822717978454019e+00
2.382822717978454019e+00
2.366884731589709023e+00
2.366884731589709023e+00
2.385447798089541660e+00
2.385447798089541660e+00
2.321508346812341639e+00
2.321508346812341639e+00
2.265069124423963132e+00
2.265069124423963132e+00
2.202442213202307375e+00
2.202442213202307375e+00
2.150690633869442259e+00
2.150690633869442259e+00
2.162878505813776275e+00
2.162878505813776275e+00
2.191754387035737217e+00
2.191754387035737217e+00
2.191754387035737217e+00
2.236943266090884119e+00
2.236943266090884119e+00
2.278007019257179522e+00
2.278007019257179522e+00
2.293382488479262626e+00
2.293382488479262626e+00
2.346821619312112972e+00
2.346821619312112972e+00
2.411323587755973996e+00
2.411323587755973996e+00
2.378697592089602519e+00
2.378697592089602519e+00
2.389947935422834124e+00
2.389947935422834124e+00
2.397073152867214230e+00
2.397073152867214230e+00
2.397073152867214230e+00
2.302382763145847999e+00
2.302382763145847999e+00
2.279882076479384789e+00
2.279882076479384789e+00
2.238818323313089387e+00
2.238818323313089387e+00
2.189691824091311467e+00
2.189691824091311467e+00
2.206192327646717910e+00
2.206192327646717910e+00
2.196817041535691573e+00
2.196817041535691573e+00
2.272756859035004684e+00
2.272756859035004684e+00
2.353009308145390222e+00
2.353009308145390222e+00
2.396510635700552783e+00
2.396510635700552783e+00
2.396510635700552783e+00
2.450324777977843649e+00
2.450324777977843649e+00
2.450512283700064131e+00
2.450512283700064131e+00
2.404760887478255782e+00
2.404760887478255782e+00
2.448449720755638381e+00
2.448449720755638381e+00
2.402885830256050514e+00
2.402885830256050514e+00
2.311945554979094819e+00
2.311945554979094819e+00
2.278007019257179522e+00
2.278007019257179522e+00
2.178441480758079862e+00
2.178441480758079862e+00
2.127627430036317158e+00
2.127627430036317158e+00
2.127627430036317158e+00
2.169441206091494490e+00
2.169441206091494490e+00
2.174128849147007880e+00
2.174128849147007880e+00
2.249131138035218136e+00
2.249131138035218136e+00
2.322633381145664977e+00
2.322633381145664977e+00
2.389760429700613198e+00
2.389760429700613198e+00
2.481450727866450823e+00
2.481450727866450823e+00
2.528139652699362028e+00
2.528139652699362028e+00
2.512389172032837958e+00
2.512389172032837958e+00
2.495513657032990551e+00
2.495513657032990551e+00
2.495513657032990551e+00
2.292444959868159771e+00
2.292444959868159771e+00
2.194941984313486305e+00
2.194941984313486305e+00
2.163816034424878687e+00
2.163816034424878687e+00
2.118064638203069894e+00
2.118064638203069894e+00
2.145815485091708386e+00
2.145815485091708386e+00
2.192879421369060555e+00
2.192879421369060555e+00
2.242005920590838475e+00
2.242005920590838475e+00
2.317570726645710621e+00
2.317570726645710621e+00
2.317570726645710621e+00
2.347384136478774419e+00
2.347384136478774419e+00
2.388822901089510786e+00
2.388822901089510786e+00
2.433824274422437206e+00
2.433824274422437206e+00
2.380572649311807787e+00
2.380572649311807787e+00
2.398198187200537124e+00
2.398198187200537124e+00
2.409073519089327764e+00
2.409073519089327764e+00
2.302570268868068482e+00
2.302570268868068482e+00
2.285507248146000592e+00
2.285507248146000592e+00
2.285507248146000592e+00
2.283257179479354360e+00
2.283257179479354360e+00
2.266194158757286470e+00
2.266194158757286470e+00
2.260006469924008776e+00
2.260006469924008776e+00
2.223630359813226764e+00
2.223630359813226764e+00
2.279507065034943825e+00
2.279507065034943825e+00
2.358259468367565059e+00
2.358259468367565059e+00
2.388260383922848895e+00
2.388260383922848895e+00
2.441136997589037794e+00
2.441136997589037794e+00
2.441136997589037794e+00
2.465137730033265306e+00
2.465137730033265306e+00
2.389760429700613198e+00
2.389760429700613198e+00
2.413011139255958781e+00
2.413011139255958781e+00
2.372697408978545752e+00
2.372697408978545752e+00
2.258318918424023991e+00
2.258318918424023991e+00
2.243130954924161813e+00
2.243130954924161813e+00
2.199817133091219734e+00
2.199817133091219734e+00
2.178066469313638454e+00
2.178066469313638454e+00
2.178066469313638454e+00
2.217255165257729033e+00
2.217255165257729033e+00
2.231693105868709726e+00
2.231693105868709726e+00
2.296382580034791232e+00
2.296382580034791232e+00
2.368947294534135217e+00
2.368947294534135217e+00
2.387135349589526001e+00
2.387135349589526001e+00
2.424823999755851833e+00
2.424823999755851833e+00
2.427824091311380439e+00
2.427824091311380439e+00
2.382635212256233537e+00
2.382635212256233537e+00
2.382635212256233537e+00
2.447512192144535526e+00
2.447512192144535526e+00
2.386760338145085036e+00
2.386760338145085036e+00
2.285132236701559627e+00
2.285132236701559627e+00
2.240130863368633207e+00
2.240130863368633207e+00
2.174316354869228363e+00
2.174316354869228363e+00
2.170191228980376863e+00
2.170191228980376863e+00
2.225880428479872997e+00
2.225880428479872997e+00
2.247631092257453833e+00
2.247631092257453833e+00
2.247631092257453833e+00
2.291132419812616394e+00
2.291132419812616394e+00
2.305382854701376161e+00
2.305382854701376161e+00
2.341571459089938134e+00
2.341571459089938134e+00
2.410761070589312105e+00
2.410761070589312105e+00
2.359947019867549844e+00
2.359947019867549844e+00
2.361634571367534630e+00
2.361634571367534630e+00
2.424636494033631351e+00
2.424636494033631351e+00
2.312883083590197675e+00
2.312883083590197675e+00
2.312883083590197675e+00
2.280632099368266719e+00
2.280632099368266719e+00
2.279132053590502860e+00
2.279132053590502860e+00
2.227755485702078264e+00
2.227755485702078264e+00
2.226067934202093479e+00
2.226067934202093479e+00
2.231880611590930208e+00
2.231880611590930208e+00
2.246318552201910457e+00
2.246318552201910457e+00
2.279882076479384789e+00
2.279882076479384789e+00
2.299945188756981285e+00
2.299945188756981285e+00
2.359572008423108880e+00
2.359572008423108880e+00
2.403635853144932444e+00
2.403635853144932444e+00
2.392573015533921321e+00
2.392573015533921321e+00
2.392573015533921321e+00
2.433449262977995797e+00
2.433449262977995797e+00
2.438886928922391562e+00
2.438886928922391562e+00
2.319633289590136371e+00
2.319633289590136371e+00
2.295632557145908859e+00
2.295632557145908859e+00
2.243505966368602778e+00
2.243505966368602778e+00
2.213880062257759462e+00
2.213880062257759462e+00
2.243318460646382295e+00
2.243318460646382295e+00
2.257006378368480615e+00
2.257006378368480615e+00
2.257006378368480615e+00
2.287382305368205859e+00
2.287382305368205859e+00
2.316070680867946319e+00
2.316070680867946319e+00
2.312695577867977192e+00
2.312695577867977192e+00
2.377572557756279181e+00
2.377572557756279181e+00
2.383385235145115466e+00
2.383385235145115466e+00
2.352071779534287366e+00
2.352071779534287366e+00
2.396885647144993747e+00
2.396885647144993747e+00
2.367822260200811879e+00
2.367822260200811879e+00
2.367822260200811879e+00
2.262631550035096417e+00
2.262631550035096417e+00
2.239005829035309869e+00
2.239005829035309869e+00
2.191754387035737217e+00
2.191754387035737217e+00
2.213317545091097571e+00
2.213317545091097571e+00
2.280069582201605716e+00
2.280069582201605716e+00
2.309882992034669069e+00
2.309882992034669069e+00
2.340258919034394314e+00
2.340258919034394314e+00
2.369509811700796664e+00
2.369509811700796664e+00
2.369509811700796664e+00
2.370634846034120002e+00
2.370634846034120002e+00
2.390510452589495571e+00
2.390510452589495571e+00
2.362009582811975594e+00
2.362009582811975594e+00
2.336321298867763296e+00
2.336321298867763296e+00
2.404573381756035300e+00
2.404573381756035300e+00
2.320758323923459709e+00
2.320758323923459709e+00
2.263006561479537382e+00
2.263006561479537382e+00
2.230755577257606870e+00
2.230755577257606870e+00
2.230755577257606870e+00
2.184629169591357556e+00
2.184629169591357556e+00
2.215192602313302839e+00
2.215192602313302839e+00
2.254568803979613900e+00
2.254568803979613900e+00
2.280444593646046680e+00
2.280444593646046680e+00
2.317758232367931104e+00
2.317758232367931104e+00
2.335946287423322332e+00
2.335946287423322332e+00
2.364259651478621826e+00
2.364259651478621826e+00
2.410011047700430176e+00
2.410011047700430176e+00
2.380197637867366822e+00
2.380197637867366822e+00
2.380197637867366822e+00
2.374759971922971058e+00
2.374759971922971058e+00
2.414886196478164049e+00
2.414886196478164049e+00
2.296570085757011714e+00
2.296570085757011714e+00
2.254943815424054865e+00
2.254943815424054865e+00
2.218755211035493335e+00
2.218755211035493335e+00
2.194004455702383449e+00
2.194004455702383449e+00
2.225880428479872997e+00
2.225880428479872997e+00
2.242380932035279439e+00
2.242380932035279439e+00
2.242380932035279439e+00
2.275756950590533290e+00
2.275756950590533290e+00
2.327508529923398850e+00
2.327508529923398850e+00
2.338196356089969008e+00
2.338196356089969008e+00
2.374947477645191540e+00
2.374947477645191540e+00
2.403635853144932444e+00
2.403635853144932444e+00
2.378322580645161111e+00
2.378322580645161111e+00
2.418636310922574584e+00
2.418636310922574584e+00
2.395385601367229444e+00
2.395385601367229444e+00
2.395385601367229444e+00
2.258506424146244473e+00
2.258506424146244473e+00
2.233380657368694511e+00
2.233380657368694511e+00
2.187629261146885273e+00
2.187629261146885273e+00
2.179941526535844165e+00
2.179941526535844165e+00
2.214817590868861874e+00
2.214817590868861874e+00
2.242755943479720404e+00
2.242755943479720404e+00
2.300882717368083696e+00
2.300882717368083696e+00
2.354321848200934042e+00
2.354321848200934042e+00
2.354321848200934042e+00
2.363509628589739453e+00
2.363509628589739453e+00
2.405135898922696747e+00
2.405135898922696747e+00
2.395010589922788480e+00
2.395010589922788480e+00
2.359572008423108880e+00
2.359572008423108880e+00
2.413198644978179264e+00
2.413198644978179264e+00
2.345134067812128187e+00
2.345134067812128187e+00
2.263194067201757864e+00
2.263194067201757864e+00
2.251756218146305777e+00
2.251756218146305777e+00
2.251756218146305777e+00
2.206942350535599839e+00
2.206942350535599839e+00
2.197567064424573946e+00
2.197567064424573946e+00
2.221005279702139568e+00
2.221005279702139568e+00
2.206192327646717910e+00
2.206192327646717910e+00
2.285882259590441556e+00
2.285882259590441556e+00
2.368572283089693808e+00
2.368572283089693808e+00
2.374009949034089573e+00
2.374009949034089573e+00
2.381135166478469234e+00
2.381135166478469234e+00
2.347571642200994901e+00
2.347571642200994901e+00
2.364447157200842309e+00
2.364447157200842309e+00
2.364447157200842309e+00
2.427449079866939474e+00
2.427449079866939474e+00
2.339883907589953349e+00
2.339883907589953349e+00
2.302757774590289408e+00
2.302757774590289408e+00
2.250443678090761956e+00
2.250443678090761956e+00
2.189504318369090985e+00
2.189504318369090985e+00
2.214630085146641392e+00
2.214630085146641392e+00
2.258881435590685438e+00
2.258881435590685438e+00
2.286069765312662039e+00
2.286069765312662039e+00
2.347196630756553937e+00
2.347196630756553937e+00
2.347196630756553937e+00
2.359196996978667915e+00
2.359196996978667915e+00
2.365572191534165203e+00
2.365572191534165203e+00
2.386760338145085036e+00
2.386760338145085036e+00
2.337633838923307117e+00
2.337633838923307117e+00
2.338008850367748082e+00
2.338008850367748082e+00
2.377572557756279181e+00
2.377572557756279181e+00
2.309132969145787140e+00
2.309132969145787140e+00
2.297507614368114126e+00
2.297507614368114126e+00
2.297507614368114126e+00
2.248943632312997654e+00
2.248943632312997654e+00
2.140190313425092139e+00
2.140190313425092139e+00
2.170753746147038310e+00
2.170753746147038310e+00
2.239380840479750834e+00
2.239380840479750834e+00
2.302382763145847999e+00
2.302382763145847999e+00
2.350571733756523507e+00
2.350571733756523507e+00
2.351134250923184954e+00
2.351134250923184954e+00
2.405135898922696747e+00
2.405135898922696747e+00
2.420323862422559369e+00
2.420323862422559369e+00
2.420323862422559369e+00
2.355259376812036454e+00
2.355259376812036454e+00
2.379822626422925413e+00
2.379822626422925413e+00
2.342883999145481511e+00
2.342883999145481511e+00
2.260006469924008776e+00
2.260006469924008776e+00
2.255131321146275347e+00
2.255131321146275347e+00
2.201879696035645484e+00
2.201879696035645484e+00
2.182191595202490397e+00
2.182191595202490397e+00
2.231318094424268317e+00
2.231318094424268317e+00
2.272944364757225166e+00
2.272944364757225166e+00
2.272944364757225166e+00
2.321883358256782603e+00
2.321883358256782603e+00
2.358634479812006024e+00
2.358634479812006024e+00
2.362572099978637485e+00
2.362572099978637485e+00
2.401573290200506694e+00
2.401573290200506694e+00
2.385260292367321178e+00
2.385260292367321178e+00
2.341946470534379099e+00
2.341946470534379099e+00
2.418636310922574584e+00
2.418636310922574584e+00
2.339133884701071420e+00
2.339133884701071420e+00
2.339133884701071420e+00
2.267694204535050773e+00
2.267694204535050773e+00
2.254943815424054865e+00
2.254943815424054865e+00
2.197379558702353020e+00
2.197379558702353020e+00
2.192504409924619146e+00
2.192504409924619146e+00
2.229068025757622085e+00
2.229068025757622085e+00
2.249131138035218136e+00
2.249131138035218136e+00
2.290944914090395912e+00
2.290944914090395912e+00
2.333883724478896582e+00
2.333883724478896582e+00
2.333883724478896582e+00
2.374009949034089573e+00
2.374009949034089573e+00
2.422573931089205601e+00
2.422573931089205601e+00
2.366134708700827094e+00
2.366134708700827094e+00
2.361259559923093665e+00
2.361259559923093665e+00
2.409073519089327764e+00
2.409073519089327764e+00
2.305757866145817125e+00
2.305757866145817125e+00
2.254006286812952009e+00
2.254006286812952009e+00
2.226442945646534444e+00
2.226442945646534444e+00
2.226442945646534444e+00
2.197192052980132537e+00
2.197192052980132537e+00
2.213130039368877089e+00
2.213130039368877089e+00
2.238630817590868904e+00
2.238630817590868904e+00
2.285882259590441556e+00
2.285882259590441556e+00
2.347384136478774419e+00
2.347384136478774419e+00
2.354696859645375007e+00
2.354696859645375007e+00
2.371759880367442896e+00
2.371759880367442896e+00
2.389572923978392716e+00
2.389572923978392716e+00
2.334446241645558029e+00
2.334446241645558029e+00
2.334446241645558029e+00
2.371947386089663379e+00
2.371947386089663379e+00
2.380947660756248752e+00
2.380947660756248752e+00
2.270131778923917043e+00
2.270131778923917043e+00
2.231693105868709726e+00
2.231693105868709726e+00
2.185941709646900932e+00
2.185941709646900932e+00
2.164191045869319652e+00
2.164191045869319652e+00
2.206379833368938392e+00
2.206379833368938392e+00
2.234130680257575996e+00
2.234130680257575996e+00
2.234130680257575996e+00
2.293382488479262626e+00
2.293382488479262626e+00
2.344009033478804849e+00
2.344009033478804849e+00
2.341383953367717208e+00
2.341383953367717208e+00
2.400260750144962874e+00
2.400260750144962874e+00
2.416386242255928352e+00
2.416386242255928352e+00
2.376635029145176325e+00
2.376635029145176325e+00
2.420511368144779851e+00
2.420511368144779851e+00
2.360884548478652700e+00
2.360884548478652700e+00
2.284194708090456771e+00
2.284194708090456771e+00
2.284194708090456771e+00
2.263381572923978347e+00
2.263381572923978347e+00
2.199442121646778769e+00
2.199442121646778769e+00
2.185754203924680450e+00
2.185754203924680450e+00
2.234505691702016961e+00
2.234505691702016961e+00
2.267131687368389326e+00
2.267131687368389326e+00
2.303132786034730373e+00
2.303132786034730373e+00
2.331071138645588459e+00
2.331071138645588459e+00
2.335196264534440402e+00
2.335196264534440402e+00
2.335196264534440402e+00
2.385260292367321178e+00
2.385260292367321178e+00
2.364634662923062791e+00
2.364634662923062791e+00
2.339133884701071420e+00
2.339133884701071420e+00
2.394823084200567997e+00
2.394823084200567997e+00
2.292444959868159771e+00
2.292444959868159771e+00
2.234318185979796478e+00
2.234318185979796478e+00
2.220255256813257638e+00
2.220255256813257638e+00
2.183691640980254700e+00
2.183691640980254700e+00
2.224005371257667729e+00
2.224005371257667729e+00
2.224005371257667729e+00
2.274819421979430434e+00
2.274819421979430434e+00
2.320195806756797818e+00
2.320195806756797818e+00
2.359759514145329362e+00
2.359759514145329362e+00
2.367072237311929506e+00
2.367072237311929506e+00
2.357884456923124095e+00
2.357884456923124095e+00
2.359947019867549844e+00
2.359947019867549844e+00
2.308570451979125249e+00
2.308570451979125249e+00
2.308570451979125249e+00
2.356009399700918827e+00
2.356009399700918827e+00
2.401760795922727176e+00
2.401760795922727176e+00
2.288694845423749680e+00
2.288694845423749680e+00
2.249506149479659545e+00
2.249506149479659545e+00
2.202254707480086449e+00
2.202254707480086449e+00
2.175066377758110736e+00
2.175066377758110736e+00
2.212380016479995160e+00
2.212380016479995160e+00
2.243880977813043742e+00
2.243880977813043742e+00
2.243880977813043742e+00
2.302195257423627517e+00
2.302195257423627517e+00
2.374759971922971058e+00
2.374759971922971058e+00
2.374197454756310055e+00
2.374197454756310055e+00
2.404385876033814373e+00
2.404385876033814373e+00
2.401948301644947659e+00
2.401948301644947659e+00
2.349071687978759204e+00
2.349071687978759204e+00
2.383010223700674501e+00
2.383010223700674501e+00
2.357884456923124095e+00
2.357884456923124095e+00
2.284944730979339145e+00
2.284944730979339145e+00
2.284944730979339145e+00
2.252693746757408633e+00
2.252693746757408633e+00
2.187441755424664791e+00
2.187441755424664791e+00
2.167566148869289222e+00
2.167566148869289222e+00
2.214067567979979945e+00
2.214067567979979945e+00
2.220817773979919085e+00
2.220817773979919085e+00
2.271819330423901828e+00
2.271819330423901828e+00
2.320570818201239227e+00
2.320570818201239227e+00
2.337633838923307117e+00
2.337633838923307117e+00
2.337633838923307117e+00
2.387322855311746483e+00
2.387322855311746483e+00
2.403635853144932444e+00
2.403635853144932444e+00
2.376635029145176325e+00
2.376635029145176325e+00
2.421636402478102745e+00
2.421636402478102745e+00
2.333133701590014208e+00
2.333133701590014208e+00
2.260006469924008776e+00
2.260006469924008776e+00
2.248381115146336207e+00
2.248381115146336207e+00
2.199629627368999252e+00
2.199629627368999252e+00
2.199629627368999252e+00
2.191754387035737217e+00
2.191754387035737217e+00
2.222692831202123909e+00
2.222692831202123909e+00
2.268444227423932702e+00
2.268444227423932702e+00
2.341196447645496725e+00
2.341196447645496725e+00
2.368759788811914291e+00
2.368759788811914291e+00
2.372509903256325270e+00
2.372509903256325270e+00
2.403448347422711961e+00
2.403448347422711961e+00
2.351696768089846401e+00
2.351696768089846401e+00
2.351696768089846401e+00
2.347759147923215384e+00
2.347759147923215384e+00
2.392385509811700839e+00
2.392385509811700839e+00
2.276506973479415219e+00
2.276506973479415219e+00
2.251943723868526259e+00
2.251943723868526259e+00
2.244068483535264225e+00
2.244068483535264225e+00
2.200567155980101663e+00
2.200567155980101663e+00
2.214067567979979945e+00
2.214067567979979945e+00
2.237318277535325084e+00
2.237318277535325084e+00
2.237318277535325084e+00
2.268444227423932702e+00
2.268444227423932702e+00
2.305757866145817125e+00
2.305757866145817125e+00
2.324320932645649762e+00
2.324320932645649762e+00
2.360697042756431774e+00
2.360697042756431774e+00
2.389947935422834124e+00
2.389947935422834124e+00
2.342696493423261028e+00
2.342696493423261028e+00
2.370822351756340485e+00
2.370822351756340485e+00
2.374947477645191540e+00
2.374947477645191540e+00
2.374947477645191540e+00
2.269006744590594149e+00
2.269006744590594149e+00
2.246506057924130939e+00
2.246506057924130939e+00
2.199442121646778769e+00
2.199442121646778769e+00
2.168316171758171151e+00
2.168316171758171151e+00
2.213130039368877089e+00
2.213130039368877089e+00
2.243130954924161813e+00
2.243130954924161813e+00
2.284194708090456771e+00
2.284194708090456771e+00
2.316445692312387283e+00
2.316445692312387283e+00
2.329571092867824156e+00
2.329571092867824156e+00
2.329571092867824156e+00
2.399135715811639535e+00
2.399135715811639535e+00
2.415261207922605013e+00
2.415261207922605013e+00
2.356571916867580274e+00
2.356571916867580274e+00
2.417698782311472172e+00
2.417698782311472172e+00
2.376260017700735361e+00
2.376260017700735361e+00
2.296945097201452679e+00
2.296945097201452679e+00
2.273694387646107540e+00
2.273694387646107540e+00
2.215380108035523765e+00
2.215380108035523765e+00
2.215380108035523765e+00
2.201129673146763555e+00
2.201129673146763555e+00
2.236943266090884119e+00
2.236943266090884119e+00
2.251381206701864812e+00
2.251381206701864812e+00
2.289444868312631609e+00
2.289444868312631609e+00
2.351884273812066883e+00
2.351884273812066883e+00
2.362759605700857524e+00
2.362759605700857524e+00
2.385635303811762142e+00
2.385635303811762142e+00
2.371572374645222414e+00
2.371572374645222414e+00
2.371572374645222414e+00
2.351509262367625919e+00
2.351509262367625919e+00
2.418823816644795066e+00
2.418823816644795066e+00
2.320195806756797818e+00
2.320195806756797818e+00
2.246318552201910457e+00
2.246318552201910457e+00
2.225317911313211550e+00
2.225317911313211550e+00
2.175066377758110736e+00
2.175066377758110736e+00
2.177878963591417971e+00
2.177878963591417971e+00
2.225317911313211550e+00
2.225317911313211550e+00
2.225317911313211550e+00
2.257943906979583026e+00
2.257943906979583026e+00
2.318695760979033516e+00
2.318695760979033516e+00
2.340821436201055761e+00
2.340821436201055761e+00
2.348509170812097757e+00
2.348509170812097757e+00
2.389385418256172233e+00
2.389385418256172233e+00
2.366697225867488541e+00
2.366697225867488541e+00
2.381322672200689716e+00
2.381322672200689716e+00
2.418636310922574584e+00
2.418636310922574584e+00
2.294320017090365038e+00
2.294320017090365038e+00
2.294320017090365038e+00
2.258318918424023991e+00
2.258318918424023991e+00
2.240693380535294654e+00
2.240693380535294654e+00
2.194004455702383449e+00
2.194004455702383449e+00
2.206754844813379357e+00
2.206754844813379357e+00
2.248568620868556689e+00
2.248568620868556689e+00
2.291882442701498768e+00
2.291882442701498768e+00
2.344196539201025331e+00
2.344196539201025331e+00
2.344009033478804849e+00
2.344009033478804849e+00
2.344009033478804849e+00
2.361822077089755112e+00
