2.381322672200689716e+00
2.362384594256416559e+00
2.362384594256416559e+00
2.362384594256416559e+00
2.362384594256416559e+00
2.278382030701620931e+00
2.278382030701620931e+00
2.278382030701620931e+00
2.255131321146275347e+00
2.255131321146275347e+00
2.255131321146275347e+00
2.255131321146275347e+00
2.207879879146702695e+00
2.207879879146702695e+00
2.207879879146702695e+00
2.178066469313638454e+00
2.178066469313638454e+00
2.178066469313638454e+00
2.213505050813318054e+00
2.213505050813318054e+00
2.213505050813318054e+00
2.213505050813318054e+00
2.227192968535416817e+00
2.227192968535416817e+00
2.227192968535416817e+00
2.281194616534928166e+00
2.281194616534928166e+00
2.281194616534928166e+00
2.333133701590014208e+00
2.333133701590014208e+00
2.333133701590014208e+00
2.333133701590014208e+00
2.349071687978759204e+00
2.349071687978759204e+00
2.349071687978759204e+00
2.408135990478225352e+00
2.408135990478225352e+00
2.408135990478225352e+00
2.405885921811578676e+00
2.405885921811578676e+00
2.405885921811578676e+00
2.405885921811578676e+00
2.365197180089724238e+00
2.365197180089724238e+00
2.365197180089724238e+00
2.400073244422742391e+00
2.400073244422742391e+00
2.400073244422742391e+00
2.339133884701071420e+00
2.339133884701071420e+00
2.339133884701071420e+00
2.339133884701071420e+00
2.265819147312845505e+00
2.265819147312845505e+00
2.265819147312845505e+00
2.238818323313089387e+00
2.238818323313089387e+00
2.238818323313089387e+00
2.184254158146916147e+00
2.184254158146916147e+00
2.184254158146916147e+00
2.184254158146916147e+00
2.180879055146946577e+00
2.180879055146946577e+00
2.180879055146946577e+00
2.207317361980041248e+00
2.207317361980041248e+00
2.207317361980041248e+00
2.230943082979827352e+00
2.230943082979827352e+00
2.230943082979827352e+00
2.230943082979827352e+00
2.305757866145817125e+00
2.305757866145817125e+00
2.305757866145817125e+00
2.349634205145421095e+00
2.349634205145421095e+00
2.349634205145421095e+00
2.349634205145421095e+00
2.368197271645252844e+00
2.368197271645252844e+00
2.368197271645252844e+00
2.411698599200414961e+00
2.411698599200414961e+00
2.411698599200414961e+00
2.386760338145085036e+00
2.386760338145085036e+00
2.386760338145085036e+00
2.386760338145085036e+00
2.373072420422986717e+00
2.373072420422986717e+00
2.373072420422986717e+00
2.406823450422681532e+00
2.406823450422681532e+00
2.406823450422681532e+00
2.309882992034669069e+00
2.309882992034669069e+00
2.309882992034669069e+00
2.309882992034669069e+00
2.257381389812921579e+00
2.257381389812921579e+00
2.257381389812921579e+00
2.225692922757652514e+00
2.225692922757652514e+00
2.225692922757652514e+00
2.181816583758049433e+00
2.181816583758049433e+00
2.181816583758049433e+00
2.181816583758049433e+00
2.186504226813562823e+00
2.186504226813562823e+00
2.186504226813562823e+00
2.225692922757652514e+00
2.225692922757652514e+00
2.225692922757652514e+00
2.261319009979552597e+00
2.261319009979552597e+00
2.261319009979552597e+00
2.261319009979552597e+00
2.325258461256752618e+00
2.325258461256752618e+00
2.325258461256752618e+00
2.349821710867641578e+00
2.349821710867641578e+00
2.349821710867641578e+00
2.377760063478499664e+00
2.377760063478499664e+00
2.377760063478499664e+00
2.377760063478499664e+00
2.415261207922605013e+00
2.415261207922605013e+00
2.415261207922605013e+00
2.374759971922971058e+00
2.374759971922971058e+00
2.374759971922971058e+00
2.373259926145207199e+00
2.373259926145207199e+00
2.373259926145207199e+00
2.361447065645314147e+00
2.361447065645314147e+00
2.361447065645314147e+00
2.361447065645314147e+00
2.271631824701681346e+00
2.271631824701681346e+00
2.271631824701681346e+00
2.257756401257362544e+00
2.257756401257362544e+00
2.257756401257362544e+00
2.257756401257362544e+00
2.226442945646534444e+00
2.226442945646534444e+00
2.226442945646534444e+00
2.192691915646840073e+00
2.192691915646840073e+00
2.192691915646840073e+00
2.217630176702169997e+00
2.217630176702169997e+00
2.217630176702169997e+00
2.217630176702169997e+00
2.239005829035309869e+00
2.239005829035309869e+00
2.239005829035309869e+00
2.283444685201574842e+00
2.283444685201574842e+00
2.283444685201574842e+00
2.341196447645496725e+00
2.341196447645496725e+00
2.341196447645496725e+00
2.341196447645496725e+00
2.356759422589800756e+00
2.356759422589800756e+00
2.356759422589800756e+00
2.405698416089358194e+00
2.405698416089358194e+00
2.405698416089358194e+00
2.416573747978148834e+00
2.416573747978148834e+00
2.416573747978148834e+00
2.416573747978148834e+00
2.368197271645252844e+00
2.368197271645252844e+00
2.368197271645252844e+00
2.394260567033906106e+00
2.394260567033906106e+00
2.394260567033906106e+00
2.348884182256538722e+00
2.348884182256538722e+00
2.348884182256538722e+00
2.348884182256538722e+00
2.263944090090640238e+00
2.263944090090640238e+00
2.263944090090640238e+00
2.242380932035279439e+00
2.242380932035279439e+00
2.242380932035279439e+00
2.193816949980162967e+00
2.193816949980162967e+00
2.193816949980162967e+00
2.193816949980162967e+00
2.182754112369151844e+00
2.182754112369151844e+00
2.182754112369151844e+00
2.215755119479964730e+00
2.215755119479964730e+00
2.215755119479964730e+00
2.233755668813135031e+00
2.233755668813135031e+00
2.233755668813135031e+00
2.233755668813135031e+00
2.290757408368175430e+00
2.290757408368175430e+00
2.290757408368175430e+00
2.337446333201086635e+00
2.337446333201086635e+00
2.337446333201086635e+00
2.356759422589800756e+00
2.356759422589800756e+00
2.356759422589800756e+00
2.356759422589800756e+00
2.413198644978179264e+00
2.413198644978179264e+00
2.413198644978179264e+00
2.403823358867152926e+00
2.403823358867152926e+00
2.403823358867152926e+00
2.403823358867152926e+00
2.364447157200842309e+00
2.364447157200842309e+00
2.364447157200842309e+00
2.403823358867152926e+00
2.403823358867152926e+00
2.403823358867152926e+00
2.313445600756859122e+00
2.313445600756859122e+00
2.313445600756859122e+00
2.313445600756859122e+00
2.256068849757378203e+00
2.256068849757378203e+00
2.256068849757378203e+00
2.232818140202032620e+00
2.232818140202032620e+00
2.232818140202032620e+00
2.178066469313638454e+00
2.178066469313638454e+00
2.178066469313638454e+00
2.178066469313638454e+00
2.178441480758079862e+00
2.178441480758079862e+00
2.178441480758079862e+00
2.216317636646626177e+00
2.216317636646626177e+00
2.216317636646626177e+00
2.248193609424115724e+00
2.248193609424115724e+00
2.248193609424115724e+00
2.307257911923581428e+00
2.307257911923581428e+00
2.307257911923581428e+00
2.307257911923581428e+00
2.349821710867641578e+00
2.349821710867641578e+00
2.349821710867641578e+00
2.374759971922971058e+00
2.374759971922971058e+00
2.374759971922971058e+00
2.425199011200292798e+00
2.425199011200292798e+00
2.425199011200292798e+00
2.425199011200292798e+00
2.399510727256080500e+00
2.399510727256080500e+00
2.399510727256080500e+00
2.384885280922879769e+00
2.384885280922879769e+00
2.384885280922879769e+00
2.390510452589495571e+00
2.390510452589495571e+00
2.390510452589495571e+00
2.390510452589495571e+00
2.287757316812646824e+00
2.287757316812646824e+00
2.287757316812646824e+00
2.243693472090823260e+00
2.243693472090823260e+00
2.243693472090823260e+00
2.205254799035615054e+00
2.205254799035615054e+00
2.205254799035615054e+00
2.205254799035615054e+00
2.167191137424848257e+00
2.167191137424848257e+00
2.167191137424848257e+00
2.189504318369090985e+00
2.189504318369090985e+00
2.189504318369090985e+00
2.189504318369090985e+00
2.214067567979979945e+00
2.214067567979979945e+00
2.214067567979979945e+00
2.252506241035188150e+00
2.252506241035188150e+00
2.252506241035188150e+00
2.317383220923490139e+00
2.317383220923490139e+00
2.317383220923490139e+00
2.317383220923490139e+00
2.340258919034394314e+00
2.340258919034394314e+00
2.340258919034394314e+00
2.388072878200628413e+00
2.388072878200628413e+00
2.388072878200628413e+00
2.430074159978026671e+00
2.430074159978026671e+00
2.430074159978026671e+00
2.430074159978026671e+00
2.392573015533921321e+00
2.392573015533921321e+00
2.392573015533921321e+00
2.412073610644855925e+00
2.412073610644855925e+00
2.412073610644855925e+00
2.375509994811853431e+00
2.375509994811853431e+00
2.375509994811853431e+00
2.375509994811853431e+00
2.282132145146031021e+00
2.282132145146031021e+00
2.282132145146031021e+00
2.258693929868464956e+00
2.258693929868464956e+00
2.258693929868464956e+00
2.206379833368938392e+00
2.206379833368938392e+00
2.206379833368938392e+00
2.206379833368938392e+00
2.187066743980223826e+00
2.187066743980223826e+00
2.187066743980223826e+00
2.216880153813287624e+00
2.216880153813287624e+00
2.216880153813287624e+00
2.236380748924222672e+00
2.236380748924222672e+00
2.236380748924222672e+00
2.236380748924222672e+00
2.290382396923734465e+00
2.290382396923734465e+00
2.290382396923734465e+00
2.335571275978881367e+00
2.335571275978881367e+00
2.335571275978881367e+00
2.348134159367656792e+00
2.348134159367656792e+00
2.348134159367656792e+00
2.348134159367656792e+00
2.399698232978301426e+00
2.399698232978301426e+00
2.399698232978301426e+00
2.403823358867152926e+00
2.403823358867152926e+00
2.403823358867152926e+00
2.370822351756340485e+00
2.370822351756340485e+00
2.370822351756340485e+00
2.370822351756340485e+00
2.405323404644917229e+00
2.405323404644917229e+00
2.405323404644917229e+00
2.342508987701040546e+00
2.342508987701040546e+00
2.342508987701040546e+00
2.265069124423963132e+00
2.265069124423963132e+00
2.265069124423963132e+00
2.265069124423963132e+00
2.243505966368602778e+00
2.243505966368602778e+00
2.243505966368602778e+00
2.189879329813531950e+00
2.189879329813531950e+00
2.189879329813531950e+00
2.173378826258125951e+00
2.173378826258125951e+00
2.173378826258125951e+00
2.173378826258125951e+00
2.205817316202276945e+00
2.205817316202276945e+00
2.205817316202276945e+00
2.231693105868709726e+00
2.231693105868709726e+00
2.231693105868709726e+00
2.295820062868129341e+00
2.295820062868129341e+00
2.295820062868129341e+00
2.295820062868129341e+00
2.337821344645527599e+00
2.337821344645527599e+00
2.337821344645527599e+00
2.357696951200903612e+00
2.357696951200903612e+00
2.357696951200903612e+00
2.357696951200903612e+00
2.403635853144932444e+00
2.403635853144932444e+00
2.403635853144932444e+00
2.387885372478407930e+00
2.387885372478407930e+00
2.387885372478407930e+00
2.368384777367473326e+00
2.368384777367473326e+00
2.368384777367473326e+00
2.398760704367198571e+00
2.398760704367198571e+00
2.398760704367198571e+00
2.398760704367198571e+00
2.302945280312509890e+00
2.302945280312509890e+00
2.302945280312509890e+00
2.248193609424115724e+00
2.248193609424115724e+00
2.248193609424115724e+00
2.221380291146580532e+00
2.221380291146580532e+00
2.221380291146580532e+00
2.221380291146580532e+00
2.178253975035859380e+00
2.178253975035859380e+00
2.178253975035859380e+00
2.190441846980193397e+00
2.190441846980193397e+00
2.190441846980193397e+00
2.222880336924344391e+00
2.222880336924344391e+00
2.222880336924344391e+00
2.222880336924344391e+00
2.256631366924039650e+00
2.256631366924039650e+00
2.256631366924039650e+00
2.324883449812311209e+00
2.324883449812311209e+00
2.324883449812311209e+00
2.324883449812311209e+00
2.347946653645436310e+00
2.347946653645436310e+00
2.347946653645436310e+00
2.378135074922940628e+00
2.378135074922940628e+00
2.378135074922940628e+00
2.419948850978118404e+00
2.419948850978118404e+00
2.419948850978118404e+00
2.419948850978118404e+00
2.387135349589526001e+00
2.387135349589526001e+00
2.387135349589526001e+00
2.385260292367321178e+00
2.385260292367321178e+00
2.385260292367321178e+00
2.379822626422925413e+00
2.379822626422925413e+00
2.379822626422925413e+00
2.379822626422925413e+00
2.281944639423810539e+00
2.281944639423810539e+00
2.281944639423810539e+00
2.248943632312997654e+00
2.248943632312997654e+00
2.248943632312997654e+00
2.204692281868953607e+00
2.204692281868953607e+00
2.204692281868953607e+00
2.204692281868953607e+00
2.171878780480361648e+00
2.171878780480361648e+00
2.171878780480361648e+00
2.198317087313455875e+00
2.198317087313455875e+00
2.198317087313455875e+00
2.223067842646564873e+00
2.223067842646564873e+00
2.223067842646564873e+00
2.223067842646564873e+00
2.273881893368328022e+00
2.273881893368328022e+00
2.273881893368328022e+00
2.334821253089998994e+00
2.334821253089998994e+00
2.334821253089998994e+00
2.349821710867641578e+00
2.349821710867641578e+00
2.349821710867641578e+00
2.349821710867641578e+00
2.399135715811639535e+00
2.399135715811639535e+00
2.399135715811639535e+00
2.418823816644795066e+00
2.418823816644795066e+00
2.418823816644795066e+00
2.373072420422986717e+00
2.373072420422986717e+00
2.373072420422986717e+00
2.373072420422986717e+00
2.401948301644947659e+00
2.401948301644947659e+00
2.401948301644947659e+00
2.349634205145421095e+00
2.349634205145421095e+00
2.349634205145421095e+00
2.268069215979491737e+00
2.268069215979491737e+00
2.268069215979491737e+00
2.268069215979491737e+00
2.242568437757499922e+00
2.242568437757499922e+00
2.242568437757499922e+00
2.195316995757927270e+00
2.195316995757927270e+00
2.195316995757927270e+00
2.195316995757927270e+00
2.181441572313608468e+00
2.181441572313608468e+00
2.181441572313608468e+00
2.215192602313302839e+00
2.215192602313302839e+00
2.215192602313302839e+00
2.230943082979827352e+00
2.230943082979827352e+00
2.230943082979827352e+00
2.290569902645954947e+00
2.290569902645954947e+00
2.290569902645954947e+00
2.290569902645954947e+00
2.335946287423322332e+00
2.335946287423322332e+00
2.335946287423322332e+00
2.353384319589831186e+00
2.353384319589831186e+00
2.353384319589831186e+00
2.411698599200414961e+00
2.411698599200414961e+00
2.411698599200414961e+00
2.411698599200414961e+00
2.402135807367168141e+00
2.402135807367168141e+00
2.402135807367168141e+00
2.368759788811914291e+00
2.368759788811914291e+00
2.368759788811914291e+00
2.401760795922727176e+00
2.401760795922727176e+00
2.401760795922727176e+00
2.401760795922727176e+00
2.316820703756828248e+00
2.316820703756828248e+00
2.316820703756828248e+00
2.255506332590716312e+00
2.255506332590716312e+00
2.255506332590716312e+00
2.236568254646443155e+00
2.236568254646443155e+00
2.236568254646443155e+00
2.236568254646443155e+00
2.186504226813562823e+00
2.186504226813562823e+00
2.186504226813562823e+00
2.182566606646931362e+00
2.182566606646931362e+00
2.182566606646931362e+00
2.212942533646656607e+00
2.212942533646656607e+00
2.212942533646656607e+00
2.212942533646656607e+00
2.239943357646412725e+00
2.239943357646412725e+00
2.239943357646412725e+00
2.308195440534684284e+00
2.308195440534684284e+00
2.308195440534684284e+00
2.340633930478835278e+00
2.340633930478835278e+00
2.340633930478835278e+00
2.340633930478835278e+00
2.367447248756370914e+00
2.367447248756370914e+00
2.367447248756370914e+00
2.416948759422589799e+00
2.416948759422589799e+00
2.416948759422589799e+00
2.416948759422589799e+00
2.382635212256233537e+00
2.382635212256233537e+00
2.382635212256233537e+00
2.369884823145237629e+00
2.369884823145237629e+00
2.369884823145237629e+00
2.390322946867275089e+00
2.390322946867275089e+00
2.390322946867275089e+00
2.390322946867275089e+00
2.288694845423749680e+00
2.288694845423749680e+00
2.288694845423749680e+00
2.241068391979735619e+00
2.241068391979735619e+00
2.241068391979735619e+00
2.206379833368938392e+00
2.206379833368938392e+00
2.206379833368938392e+00
2.206379833368938392e+00
2.172628803369243577e+00
2.172628803369243577e+00
2.172628803369243577e+00
2.198317087313455875e+00
2.198317087313455875e+00
2.198317087313455875e+00
2.219505233924375265e+00
2.219505233924375265e+00
2.219505233924375265e+00
2.219505233924375265e+00
2.262256538590655452e+00
2.262256538590655452e+00
2.262256538590655452e+00
2.331071138645588459e+00
2.331071138645588459e+00
2.331071138645588459e+00
2.351696768089846401e+00
2.351696768089846401e+00
2.351696768089846401e+00
2.351696768089846401e+00
2.389385418256172233e+00
2.389385418256172233e+00
2.389385418256172233e+00
2.418823816644795066e+00
2.418823816644795066e+00
2.418823816644795066e+00
2.374009949034089573e+00
2.374009949034089573e+00
2.374009949034089573e+00
2.374009949034089573e+00
2.389947935422834124e+00
2.389947935422834124e+00
2.389947935422834124e+00
2.369509811700796664e+00
2.369509811700796664e+00
2.369509811700796664e+00
2.284007202368236289e+00
2.284007202368236289e+00
2.284007202368236289e+00
2.284007202368236289e+00
2.263381572923978347e+00
2.263381572923978347e+00
2.263381572923978347e+00
2.206567339091158875e+00
2.206567339091158875e+00
2.206567339091158875e+00
2.178441480758079862e+00
2.178441480758079862e+00
2.178441480758079862e+00
2.178441480758079862e+00
2.212755027924436124e+00
2.212755027924436124e+00
2.212755027924436124e+00
2.223630359813226764e+00
2.223630359813226764e+00
2.223630359813226764e+00
2.223630359813226764e+00
2.272194341868343237e+00
2.272194341868343237e+00
2.272194341868343237e+00
2.327696035645618888e+00
2.327696035645618888e+00
2.327696035645618888e+00
2.341008941923276243e+00
2.341008941923276243e+00
2.341008941923276243e+00
2.341008941923276243e+00
2.407010956144902014e+00
2.407010956144902014e+00
2.407010956144902014e+00
2.418636310922574584e+00
2.418636310922574584e+00
2.418636310922574584e+00
2.378322580645161111e+00
2.378322580645161111e+00
2.378322580645161111e+00
2.409448530533769173e+00
2.409448530533769173e+00
2.409448530533769173e+00
2.409448530533769173e+00
2.343821527756584366e+00
2.343821527756584366e+00
2.343821527756584366e+00
2.269569261757255596e+00
2.269569261757255596e+00
2.269569261757255596e+00
2.240693380535294654e+00
2.240693380535294654e+00
2.240693380535294654e+00
2.186129215369121415e+00
2.186129215369121415e+00
2.186129215369121415e+00
2.186129215369121415e+00
2.175628894924771739e+00
2.175628894924771739e+00
2.175628894924771739e+00
2.211067476424451339e+00
2.211067476424451339e+00
2.211067476424451339e+00
2.211067476424451339e+00
2.221755302591021497e+00
2.221755302591021497e+00
2.221755302591021497e+00
2.281194616534928166e+00
2.281194616534928166e+00
2.281194616534928166e+00
2.328446058534500818e+00
2.328446058534500818e+00
2.328446058534500818e+00
2.328446058534500818e+00
2.364072145756401344e+00
2.364072145756401344e+00
2.364072145756401344e+00
2.422761436811426083e+00
2.422761436811426083e+00
2.422761436811426083e+00
2.405510910367137711e+00
2.405510910367137711e+00
2.405510910367137711e+00
2.405510910367137711e+00
2.381510177922910199e+00
2.381510177922910199e+00
2.381510177922910199e+00
2.408698507644886799e+00
2.408698507644886799e+00
2.408698507644886799e+00
2.311383037812433372e+00
2.311383037812433372e+00
2.311383037812433372e+00
2.311383037812433372e+00
2.256443861201819168e+00
2.256443861201819168e+00
2.256443861201819168e+00
2.234130680257575996e+00
2.234130680257575996e+00
2.234130680257575996e+00
2.188191778313547164e+00
2.188191778313547164e+00
2.188191778313547164e+00
2.188191778313547164e+00
2.197379558702353020e+00
2.197379558702353020e+00
2.197379558702353020e+00
2.227005462813196335e+00
2.227005462813196335e+00
2.227005462813196335e+00
2.262444044312875935e+00
2.262444044312875935e+00
2.262444044312875935e+00
2.262444044312875935e+00
2.325445966978973100e+00
2.325445966978973100e+00
2.325445966978973100e+00
2.349821710867641578e+00
2.349821710867641578e+00
2.349821710867641578e+00
2.379447614978484449e+00
2.379447614978484449e+00
2.379447614978484449e+00
2.379447614978484449e+00
2.419573839533677440e+00
2.419573839533677440e+00
2.419573839533677440e+00
2.378510086367381593e+00
2.378510086367381593e+00
2.378510086367381593e+00
2.377760063478499664e+00
2.377760063478499664e+00
2.377760063478499664e+00
2.377760063478499664e+00
2.374572466200750576e+00
2.374572466200750576e+00
2.374572466200750576e+00
2.275194433423871843e+00
2.275194433423871843e+00
2.275194433423871843e+00
2.245756035035248566e+00
2.245756035035248566e+00
2.245756035035248566e+00
2.245756035035248566e+00
2.206754844813379357e+00
2.206754844813379357e+00
2.206754844813379357e+00
2.179566515091402756e+00
2.179566515091402756e+00
2.179566515091402756e+00
2.214442579424420909e+00
2.214442579424420909e+00
2.214442579424420909e+00
2.214442579424420909e+00
2.235443220313119816e+00
2.235443220313119816e+00
2.235443220313119816e+00
2.270131778923917043e+00
2.270131778923917043e+00
2.270131778923917043e+00
2.334258735923337547e+00
2.334258735923337547e+00
2.334258735923337547e+00
2.349071687978759204e+00
2.349071687978759204e+00
2.349071687978759204e+00
2.349071687978759204e+00
2.404760887478255782e+00
2.404760887478255782e+00
2.404760887478255782e+00
2.419948850978118404e+00
2.419948850978118404e+00
2.419948850978118404e+00
2.370634846034120002e+00
2.370634846034120002e+00
2.370634846034120002e+00
2.370634846034120002e+00
2.393698049867244659e+00
2.393698049867244659e+00
2.393698049867244659e+00
2.348696676534318240e+00
2.348696676534318240e+00
2.348696676534318240e+00
2.264506607257301685e+00
2.264506607257301685e+00
2.264506607257301685e+00
2.264506607257301685e+00
2.244631000701926116e+00
2.244631000701926116e+00
2.244631000701926116e+00
2.193441938535722002e+00
2.193441938535722002e+00
2.193441938535722002e+00
2.185941709646900932e+00
2.185941709646900932e+00
2.185941709646900932e+00
2.185941709646900932e+00
2.218005188146610962e+00
2.218005188146610962e+00
2.218005188146610962e+00
2.230005554368724940e+00
2.230005554368724940e+00
2.230005554368724940e+00
2.287944822534867306e+00
2.287944822534867306e+00
2.287944822534867306e+00
2.287944822534867306e+00
2.331258644367808941e+00
2.331258644367808941e+00
2.331258644367808941e+00
2.342883999145481511e+00
2.342883999145481511e+00
2.342883999145481511e+00
2.397823175756096159e+00
2.397823175756096159e+00
2.397823175756096159e+00
2.397823175756096159e+00
2.394635578478347071e+00
2.394635578478347071e+00
2.394635578478347071e+00
2.367447248756370914e+00
2.367447248756370914e+00
2.367447248756370914e+00
2.413198644978179264e+00
2.413198644978179264e+00
2.413198644978179264e+00
2.413198644978179264e+00
2.339696401867732423e+00
2.339696401867732423e+00
2.339696401867732423e+00
2.269756767479476078e+00
2.269756767479476078e+00
2.269756767479476078e+00
2.238255806146427940e+00
2.238255806146427940e+00
2.238255806146427940e+00
2.238255806146427940e+00
2.189691824091311467e+00
2.189691824091311467e+00
2.189691824091311467e+00
2.186504226813562823e+00
2.186504226813562823e+00
2.186504226813562823e+00
2.221380291146580532e+00
2.221380291146580532e+00
2.221380291146580532e+00
2.221380291146580532e+00
2.248193609424115724e+00
2.248193609424115724e+00
2.248193609424115724e+00
2.316820703756828248e+00
2.316820703756828248e+00
2.316820703756828248e+00
2.347571642200994901e+00
2.347571642200994901e+00
2.347571642200994901e+00
2.347571642200994901e+00
2.365947202978606612e+00
2.365947202978606612e+00
2.365947202978606612e+00
2.413761162144840711e+00
2.413761162144840711e+00
2.413761162144840711e+00
2.413761162144840711e+00
2.388260383922848895e+00
2.388260383922848895e+00
2.388260383922848895e+00
2.374947477645191540e+00
2.374947477645191540e+00
2.374947477645191540e+00
2.390322946867275089e+00
2.390322946867275089e+00
2.390322946867275089e+00
2.390322946867275089e+00
2.291319925534837321e+00
2.291319925534837321e+00
2.291319925534837321e+00
2.243130954924161813e+00
2.243130954924161813e+00
2.243130954924161813e+00
2.214442579424420909e+00
2.214442579424420909e+00
2.214442579424420909e+00
2.214442579424420909e+00
2.173566331980346433e+00
2.173566331980346433e+00
2.173566331980346433e+00
2.193816949980162967e+00
2.193816949980162967e+00
2.193816949980162967e+00
2.214442579424420909e+00
2.214442579424420909e+00
2.214442579424420909e+00
2.214442579424420909e+00
2.255506332590716312e+00
2.255506332590716312e+00
2.255506332590716312e+00
2.326758507034516477e+00
2.326758507034516477e+00
2.326758507034516477e+00
2.345509079256569152e+00
2.345509079256569152e+00
2.345509079256569152e+00
2.345509079256569152e+00
2.388822901089510786e+00
2.388822901089510786e+00
2.388822901089510786e+00
2.417698782311472172e+00
2.417698782311472172e+00
2.417698782311472172e+00
2.376635029145176325e+00
2.376635029145176325e+00
2.376635029145176325e+00
2.376635029145176325e+00
2.388822901089510786e+00
2.388822901089510786e+00
2.388822901089510786e+00
2.370259834589678594e+00
2.370259834589678594e+00
2.370259834589678594e+00
2.267694204535050773e+00
2.267694204535050773e+00
2.267694204535050773e+00
2.267694204535050773e+00
2.242943449201941331e+00
2.242943449201941331e+00
2.242943449201941331e+00
2.198692098757896396e+00
2.198692098757896396e+00
2.198692098757896396e+00
2.175066377758110736e+00
2.175066377758110736e+00
2.175066377758110736e+00
2.175066377758110736e+00
2.209942442091128445e+00
2.209942442091128445e+00
2.209942442091128445e+00
2.223067842646564873e+00
2.223067842646564873e+00
2.223067842646564873e+00
2.272194341868343237e+00
2.272194341868343237e+00
2.272194341868343237e+00
2.272194341868343237e+00
2.332008667256691314e+00
2.332008667256691314e+00
2.332008667256691314e+00
2.349071687978759204e+00
2.349071687978759204e+00
2.349071687978759204e+00
2.396135624256111374e+00
2.396135624256111374e+00
2.396135624256111374e+00
2.396135624256111374e+00
2.406260933256020085e+00
2.406260933256020085e+00
2.406260933256020085e+00
2.369322305978576182e+00
2.369322305978576182e+00
2.369322305978576182e+00
2.411136082033753514e+00
2.411136082033753514e+00
2.411136082033753514e+00
2.411136082033753514e+00
2.352071779534287366e+00
2.352071779534287366e+00
2.352071779534287366e+00
2.271819330423901828e+00
2.271819330423901828e+00
2.271819330423901828e+00
2.240505874813074172e+00
2.240505874813074172e+00
2.240505874813074172e+00
2.240505874813074172e+00
2.183879146702475182e+00
2.183879146702475182e+00
2.183879146702475182e+00
2.176941434980315559e+00
2.176941434980315559e+00
2.176941434980315559e+00
2.176941434980315559e+00
2.221005279702139568e+00
2.221005279702139568e+00
2.221005279702139568e+00
2.237693288979766049e+00
2.237693288979766049e+00
2.237693288979766049e+00
2.298070131534776017e+00
2.298070131534776017e+00
2.298070131534776017e+00
2.298070131534776017e+00
2.339133884701071420e+00
2.339133884701071420e+00
2.339133884701071420e+00
2.360509537034211291e+00
2.360509537034211291e+00
2.360509537034211291e+00
2.419011322367015993e+00
2.419011322367015993e+00
2.419011322367015993e+00
2.419011322367015993e+00
2.410761070589312105e+00
2.410761070589312105e+00
2.410761070589312105e+00
2.376260017700735361e+00
2.376260017700735361e+00
2.376260017700735361e+00
2.400260750144962874e+00
2.400260750144962874e+00
2.400260750144962874e+00
2.400260750144962874e+00
2.309320474868007622e+00
2.309320474868007622e+00
2.309320474868007622e+00
2.251006195257423848e+00
2.251006195257423848e+00
2.251006195257423848e+00
2.226067934202093479e+00
2.226067934202093479e+00
2.226067934202093479e+00
2.226067934202093479e+00
2.180129032258064647e+00
2.180129032258064647e+00
2.180129032258064647e+00
2.196442030091250608e+00
2.196442030091250608e+00
2.196442030091250608e+00
2.225692922757652514e+00
2.225692922757652514e+00
2.225692922757652514e+00
2.225692922757652514e+00
2.257943906979583026e+00
2.257943906979583026e+00
2.257943906979583026e+00
2.315883175145725836e+00
2.315883175145725836e+00
2.315883175145725836e+00
2.347571642200994901e+00
2.347571642200994901e+00
2.347571642200994901e+00
2.347571642200994901e+00
2.380947660756248752e+00
2.380947660756248752e+00
2.380947660756248752e+00
2.423136448255867048e+00
2.423136448255867048e+00
2.423136448255867048e+00
2.382260200811792572e+00
2.382260200811792572e+00
2.382260200811792572e+00
2.382260200811792572e+00
2.371009857478560967e+00
2.371009857478560967e+00
2.371009857478560967e+00
2.371384868923001932e+00
2.371384868923001932e+00
2.371384868923001932e+00
2.272756859035004684e+00
2.272756859035004684e+00
2.272756859035004684e+00
2.272756859035004684e+00
2.238630817590868904e+00
2.238630817590868904e+00
2.238630817590868904e+00
2.202629718924527857e+00
2.202629718924527857e+00
2.202629718924527857e+00
2.167003631702627775e+00
2.167003631702627775e+00
2.167003631702627775e+00
2.167003631702627775e+00
2.195879512924588717e+00
2.195879512924588717e+00
2.195879512924588717e+00
2.223442854091006282e+00
2.223442854091006282e+00
2.223442854091006282e+00
2.279882076479384789e+00
2.279882076479384789e+00
2.279882076479384789e+00
2.279882076479384789e+00
2.347196630756553937e+00
2.347196630756553937e+00
2.347196630756553937e+00
2.352821802423169739e+00
2.352821802423169739e+00
2.352821802423169739e+00
2.401010773033844803e+00
2.401010773033844803e+00
2.401010773033844803e+00
2.401010773033844803e+00
2.418261299478133619e+00
2.418261299478133619e+00
2.418261299478133619e+00
2.371197363200781449e+00
2.371197363200781449e+00
2.371197363200781449e+00
2.392385509811700839e+00
2.392385509811700839e+00
2.392385509811700839e+00
2.392385509811700839e+00
2.352071779534287366e+00
2.352071779534287366e+00
2.352071779534287366e+00
2.265256630146183614e+00
2.265256630146183614e+00
2.265256630146183614e+00
2.239193334757530351e+00
2.239193334757530351e+00
2.239193334757530351e+00
2.239193334757530351e+00
2.191379375591296252e+00
2.191379375591296252e+00
2.191379375591296252e+00
2.173003814813684542e+00
2.173003814813684542e+00
2.173003814813684542e+00
2.173003814813684542e+00
2.213130039368877089e+00
2.213130039368877089e+00
2.213130039368877089e+00
2.228880520035401602e+00
2.228880520035401602e+00
2.228880520035401602e+00
2.286257271034882521e+00
2.286257271034882521e+00
2.286257271034882521e+00
2.339696401867732423e+00
2.339696401867732423e+00
2.339696401867732423e+00
2.339696401867732423e+00
2.368009765923032361e+00
2.368009765923032361e+00
2.368009765923032361e+00
2.420698873867000778e+00
2.420698873867000778e+00
2.420698873867000778e+00
2.420698873867000778e+00
2.417323770867030763e+00
2.417323770867030763e+00
2.417323770867030763e+00
2.372884914700766235e+00
2.372884914700766235e+00
2.372884914700766235e+00
2.405698416089358194e+00
2.405698416089358194e+00
2.405698416089358194e+00
2.405698416089358194e+00
2.326758507034516477e+00
2.326758507034516477e+00
2.326758507034516477e+00
2.263006561479537382e+00
2.263006561479537382e+00
2.263006561479537382e+00
2.241443403424177028e+00
2.241443403424177028e+00
2.241443403424177028e+00
2.241443403424177028e+00
2.188191778313547164e+00
2.188191778313547164e+00
2.188191778313547164e+00
2.186129215369121415e+00
2.186129215369121415e+00
2.186129215369121415e+00
2.214067567979979945e+00
2.214067567979979945e+00
2.214067567979979945e+00
2.214067567979979945e+00
2.239380840479750834e+00
2.239380840479750834e+00
2.239380840479750834e+00
2.303132786034730373e+00
2.303132786034730373e+00
2.303132786034730373e+00
2.337633838923307117e+00
2.337633838923307117e+00
2.337633838923307117e+00
2.337633838923307117e+00
2.359572008423108880e+00
2.359572008423108880e+00
2.359572008423108880e+00
2.407760979033784388e+00
2.407760979033784388e+00
2.407760979033784388e+00
2.381135166478469234e+00
2.381135166478469234e+00
2.381135166478469234e+00
2.381135166478469234e+00
2.364447157200842309e+00
2.364447157200842309e+00
2.364447157200842309e+00
2.389197912533951751e+00
2.389197912533951751e+00
2.389197912533951751e+00
2.305195348979155678e+00
2.305195348979155678e+00
2.305195348979155678e+00
2.305195348979155678e+00
2.258318918424023991e+00
2.258318918424023991e+00
2.258318918424023991e+00
2.220442762535478121e+00
2.220442762535478121e+00
2.220442762535478121e+00
2.171878780480361648e+00
2.171878780480361648e+00
2.171878780480361648e+00
2.171878780480361648e+00
2.188566789757988129e+00
2.188566789757988129e+00
2.188566789757988129e+00
2.216692648091067142e+00
2.216692648091067142e+00
2.216692648091067142e+00
2.245756035035248566e+00
2.245756035035248566e+00
2.245756035035248566e+00
2.245756035035248566e+00
2.313258095034638639e+00
2.313258095034638639e+00
2.313258095034638639e+00
2.338196356089969008e+00
2.338196356089969008e+00
2.338196356089969008e+00
2.386385326700643628e+00
2.386385326700643628e+00
2.386385326700643628e+00
2.386385326700643628e+00
2.432324228644673347e+00
2.432324228644673347e+00
2.432324228644673347e+00
2.397448164311655194e+00
2.397448164311655194e+00
2.397448164311655194e+00
2.406073427533799602e+00
2.406073427533799602e+00
2.406073427533799602e+00
2.406073427533799602e+00
2.387697866756187448e+00
2.387697866756187448e+00
2.387697866756187448e+00
2.283257179479354360e+00
2.283257179479354360e+00
2.283257179479354360e+00
2.257381389812921579e+00
2.257381389812921579e+00
2.257381389812921579e+00
2.257381389812921579e+00
2.206004821924497428e+00
2.206004821924497428e+00
2.206004821924497428e+00
2.172816309091464060e+00
2.172816309091464060e+00
2.172816309091464060e+00
2.207129856257820322e+00
2.207129856257820322e+00
2.207129856257820322e+00
2.207129856257820322e+00
2.213880062257759462e+00
2.213880062257759462e+00
2.213880062257759462e+00
2.264506607257301685e+00
2.264506607257301685e+00
2.264506607257301685e+00
2.264506607257301685e+00
2.322445875423444495e+00
2.322445875423444495e+00
2.322445875423444495e+00
2.343071504867702437e+00
2.343071504867702437e+00
2.343071504867702437e+00
2.400073244422742391e+00
2.400073244422742391e+00
2.400073244422742391e+00
2.400073244422742391e+00
2.407198461867122496e+00
2.407198461867122496e+00
2.407198461867122496e+00
2.369322305978576182e+00
2.369322305978576182e+00
2.369322305978576182e+00
2.406073427533799602e+00
2.406073427533799602e+00
2.406073427533799602e+00
2.406073427533799602e+00
2.349821710867641578e+00
2.349821710867641578e+00
2.349821710867641578e+00
2.278382030701620931e+00
2.278382030701620931e+00
2.278382030701620931e+00
2.255881344035157721e+00
2.255881344035157721e+00
2.255881344035157721e+00
2.255881344035157721e+00
2.201129673146763555e+00
2.201129673146763555e+00
2.201129673146763555e+00
2.186879238258003344e+00
2.186879238258003344e+00
2.186879238258003344e+00
2.221192785424360050e+00
2.221192785424360050e+00
2.221192785424360050e+00
2.221192785424360050e+00
2.239005829035309869e+00
2.239005829035309869e+00
2.239005829035309869e+00
2.296757591479232197e+00
2.296757591479232197e+00
2.296757591479232197e+00
2.341008941923276243e+00
2.341008941923276243e+00
2.341008941923276243e+00
2.341008941923276243e+00
2.350196722312082542e+00
2.350196722312082542e+00
2.350196722312082542e+00
2.403260841700491479e+00
2.403260841700491479e+00
2.403260841700491479e+00
2.389760429700613198e+00
2.389760429700613198e+00
2.389760429700613198e+00
2.389760429700613198e+00
2.364634662923062791e+00
2.364634662923062791e+00
2.364634662923062791e+00
2.397635670033875677e+00
2.397635670033875677e+00
2.397635670033875677e+00
2.305570360423596643e+00
2.305570360423596643e+00
2.305570360423596643e+00
2.305570360423596643e+00
2.251568712424085295e+00
2.251568712424085295e+00
2.251568712424085295e+00
2.227755485702078264e+00
2.227755485702078264e+00
2.227755485702078264e+00
2.181441572313608468e+00
2.181441572313608468e+00
2.181441572313608468e+00
2.181441572313608468e+00
2.191566881313516735e+00
2.191566881313516735e+00
2.191566881313516735e+00
2.224005371257667729e+00
2.224005371257667729e+00
2.224005371257667729e+00
2.251006195257423848e+00
2.251006195257423848e+00
2.251006195257423848e+00
2.251006195257423848e+00
2.313070589312418157e+00
2.313070589312418157e+00
2.313070589312418157e+00
2.337633838923307117e+00
2.337633838923307117e+00
2.337633838923307117e+00
2.379260109256263966e+00
2.379260109256263966e+00
2.379260109256263966e+00
2.379260109256263966e+00
2.430261665700247153e+00
2.430261665700247153e+00
2.430261665700247153e+00
2.401573290200506694e+00
2.401573290200506694e+00
2.401573290200506694e+00
2.391447981200597983e+00
2.391447981200597983e+00
2.391447981200597983e+00
2.391447981200597983e+00
2.386947843867305519e+00
2.386947843867305519e+00
2.386947843867305519e+00
2.283632190923795324e+00
2.283632190923795324e+00
2.283632190923795324e+00
2.283632190923795324e+00
2.248943632312997654e+00
2.248943632312997654e+00
2.248943632312997654e+00
2.210504959257789892e+00
2.210504959257789892e+00
2.210504959257789892e+00
2.177691457869197489e+00
2.177691457869197489e+00
2.177691457869197489e+00
2.177691457869197489e+00
2.204129764702292160e+00
2.204129764702292160e+00
2.204129764702292160e+00
2.213880062257759462e+00
2.213880062257759462e+00
2.213880062257759462e+00
2.257006378368480615e+00
2.257006378368480615e+00
2.257006378368480615e+00
2.320383312479018745e+00
2.320383312479018745e+00
2.320383312479018745e+00
2.320383312479018745e+00
2.345134067812128187e+00
2.345134067812128187e+00
2.345134067812128187e+00
2.393698049867244659e+00
2.393698049867244659e+00
2.393698049867244659e+00
2.393698049867244659e+00
2.416386242255928352e+00
2.416386242255928352e+00
2.416386242255928352e+00
2.375697500534073914e+00
2.375697500534073914e+00
2.375697500534073914e+00
2.398760704367198571e+00
2.398760704367198571e+00
2.398760704367198571e+00
2.398760704367198571e+00
2.368759788811914291e+00
2.368759788811914291e+00
2.368759788811914291e+00
2.275944456312753772e+00
2.275944456312753772e+00
2.275944456312753772e+00
2.247818597979674760e+00
2.247818597979674760e+00
2.247818597979674760e+00
2.247818597979674760e+00
2.199442121646778769e+00
2.199442121646778769e+00
2.199442121646778769e+00
2.174128849147007880e+00
2.174128849147007880e+00
2.174128849147007880e+00
2.211254982146671821e+00
2.211254982146671821e+00
2.211254982146671821e+00
2.211254982146671821e+00
2.218942716757713818e+00
2.218942716757713818e+00
2.218942716757713818e+00
2.276694479201635701e+00
2.276694479201635701e+00
2.276694479201635701e+00
2.332946195867793726e+00
2.332946195867793726e+00
2.332946195867793726e+00
2.332946195867793726e+00
2.356196905423139309e+00
2.356196905423139309e+00
2.356196905423139309e+00
2.408698507644886799e+00
2.408698507644886799e+00
2.408698507644886799e+00
2.416386242255928352e+00
2.416386242255928352e+00
2.416386242255928352e+00
2.416386242255928352e+00
2.378510086367381593e+00
2.378510086367381593e+00
2.378510086367381593e+00
2.405885921811578676e+00
2.405885921811578676e+00
2.405885921811578676e+00
2.330508621478927012e+00
2.330508621478927012e+00
2.330508621478927012e+00
2.330508621478927012e+00
2.255693838312936794e+00
2.255693838312936794e+00
2.255693838312936794e+00
2.234505691702016961e+00
2.234505691702016961e+00
2.234505691702016961e+00
2.180504043702505612e+00
2.180504043702505612e+00
2.180504043702505612e+00
2.180504043702505612e+00
2.187254249702444309e+00
2.187254249702444309e+00
2.187254249702444309e+00
2.216880153813287624e+00
2.216880153813287624e+00
2.216880153813287624e+00
2.237318277535325084e+00
2.237318277535325084e+00
2.237318277535325084e+00
2.237318277535325084e+00
2.302757774590289408e+00
2.302757774590289408e+00
2.302757774590289408e+00
2.341008941923276243e+00
2.341008941923276243e+00
2.341008941923276243e+00
2.367072237311929506e+00
2.367072237311929506e+00
2.367072237311929506e+00
2.367072237311929506e+00
2.413011139255958781e+00
2.413011139255958781e+00
2.413011139255958781e+00
2.386760338145085036e+00
2.386760338145085036e+00
2.386760338145085036e+00
2.372509903256325270e+00
2.372509903256325270e+00
2.372509903256325270e+00
2.372509903256325270e+00
2.392948026978362286e+00
2.392948026978362286e+00
2.392948026978362286e+00
2.302757774590289408e+00
2.302757774590289408e+00
2.302757774590289408e+00
2.254568803979613900e+00
2.254568803979613900e+00
2.254568803979613900e+00
2.254568803979613900e+00
2.219130222479934300e+00
2.219130222479934300e+00
2.219130222479934300e+00
2.177128940702536042e+00
2.177128940702536042e+00
2.177128940702536042e+00
2.191004364146854844e+00
2.191004364146854844e+00
2.191004364146854844e+00
2.191004364146854844e+00
2.216505142368846659e+00
2.216505142368846659e+00
2.216505142368846659e+00
2.252131229590746742e+00
2.252131229590746742e+00
2.252131229590746742e+00
2.252131229590746742e+00
2.317008209479048730e+00
2.317008209479048730e+00
2.317008209479048730e+00
2.337258827478866152e+00
2.337258827478866152e+00
2.337258827478866152e+00
2.389385418256172233e+00
2.389385418256172233e+00
2.389385418256172233e+00
2.389385418256172233e+00
2.423511459700308013e+00
2.423511459700308013e+00
2.423511459700308013e+00
2.385635303811762142e+00
2.385635303811762142e+00
2.385635303811762142e+00
2.394260567033906106e+00
2.394260567033906106e+00
2.394260567033906106e+00
2.394260567033906106e+00
2.377760063478499664e+00
2.377760063478499664e+00
2.377760063478499664e+00
2.280069582201605716e+00
2.280069582201605716e+00
2.280069582201605716e+00
2.247818597979674760e+00
2.247818597979674760e+00
2.247818597979674760e+00
2.247818597979674760e+00
2.193816949980162967e+00
2.193816949980162967e+00
2.193816949980162967e+00
2.178441480758079862e+00
2.178441480758079862e+00
2.178441480758079862e+00
2.208817407757805107e+00
2.208817407757805107e+00
2.208817407757805107e+00
2.208817407757805107e+00
2.225880428479872997e+00
2.225880428479872997e+00
2.225880428479872997e+00
2.275569444868312807e+00
2.275569444868312807e+00
2.275569444868312807e+00
2.326758507034516477e+00
2.326758507034516477e+00
2.326758507034516477e+00
2.344571550645466296e+00
2.344571550645466296e+00
2.344571550645466296e+00
2.385447798089541660e+00
2.385447798089541660e+00
2.385447798089541660e+00
2.385447798089541660e+00
2.391260475478377501e+00
2.391260475478377501e+00
2.391260475478377501e+00
2.347759147923215384e+00
2.347759147923215384e+00
2.347759147923215384e+00
2.384322763756218322e+00
2.384322763756218322e+00
2.384322763756218322e+00
2.384322763756218322e+00
2.325820978423414065e+00
2.325820978423414065e+00
2.325820978423414065e+00
2.237505783257545566e+00
2.237505783257545566e+00
2.237505783257545566e+00
2.237505783257545566e+00
2.215942625202185212e+00
2.215942625202185212e+00
2.215942625202185212e+00
2.182191595202490397e+00
2.182191595202490397e+00
2.182191595202490397e+00
2.203567247535630269e+00
2.203567247535630269e+00
2.203567247535630269e+00
2.203567247535630269e+00
2.246881069368571904e+00
2.246881069368571904e+00
2.246881069368571904e+00
2.270694296090578934e+00
2.270694296090578934e+00
2.270694296090578934e+00
2.337071321756645670e+00
2.337071321756645670e+00
2.337071321756645670e+00
2.392760521256141804e+00
2.392760521256141804e+00
2.392760521256141804e+00
2.406823450422681532e+00
2.406823450422681532e+00
2.443199560533463544e+00
2.443199560533463544e+00
2.443199560533463544e+00
2.411511093478194478e+00
2.411511093478194478e+00
2.358259468367565059e+00
2.358259468367565059e+00
2.375697500534073914e+00
2.375697500534073914e+00
2.284757225257118218e+00
2.284757225257118218e+00
2.229443037202063049e+00
2.229443037202063049e+00
2.209567430646687480e+00
2.209567430646687480e+00
2.171503769035920239e+00
2.171503769035920239e+00
2.176191412091433186e+00
2.176191412091433186e+00
2.176191412091433186e+00
2.197192052980132537e+00
2.197192052980132537e+00
2.228130497146519229e+00
2.228130497146519229e+00
2.296382580034791232e+00
2.296382580034791232e+00
2.327883541367839371e+00
2.327883541367839371e+00
2.355634388256477418e+00
2.355634388256477418e+00
2.405510910367137711e+00
2.405510910367137711e+00
2.371572374645222414e+00
2.371572374645222414e+00
2.373259926145207199e+00
2.373259926145207199e+00
2.373259926145207199e+00
2.381697683645130681e+00
2.381697683645130681e+00
2.291882442701498768e+00
2.291882442701498768e+00
2.262444044312875935e+00
2.262444044312875935e+00
2.239568346201971760e+00
2.239568346201971760e+00
2.213880062257759462e+00
2.213880062257759462e+00
2.242193426313058957e+00
2.242193426313058957e+00
2.240318369090853690e+00
2.240318369090853690e+00
2.261131504257332114e+00
2.261131504257332114e+00
2.261131504257332114e+00
2.305195348979155678e+00
2.305195348979155678e+00
2.312883083590197675e+00
2.312883083590197675e+00
2.359947019867549844e+00
2.359947019867549844e+00
2.395760612811670409e+00
2.395760612811670409e+00
2.362009582811975594e+00
2.362009582811975594e+00
2.398198187200537124e+00
2.398198187200537124e+00
2.380947660756248752e+00
2.380947660756248752e+00
2.288882351145970162e+00
2.288882351145970162e+00
2.253068758201849597e+00
2.253068758201849597e+00
2.181254066591387542e+00
2.181254066591387542e+00
2.181254066591387542e+00
2.149565599536118921e+00
2.149565599536118921e+00
2.164191045869319652e+00
2.164191045869319652e+00
2.157628345591601438e+00
2.157628345591601438e+00
2.226067934202093479e+00
2.226067934202093479e+00
2.288694845423749680e+00
2.288694845423749680e+00
2.324133426923429280e+00
2.324133426923429280e+00
2.393885555589465142e+00
2.393885555589465142e+00
2.401198278756065729e+00
2.401198278756065729e+00
2.380760155034028269e+00
2.380760155034028269e+00
2.380760155034028269e+00
2.436824365977965812e+00
2.436824365977965812e+00
2.375697500534073914e+00
2.375697500534073914e+00
2.291694936979278285e+00
2.291694936979278285e+00
2.241255897701956545e+00
2.241255897701956545e+00
2.167941160313730187e+00
2.167941160313730187e+00
2.151253151036103706e+00
2.151253151036103706e+00
2.202442213202307375e+00
2.202442213202307375e+00
2.230380565813165905e+00
2.230380565813165905e+00
2.230380565813165905e+00
2.297132602923673161e+00
2.297132602923673161e+00
2.342133976256599581e+00
2.342133976256599581e+00
2.371947386089663379e+00
2.371947386089663379e+00
2.414698690755943566e+00
2.414698690755943566e+00
2.390697958311716054e+00
2.390697958311716054e+00
2.382260200811792572e+00
2.382260200811792572e+00
2.392198004089480357e+00
2.392198004089480357e+00
2.277069490646077110e+00
2.277069490646077110e+00
2.277069490646077110e+00
2.225317911313211550e+00
2.225317911313211550e+00
2.207692373424482213e+00
2.207692373424482213e+00
2.167003631702627775e+00
2.167003631702627775e+00
2.183129123813593253e+00
2.183129123813593253e+00
2.192129398480178182e+00
2.192129398480178182e+00
2.236380748924222672e+00
2.236380748924222672e+00
2.325445966978973100e+00
2.325445966978973100e+00
2.374759971922971058e+00
2.374759971922971058e+00
2.406635944700461049e+00
2.406635944700461049e+00
2.406635944700461049e+00
2.424261482589190386e+00
2.424261482589190386e+00
2.363884640034180418e+00
2.363884640034180418e+00
2.340821436201055761e+00
2.340821436201055761e+00
2.345509079256569152e+00
2.345509079256569152e+00
2.268256721701712220e+00
2.268256721701712220e+00
2.233193151646474028e+00
2.233193151646474028e+00
2.179003997924741309e+00
2.179003997924741309e+00
2.158003357036042402e+00
2.158003357036042402e+00
2.208254890591143660e+00
2.208254890591143660e+00
2.208254890591143660e+00
2.271069307535019899e+00
2.271069307535019899e+00
2.410573564867091623e+00
2.410573564867091623e+00
2.501513840144047762e+00
2.501513840144047762e+00
2.497951231421857266e+00
2.497951231421857266e+00
2.474138004699850679e+00
2.474138004699850679e+00
2.416011230811487387e+00
2.416011230811487387e+00
2.345134067812128187e+00
2.345134067812128187e+00
2.356009399700918827e+00
2.356009399700918827e+00
2.278194524979400004e+00
2.278194524979400004e+00
2.278194524979400004e+00
2.181066560869167059e+00
2.181066560869167059e+00
2.184066652424695665e+00
2.184066652424695665e+00
2.152940702536088047e+00
2.152940702536088047e+00
2.133815118869594407e+00
2.133815118869594407e+00
2.156315805536057617e+00
2.156315805536057617e+00
2.173003814813684542e+00
2.173003814813684542e+00
2.227380474257637299e+00
2.227380474257637299e+00
2.296945097201452679e+00
2.296945097201452679e+00
2.296945097201452679e+00
2.348884182256538722e+00
2.348884182256538722e+00
2.441324503311258276e+00
2.441324503311258276e+00
2.438511917477950597e+00
2.438511917477950597e+00
2.405510910367137711e+00
2.405510910367137711e+00
2.451824823755607952e+00
2.451824823755607952e+00
2.345509079256569152e+00
2.345509079256569152e+00
2.257006378368480615e+00
2.257006378368480615e+00
2.222505325479903426e+00
2.222505325479903426e+00
2.222505325479903426e+00
2.159690908536027187e+00
2.159690908536027187e+00
2.137565233314004942e+00
2.137565233314004942e+00
2.168316171758171151e+00
2.168316171758171151e+00
2.193629444257942485e+00
2.193629444257942485e+00
2.257568895535142062e+00
2.257568895535142062e+00
2.307632923368022837e+00
2.307632923368022837e+00
2.348509170812097757e+00
2.348509170812097757e+00
2.394073061311685624e+00
2.394073061311685624e+00
2.394073061311685624e+00
2.399323221533860018e+00
2.399323221533860018e+00
2.435699331644642474e+00
2.435699331644642474e+00
2.446199652088991705e+00
2.446199652088991705e+00
2.351884273812066883e+00
2.351884273812066883e+00
2.289632374034852091e+00
2.289632374034852091e+00
2.231880611590930208e+00
2.231880611590930208e+00
2.183504135258034218e+00
2.183504135258034218e+00
2.179566515091402756e+00
2.179566515091402756e+00
2.144502945036164565e+00
2.144502945036164565e+00
2.144502945036164565e+00
2.170566240424817828e+00
2.170566240424817828e+00
2.259068941312906365e+00
2.259068941312906365e+00
2.310258003479110034e+00
2.310258003479110034e+00
2.374947477645191540e+00
2.374947477645191540e+00
2.400448255867183356e+00
2.400448255867183356e+00
2.369697317423017147e+00
2.369697317423017147e+00
2.407010956144902014e+00
2.407010956144902014e+00
2.327321024201178368e+00
2.327321024201178368e+00
2.327321024201178368e+00
2.174128849147007880e+00
2.174128849147007880e+00
2.127252418591876193e+00
2.127252418591876193e+00
2.095563951536606684e+00
2.095563951536606684e+00
2.134565141758476781e+00
2.134565141758476781e+00
2.230380565813165905e+00
2.230380565813165905e+00
2.274631916257209951e+00
2.274631916257209951e+00
2.377572557756279181e+00
2.377572557756279181e+00
2.466262764366588645e+00
2.466262764366588645e+00
2.466262764366588645e+00
2.501888851588488727e+00
2.501888851588488727e+00
2.496638691366313889e+00
2.496638691366313889e+00
2.457449995422223310e+00
2.457449995422223310e+00
2.395760612811670409e+00
2.395760612811670409e+00
2.389010406811731269e+00
2.389010406811731269e+00
2.272006836146122755e+00
2.272006836146122755e+00
2.192879421369060555e+00
2.192879421369060555e+00
2.196817041535691573e+00
2.196817041535691573e+00
2.196817041535691573e+00
2.134190130314035372e+00
2.134190130314035372e+00
2.119377178258613714e+00
2.119377178258613714e+00
2.197192052980132537e+00
2.197192052980132537e+00
2.289819879757073018e+00
2.289819879757073018e+00
2.399135715811639535e+00
2.399135715811639535e+00
2.425574022644734207e+00
2.425574022644734207e+00
2.401198278756065729e+00
2.401198278756065729e+00
2.470387890255439700e+00
2.470387890255439700e+00
2.475825556199835464e+00
2.475825556199835464e+00
2.475825556199835464e+00
2.428574114200262368e+00
2.428574114200262368e+00
2.375885006256294396e+00
2.375885006256294396e+00
2.233005645924253102e+00
2.233005645924253102e+00
2.131377544480727693e+00
2.131377544480727693e+00
2.093876400036621899e+00
2.093876400036621899e+00
2.085063631092257452e+00
2.085063631092257452e+00
2.161940977202673420e+00
2.161940977202673420e+00
2.261881527146214044e+00
2.261881527146214044e+00
2.290194891201513983e+00
2.290194891201513983e+00
2.316258186590166801e+00
2.316258186590166801e+00
2.374384960478530537e+00
2.374384960478530537e+00
2.374384960478530537e+00
2.426136539811395654e+00
2.426136539811395654e+00
2.461012604144413807e+00
2.461012604144413807e+00
2.437011871700186294e+00
2.437011871700186294e+00
2.464387707144383377e+00
2.464387707144383377e+00
2.428386608478041886e+00
2.428386608478041886e+00
2.265256630146183614e+00
2.265256630146183614e+00
2.178628986480300345e+00
2.178628986480300345e+00
2.107376812036500180e+00
2.107376812036500180e+00
2.107376812036500180e+00
2.062937955870235207e+00
2.062937955870235207e+00
2.061437910092470904e+00
2.061437910092470904e+00
2.052437635425885976e+00
2.052437635425885976e+00
2.088438734092227023e+00
2.088438734092227023e+00
2.167378643147068740e+00
2.167378643147068740e+00
2.232818140202032620e+00
2.232818140202032620e+00
2.375885006256294396e+00
2.375885006256294396e+00
2.517076815088350905e+00
2.517076815088350905e+00
2.594704184087649246e+00
2.594704184087649246e+00
2.594704184087649246e+00
2.660706198309274573e+00
2.660706198309274573e+00
2.557578051087984861e+00
2.557578051087984861e+00
2.328258552812280335e+00
2.328258552812280335e+00
2.200754661702322146e+00
2.200754661702322146e+00
2.162503494369335311e+00
2.162503494369335311e+00
2.107001800592058771e+00
2.107001800592058771e+00
2.084126102481154597e+00
2.084126102481154597e+00
2.084126102481154597e+00
2.108689352092044000e+00
2.108689352092044000e+00
2.201504684591204519e+00
2.201504684591204519e+00
2.256443861201819168e+00
2.256443861201819168e+00
2.315695669423505798e+00
2.315695669423505798e+00
2.425011505478072316e+00
2.425011505478072316e+00
2.414886196478164049e+00
2.414886196478164049e+00
2.420886379589221260e+00
2.420886379589221260e+00
2.479200659199805035e+00
2.479200659199805035e+00
2.479200659199805035e+00
2.389572923978392716e+00
2.389572923978392716e+00
2.240880886257515137e+00
2.240880886257515137e+00
2.112814477980895500e+00
2.112814477980895500e+00
2.025436811426129857e+00
2.025436811426129857e+00
2.090688802758873255e+00
2.090688802758873255e+00
2.186691732535783306e+00
2.186691732535783306e+00
2.237318277535325084e+00
2.237318277535325084e+00
2.362947111423078006e+00
2.362947111423078006e+00
2.422761436811426083e+00
2.422761436811426083e+00
2.422761436811426083e+00
2.491388531144139051e+00
2.491388531144139051e+00
2.523076998199408116e+00
2.523076998199408116e+00
2.414886196478164049e+00
2.414886196478164049e+00
2.380947660756248752e+00
2.380947660756248752e+00
2.414323679311502602e+00
2.414323679311502602e+00
2.403635853144932444e+00
2.403635853144932444e+00
2.367259743034150432e+00
2.367259743034150432e+00
2.273319376201666131e+00
2.273319376201666131e+00
2.273319376201666131e+00
2.151065645313883223e+00
2.151065645313883223e+00
2.131002533036286284e+00
2.131002533036286284e+00
2.148628070925016065e+00
2.148628070925016065e+00
2.179941526535844165e+00
2.179941526535844165e+00
2.247256080813012868e+00
2.247256080813012868e+00
2.292819971312600735e+00
2.292819971312600735e+00
2.344946562089907705e+00
2.344946562089907705e+00
2.365947202978606612e+00
2.365947202978606612e+00
2.403073335978270997e+00
2.403073335978270997e+00
2.403073335978270997e+00
2.461950132755516218e+00
2.461950132755516218e+00
2.395010589922788480e+00
2.395010589922788480e+00
2.262819055757316900e+00
2.262819055757316900e+00
2.179379009369182274e+00
2.179379009369182274e+00
2.155565782647175688e+00
2.155565782647175688e+00
2.147690542313913653e+00
2.147690542313913653e+00
2.157065828424939546e+00
2.157065828424939546e+00
2.141690359202856442e+00
2.141690359202856442e+00
2.141690359202856442e+00
2.206004821924497428e+00
2.206004821924497428e+00
2.290569902645954947e+00
2.290569902645954947e+00
2.370634846034120002e+00
2.370634846034120002e+00
2.480888210699789376e+00
2.480888210699789376e+00
2.559453108310190128e+00
2.559453108310190128e+00
2.485763359477523249e+00
2.485763359477523249e+00
2.481450727866450823e+00
2.481450727866450823e+00
2.396510635700552783e+00
2.396510635700552783e+00
2.319445783867915889e+00
2.319445783867915889e+00
2.196442030091250608e+00
2.196442030091250608e+00
2.196442030091250608e+00
2.030311960203863730e+00
2.030311960203863730e+00
1.979685415204321286e+00
1.979685415204321286e+00
2.074938322092349186e+00
2.074938322092349186e+00
2.139815301980651618e+00
2.139815301980651618e+00
2.244818506424146598e+00
2.244818506424146598e+00
2.306507889034699499e+00
2.306507889034699499e+00
2.350196722312082542e+00
2.350196722312082542e+00
2.418448805200354101e+00
2.418448805200354101e+00
2.418448805200354101e+00
2.370822351756340485e+00
2.370822351756340485e+00
2.363884640034180418e+00
2.363884640034180418e+00
2.399323221533860018e+00
2.399323221533860018e+00
2.292444959868159771e+00
2.292444959868159771e+00
2.276319467757194737e+00
2.276319467757194737e+00
2.308195440534684284e+00
2.308195440534684284e+00
2.311945554979094819e+00
2.311945554979094819e+00
2.365572191534165203e+00
2.365572191534165203e+00
2.365572191534165203e+00
2.368947294534135217e+00
2.368947294534135217e+00
2.271444318979460864e+00
2.271444318979460864e+00
2.229630542924283532e+00
2.229630542924283532e+00
2.231880611590930208e+00
2.231880611590930208e+00
2.298445142979216982e+00
2.298445142979216982e+00
2.291882442701498768e+00
2.291882442701498768e+00
2.227567979979857782e+00
2.227567979979857782e+00
2.253256263924070080e+00
2.253256263924070080e+00
2.268631733146153184e+00
2.268631733146153184e+00
2.268631733146153184e+00
2.185941709646900932e+00
2.185941709646900932e+00
2.115252052369762659e+00
2.115252052369762659e+00
2.117127109591967482e+00
2.117127109591967482e+00
2.083188573870052185e+00
2.083188573870052185e+00
2.045499923703726353e+00
2.045499923703726353e+00
2.019249122592852608e+00
2.019249122592852608e+00
1.906933194982757040e+00
1.906933194982757040e+00
1.909558275093844459e+00
1.909558275093844459e+00
1.909558275093844459e+00
2.108689352092044000e+00
2.108689352092044000e+00
2.349821710867641578e+00
2.349821710867641578e+00
2.493826105533005766e+00
2.493826105533005766e+00
2.557765556810205343e+00
2.557765556810205343e+00
2.710395214697714383e+00
2.710395214697714383e+00
2.714332834864345401e+00
2.714332834864345401e+00
2.619079927976317723e+00
2.619079927976317723e+00
2.510889126255073656e+00
2.510889126255073656e+00
2.380760155034028269e+00
2.380760155034028269e+00
2.352821802423169739e+00
2.352821802423169739e+00
2.352821802423169739e+00
2.261131504257332114e+00
2.261131504257332114e+00
2.163816034424878687e+00
2.163816034424878687e+00
2.164378551591540134e+00
2.164378551591540134e+00
2.166253608813745402e+00
2.166253608813745402e+00
2.201879696035645484e+00
2.201879696035645484e+00
2.230193060090945423e+00
2.230193060090945423e+00
2.151440656758324188e+00
2.151440656758324188e+00
2.169066194647053525e+00
2.169066194647053525e+00
2.169066194647053525e+00
2.361259559923093665e+00
2.361259559923093665e+00
2.330883632923367976e+00
2.330883632923367976e+00
2.363134617145298488e+00
2.363134617145298488e+00
2.319070772423474924e+00
2.319070772423474924e+00
2.142252876369517889e+00
2.142252876369517889e+00
2.117689626758628929e+00
2.117689626758628929e+00
2.056187749870296511e+00
2.056187749870296511e+00
1.992435804315317194e+00
1.992435804315317194e+00
1.992435804315317194e+00
1.998248481704153479e+00
1.998248481704153479e+00
2.096876491592150504e+00
2.096876491592150504e+00
2.253443769646290562e+00
2.253443769646290562e+00
2.283444685201574842e+00
2.283444685201574842e+00
2.231505600146489243e+00
2.231505600146489243e+00
2.234693197424237443e+00
2.234693197424237443e+00
2.305945371868038052e+00
2.305945371868038052e+00
2.314008117923521013e+00
2.314008117923521013e+00
2.314008117923521013e+00
2.404948393200476264e+00
2.404948393200476264e+00
2.491013519699698087e+00
2.491013519699698087e+00
2.389760429700613198e+00
2.389760429700613198e+00
2.298820154423657947e+00
2.298820154423657947e+00
2.224942899868770141e+00
2.224942899868770141e+00
2.213505050813318054e+00
2.213505050813318054e+00
2.278569536423841413e+00
2.278569536423841413e+00
2.237130771813104602e+00
2.237130771813104602e+00
2.228505508590960638e+00
2.228505508590960638e+00
2.228505508590960638e+00
2.200942167424543072e+00
2.200942167424543072e+00
2.163253517258217240e+00
2.163253517258217240e+00
2.058625324259163225e+00
2.058625324259163225e+00
1.933746513260292454e+00
1.933746513260292454e+00
1.722427564317758675e+00
1.722427564317758675e+00
1.831368388927884894e+00
1.831368388927884894e+00
1.929621387371440955e+00
1.929621387371440955e+00
2.130627521591845319e+00
2.130627521591845319e+00
2.130627521591845319e+00
2.370072328867458111e+00
2.370072328867458111e+00
2.438886928922391562e+00
2.438886928922391562e+00
2.508451551866206941e+00
2.508451551866206941e+00
2.679831781975768212e+00
2.679831781975768212e+00
2.831711416974395323e+00
2.831711416974395323e+00
2.921339152195806754e+00
2.921339152195806754e+00
2.936527115695669821e+00
2.936527115695669821e+00
2.697644825586718476e+00
2.697644825586718476e+00
2.405323404644917229e+00
2.405323404644917229e+00
2.405323404644917229e+00
1.941809259315775193e+00
1.941809259315775193e+00
1.802680013428144212e+00
1.802680013428144212e+00
1.772866603595080637e+00
1.772866603595080637e+00
1.799492416150395346e+00
1.799492416150395346e+00
1.882744956816309267e+00
1.882744956816309267e+00
1.884995025482955278e+00
1.884995025482955278e+00
1.789929624317148527e+00
1.789929624317148527e+00
1.768178960539567246e+00
1.768178960539567246e+00
1.768178960539567246e+00
1.904495620593890104e+00
1.904495620593890104e+00
2.205254799035615054e+00
2.205254799035615054e+00
2.457262489700002828e+00
2.457262489700002828e+00
2.409823541978209693e+00
2.409823541978209693e+00
2.343634022034363884e+00
2.343634022034363884e+00
2.187441755424664791e+00
2.187441755424664791e+00
2.250631183812982439e+00
2.250631183812982439e+00
2.448824732200079346e+00
2.448824732200079346e+00
2.448824732200079346e+00
2.342321481978820064e+00
2.342321481978820064e+00
2.340258919034394314e+00
2.340258919034394314e+00
2.564703268532364966e+00
2.564703268532364966e+00
2.650205877864925341e+00
2.650205877864925341e+00
2.650768395031586788e+00
2.650768395031586788e+00
2.460262581255531433e+00
2.460262581255531433e+00
2.018124088259529714e+00
2.018124088259529714e+00
1.662988250373851784e+00
1.662988250373851784e+00
1.662988250373851784e+00
1.739490585039826565e+00
1.739490585039826565e+00
1.842056215094454830e+00
1.842056215094454830e+00
1.899432966093935971e+00
1.899432966093935971e+00
1.947809442426831961e+00
1.947809442426831961e+00
2.132315073091830104e+00
2.132315073091830104e+00
2.517639332255012796e+00
2.517639332255012796e+00
2.568828394421216466e+00
2.568828394421216466e+00
2.570703451643421733e+00
2.570703451643421733e+00
2.544077639088107023e+00
2.544077639088107023e+00
2.544077639088107023e+00
2.433636768700216724e+00
2.433636768700216724e+00
2.420511368144779851e+00
2.420511368144779851e+00
2.473387981810968306e+00
2.473387981810968306e+00
2.280819605090487201e+00
2.280819605090487201e+00
2.155753288369396170e+00
2.155753288369396170e+00
2.286257271034882521e+00
2.286257271034882521e+00
2.513139194921720332e+00
2.513139194921720332e+00
2.578016174810022321e+00
2.578016174810022321e+00
2.578016174810022321e+00
2.290757408368175430e+00
2.290757408368175430e+00
2.081501022370067400e+00
2.081501022370067400e+00
2.405135898922696747e+00
2.405135898922696747e+00
2.589079012421033443e+00
2.589079012421033443e+00
2.401948301644947659e+00
2.401948301644947659e+00
2.173378826258125951e+00
2.173378826258125951e+00
1.925871272927030420e+00
1.925871272927030420e+00
1.897370403149510221e+00
1.897370403149510221e+00
1.897370403149510221e+00
2.031812005981628033e+00
2.031812005981628033e+00
2.046812463759269729e+00
2.046812463759269729e+00
1.930933927426984553e+00
1.930933927426984553e+00
1.909370769371623755e+00
1.909370769371623755e+00
1.881994933927427116e+00
1.881994933927427116e+00
1.964684957426679368e+00
1.964684957426679368e+00
2.008561296426282894e+00
2.008561296426282894e+00
2.169066194647053525e+00
2.169066194647053525e+00
2.169066194647053525e+00
2.041187292092654371e+00
2.041187292092654371e+00
1.809992736594744800e+00
1.809992736594744800e+00
1.709864680928983471e+00
1.709864680928983471e+00
2.200004638813440216e+00
2.200004638813440216e+00
2.772084597308267728e+00
2.772084597308267728e+00
2.994278878139591704e+00
2.994278878139591704e+00
2.823461165196691880e+00
2.823461165196691880e+00
2.620579973754082026e+00
2.620579973754082026e+00
2.620579973754082026e+00
2.724270638142033185e+00
2.724270638142033185e+00
2.534702352977080686e+00
2.534702352977080686e+00
2.422386425366985119e+00
2.422386425366985119e+00
2.530202215643787778e+00
2.530202215643787778e+00
2.174316354869228363e+00
2.174316354869228363e+00
2.026936857203894160e+00
2.026936857203894160e+00
1.917058503982665529e+00
1.917058503982665529e+00
1.791054658650471643e+00
1.791054658650471643e+00
1.742115665150914205e+00
1.742115665150914205e+00
1.742115665150914205e+00
1.891745231482894418e+00
1.891745231482894418e+00
2.251381206701864812e+00
2.251381206701864812e+00
2.338008850367748082e+00
2.338008850367748082e+00
2.135690176091799675e+00
2.135690176091799675e+00
2.174128849147007880e+00
2.174128849147007880e+00
2.329196081423383191e+00
2.329196081423383191e+00
2.326195989867855030e+00
2.326195989867855030e+00
2.131377544480727693e+00
2.131377544480727693e+00
2.131377544480727693e+00
1.722052552873317710e+00
1.722052552873317710e+00
1.596611224707785270e+00
1.596611224707785270e+00
1.743053193762016839e+00
1.743053193762016839e+00
1.944434339426862390e+00
1.944434339426862390e+00
2.411511093478194478e+00
2.411511093478194478e+00
3.402666341135899053e+00
3.402666341135899053e+00
3.615110324411755727e+00
3.615110324411755727e+00
3.321288857692190621e+00
3.321288857692190621e+00
2.761209265419477088e+00
2.761209265419477088e+00
2.761209265419477088e+00
2.493263588366343875e+00
2.493263588366343875e+00
2.481075716422009858e+00
2.481075716422009858e+00
2.223255348368785356e+00
2.223255348368785356e+00
2.045312417981505870e+00
2.045312417981505870e+00
1.995435895870845799e+00
1.995435895870845799e+00
1.770054017761772513e+00
1.770054017761772513e+00
1.741928159428693501e+00
1.741928159428693501e+00
1.495358134708700826e+00
1.495358134708700826e+00
1.495358134708700826e+00
1.287226783043916134e+00
1.287226783043916134e+00
1.243912961210974499e+00
1.243912961210974499e+00
1.413980651264992394e+00
1.413980651264992394e+00
1.385667287209692677e+00
1.385667287209692677e+00
1.484670308542130890e+00
1.484670308542130890e+00
2.260006469924008776e+00
2.260006469924008776e+00
3.139595812860499713e+00
3.139595812860499713e+00
3.754802087466048377e+00
3.754802087466048377e+00
3.754802087466048377e+00
3.667986938077944181e+00
3.667986938077944181e+00
2.842399243140965037e+00
2.842399243140965037e+00
2.291882442701498768e+00
2.291882442701498768e+00
2.355071871089815971e+00
2.355071871089815971e+00
2.512951689199499850e+00
2.512951689199499850e+00
2.561140659810174913e+00
2.561140659810174913e+00
2.445262123477889293e+00
2.445262123477889293e+00
2.691457136753440782e+00
2.691457136753440782e+00
2.264319101535081202e+00
2.264319101535081202e+00
2.264319101535081202e+00
2.183504135258034218e+00
2.183504135258034218e+00
2.440761986144596829e+00
2.440761986144596829e+00
2.411886104922635443e+00
2.411886104922635443e+00
2.178628986480300345e+00
2.178628986480300345e+00
2.046624958037049247e+00
2.046624958037049247e+00
1.854619098483230255e+00
1.854619098483230255e+00
1.986248115482039944e+00
1.986248115482039944e+00
2.200004638813440216e+00
2.200004638813440216e+00
2.200004638813440216e+00
2.174128849147007880e+00
2.174128849147007880e+00
2.092938871425519931e+00
2.092938871425519931e+00
1.835118503372295429e+00
1.835118503372295429e+00
1.653050447096163778e+00
1.653050447096163778e+00
2.143002899258400262e+00
2.143002899258400262e+00
2.286632282479323930e+00
2.286632282479323930e+00
2.241255897701956545e+00
2.241255897701956545e+00
2.273319376201666131e+00
2.273319376201666131e+00
2.273319376201666131e+00
2.345696584978789634e+00
2.345696584978789634e+00
2.308757957701345731e+00
2.308757957701345731e+00
2.596204229865413549e+00
2.596204229865413549e+00
2.997091463972899383e+00
2.997091463972899383e+00
2.803585558641315867e+00
2.803585558641315867e+00
2.413198644978179264e+00
2.413198644978179264e+00
2.238068300424207457e+00
2.238068300424207457e+00
2.293569994201483109e+00
2.293569994201483109e+00
2.293569994201483109e+00
2.155753288369396170e+00
2.155753288369396170e+00
1.917433515427106494e+00
1.917433515427106494e+00
1.947621936704611478e+00
1.947621936704611478e+00
1.924746238593707082e+00
1.924746238593707082e+00
1.814492873928037486e+00
1.814492873928037486e+00
1.665425824762718721e+00
1.665425824762718721e+00
1.523859004486220803e+00
1.523859004486220803e+00
2.030124454481643248e+00
2.030124454481643248e+00
2.696332285531174655e+00
2.696332285531174655e+00
2.964652974028748389e+00
2.964652974028748389e+00
3.038530228583636195e+00
3.038530228583636195e+00
2.823086153752250915e+00
2.823086153752250915e+00
2.823086153752250915e+00
2.463075167088839557e+00
2.463075167088839557e+00
2.154065736869411385e+00
2.154065736869411385e+00
2.127064912869655711e+00
2.127064912869655711e+00
2.240693380535294654e+00
2.240693380535294654e+00
2.410011047700430176e+00
2.410011047700430176e+00
2.360322031311990809e+00
2.360322031311990809e+00
2.414136173589282119e+00
2.414136173589282119e+00
2.275006927701650916e+00
2.275006927701650916e+00
2.229068025757622085e+00
2.229068025757622085e+00
2.431574205755790974e+00
2.431574205755790974e+00
2.431574205755790974e+00
2.493451094088564801e+00
2.493451094088564801e+00
2.359572008423108880e+00
2.359572008423108880e+00
1.840931180761131714e+00
1.840931180761131714e+00
1.768741477706228693e+00
1.768741477706228693e+00
2.064438001647999510e+00
2.064438001647999510e+00
2.270506790368358452e+00
2.270506790368358452e+00
2.256068849757378203e+00
2.256068849757378203e+00
2.155940794091616652e+00
2.155940794091616652e+00
2.155940794091616652e+00
2.379447614978484449e+00
2.379447614978484449e+00
2.450512283700064131e+00
2.450512283700064131e+00
2.593016632587664461e+00
2.593016632587664461e+00
2.439261940366832526e+00
2.439261940366832526e+00
2.267694204535050773e+00
2.267694204535050773e+00
2.310820520645771925e+00
2.310820520645771925e+00
2.106439283425397324e+00
2.106439283425397324e+00
2.020749168370616911e+00
2.020749168370616911e+00
2.020749168370616911e+00
2.125752372814111890e+00
2.125752372814111890e+00
2.672894070253609033e+00
2.672894070253609033e+00
2.952277596362193446e+00
2.952277596362193446e+00
2.005748710592974771e+00
2.005748710592974771e+00
1.352666280098880014e+00
1.352666280098880014e+00
1.545422162541581379e+00
1.545422162541581379e+00
1.941809259315775193e+00
1.941809259315775193e+00
2.024124271370586037e+00
2.024124271370586037e+00
2.024124271370586037e+00
1.797054841761528188e+00
1.797054841761528188e+00
1.945184362315744542e+00
1.945184362315744542e+00
2.329571092867824156e+00
2.329571092867824156e+00
2.640455580309458039e+00
2.640455580309458039e+00
2.618329905087435794e+00
2.618329905087435794e+00
2.772272103030488211e+00
2.772272103030488211e+00
2.617204870754112456e+00
2.617204870754112456e+00
2.288694845423749680e+00
2.288694845423749680e+00
2.288694845423749680e+00
2.285694753868221074e+00
2.285694753868221074e+00
2.165503585924863472e+00
2.165503585924863472e+00
1.928308847315897134e+00
1.928308847315897134e+00
2.090313791314432290e+00
2.090313791314432290e+00
2.716770409253212115e+00
2.716770409253212115e+00
2.927526841029084004e+00
2.927526841029084004e+00
2.965590502639851245e+00
2.965590502639851245e+00
2.932026978362376912e+00
2.932026978362376912e+00
2.665581347087008446e+00
2.665581347087008446e+00
2.665581347087008446e+00
2.235630726035340299e+00
2.235630726035340299e+00
2.159878414258247670e+00
2.159878414258247670e+00
2.082251045258949329e+00
2.082251045258949329e+00
1.996560930204168693e+00
1.996560930204168693e+00
2.351884273812066883e+00
2.351884273812066883e+00
2.591891598254341122e+00
2.591891598254341122e+00
2.552140385143589540e+00
2.552140385143589540e+00
2.302945280312509890e+00
2.302945280312509890e+00
2.302945280312509890e+00
2.046999969481490211e+00
2.046999969481490211e+00
1.958122257148960932e+00
1.958122257148960932e+00
2.158940885647145258e+00
2.158940885647145258e+00
2.175253883480330774e+00
2.175253883480330774e+00
2.198317087313455875e+00
2.198317087313455875e+00
2.500013794366283459e+00
2.500013794366283459e+00
2.611767204809717136e+00
2.611767204809717136e+00
2.524952055421613384e+00
2.524952055421613384e+00
2.524952055421613384e+00
2.365197180089724238e+00
2.365197180089724238e+00
1.911433332316049727e+00
1.911433332316049727e+00
1.660175664540543883e+00
1.660175664540543883e+00
1.656613055818353830e+00
1.656613055818353830e+00
2.077938413647877791e+00
2.077938413647877791e+00
2.540327524643696488e+00
2.540327524643696488e+00
2.467575304422132465e+00
2.467575304422132465e+00
2.329383587145603673e+00
2.329383587145603673e+00
2.329383587145603673e+00
2.243318460646382295e+00
2.243318460646382295e+00
1.993748344370861014e+00
1.993748344370861014e+00
2.248943632312997654e+00
2.248943632312997654e+00
2.622267525254066367e+00
2.622267525254066367e+00
2.855337137974180983e+00
2.855337137974180983e+00
3.034592608417004733e+00
3.034592608417004733e+00
2.640080568865016630e+00
2.640080568865016630e+00
2.526452101199377687e+00
2.526452101199377687e+00
1.989435712759789032e+00
1.989435712759789032e+00
1.989435712759789032e+00
1.517858821375164036e+00
1.517858821375164036e+00
1.187473738822595770e+00
1.187473738822595770e+00
1.310102481154820531e+00
1.310102481154820531e+00
2.191941892757957699e+00
2.191941892757957699e+00
2.876337778862880334e+00
2.876337778862880334e+00
3.084281624805444544e+00
3.084281624805444544e+00
2.918714072084719557e+00
2.918714072084719557e+00
2.786522537919247977e+00
2.786522537919247977e+00
2.786522537919247977e+00
2.586078920865504838e+00
2.586078920865504838e+00
2.322633381145664977e+00
2.322633381145664977e+00
2.309882992034669069e+00
2.309882992034669069e+00
2.217817682424390480e+00
2.217817682424390480e+00
2.339883907589953349e+00
2.339883907589953349e+00
2.506013977477339782e+00
2.506013977477339782e+00
2.275006927701650916e+00
2.275006927701650916e+00
1.906933194982757040e+00
1.906933194982757040e+00
1.906933194982757040e+00
1.890995208594012267e+00
1.890995208594012267e+00
2.192504409924619146e+00
2.192504409924619146e+00
2.274631916257209951e+00
2.274631916257209951e+00
2.052812646870326940e+00
2.052812646870326940e+00
1.916120975371562896e+00
1.916120975371562896e+00
1.996560930204168693e+00
1.996560930204168693e+00
1.881994933927427116e+00
1.881994933927427116e+00
1.515608752708517581e+00
1.515608752708517581e+00
1.515608752708517581e+00
1.507921018097476251e+00
1.507921018097476251e+00
1.605236487929929456e+00
1.605236487929929456e+00
1.906745689260536558e+00
1.906745689260536558e+00
2.240693380535294654e+00
2.240693380535294654e+00
3.030842493972594642e+00
3.030842493972594642e+00
3.687675038911099712e+00
3.687675038911099712e+00
3.728738792077395114e+00
3.728738792077395114e+00
3.361790093691824133e+00
3.361790093691824133e+00
3.361790093691824133e+00
2.844836817529831752e+00
2.844836817529831752e+00
2.516701803643909940e+00
2.516701803643909940e+00
2.392573015533921321e+00
2.392573015533921321e+00
2.446574663533433114e+00
2.446574663533433114e+00
2.527014618366038690e+00
2.527014618366038690e+00
2.577641163365581356e+00
2.577641163365581356e+00
2.747333841975158286e+00
2.747333841975158286e+00
2.359572008423108880e+00
2.359572008423108880e+00
2.055062715536973172e+00
2.055062715536973172e+00
1.483545274208807774e+00
1.483545274208807774e+00
1.483545274208807774e+00
1.056219733268227268e+00
1.056219733268227268e+00
1.151285134434034241e+00
1.151285134434034241e+00
1.656050538651692383e+00
1.656050538651692383e+00
2.155940794091616652e+00
2.155940794091616652e+00
2.387885372478407930e+00
2.387885372478407930e+00
2.636330454420606095e+00
2.636330454420606095e+00
2.729333292641987541e+00
2.729333292641987541e+00
2.841649220252083108e+00
2.841649220252083108e+00
2.841649220252083108e+00
2.626205145420697828e+00
2.626205145420697828e+00
2.657893612475966449e+00
2.657893612475966449e+00
2.646830774864955327e+00
2.646830774864955327e+00
2.666331369975890819e+00
2.666331369975890819e+00
2.421823908200323228e+00
2.421823908200323228e+00
2.288882351145970162e+00
2.288882351145970162e+00
2.409636036255989211e+00
2.409636036255989211e+00
2.276881984923856628e+00
2.276881984923856628e+00
2.276881984923856628e+00
2.014561479537339217e+00
2.014561479537339217e+00
1.786742027039399439e+00
1.786742027039399439e+00
1.666175847651600872e+00
1.666175847651600872e+00
1.757303628650776606e+00
1.757303628650776606e+00
1.791992187261574054e+00
1.791992187261574054e+00
1.662800744651631080e+00
1.662800744651631080e+00
1.833993469038972091e+00
1.833993469038972091e+00
2.302945280312509890e+00
2.302945280312509890e+00
2.302945280312509890e+00
2.451262306588946061e+00
2.451262306588946061e+00
2.685831965086825424e+00
2.685831965086825424e+00
3.046967986083559676e+00
3.046967986083559676e+00
3.457605517746513257e+00
3.457605517746513257e+00
3.514044740134891764e+00
3.514044740134891764e+00
3.271787347025971293e+00
3.271787347025971293e+00
2.870900112918485014e+00
2.870900112918485014e+00
2.550077822199164235e+00
2.550077822199164235e+00
2.550077822199164235e+00
2.359009491256446989e+00
2.359009491256446989e+00
2.082626056703390294e+00
2.082626056703390294e+00
1.994498367259743166e+00
1.994498367259743166e+00
1.999748527481917781e+00
1.999748527481917781e+00
1.957184728537858298e+00
1.957184728537858298e+00
2.120689718314157535e+00
2.120689718314157535e+00
2.135502670369579192e+00
2.135502670369579192e+00
2.242380932035279439e+00
2.242380932035279439e+00
2.182191595202490397e+00
2.182191595202490397e+00
2.013998962370677770e+00
2.013998962370677770e+00
2.013998962370677770e+00
2.136815210425123013e+00
2.136815210425123013e+00
2.351134250923184954e+00
2.351134250923184954e+00
2.376072511978514878e+00
2.376072511978514878e+00
2.352634296700948813e+00
2.352634296700948813e+00
2.347571642200994901e+00
2.347571642200994901e+00
2.545952696310312291e+00
2.545952696310312291e+00
2.627892696920682614e+00
2.627892696920682614e+00
2.486325876644184696e+00
2.486325876644184696e+00
2.486325876644184696e+00
2.328071047090059853e+00
2.328071047090059853e+00
2.066875576036866669e+00
2.066875576036866669e+00
1.932808984649189599e+00
1.932808984649189599e+00
2.113752006591998356e+00
2.113752006591998356e+00
2.024499282815027001e+00
2.024499282815027001e+00
1.845618823816644882e+00
1.845618823816644882e+00
1.905058137760551773e+00
1.905058137760551773e+00
2.240505874813074172e+00
2.240505874813074172e+00
2.240505874813074172e+00
2.437949400311288706e+00
2.437949400311288706e+00
2.402698324533829588e+00
2.402698324533829588e+00
2.355446882534256936e+00
2.355446882534256936e+00
2.625642628254035937e+00
2.625642628254035937e+00
2.893025788140507260e+00
2.893025788140507260e+00
2.704957548753318619e+00
2.704957548753318619e+00
2.361634571367534630e+00
2.361634571367534630e+00
2.088813745536667987e+00
2.088813745536667987e+00
2.088813745536667987e+00
1.886495071260719580e+00
1.886495071260719580e+00
1.906745689260536558e+00
1.906745689260536558e+00
2.230568071535386387e+00
2.230568071535386387e+00
2.635580431531724166e+00
2.635580431531724166e+00
2.767396954252754337e+00
2.767396954252754337e+00
2.497763725699636783e+00
2.497763725699636783e+00
2.325258461256752618e+00
2.325258461256752618e+00
2.298632648701437464e+00
2.298632648701437464e+00
2.298632648701437464e+00
2.131940061647389140e+00
2.131940061647389140e+00
2.316820703756828248e+00
2.316820703756828248e+00
2.412823633533738299e+00
2.412823633533738299e+00
2.378322580645161111e+00
2.378322580645161111e+00
2.113376995147556947e+00
2.113376995147556947e+00
1.787492049928281590e+00
1.787492049928281590e+00
1.766678914761803165e+00
1.766678914761803165e+00
2.093501388592180934e+00
2.093501388592180934e+00
2.309507980590228104e+00
2.309507980590228104e+00
2.484450819421979428e+00
2.484450819421979428e+00
2.484450819421979428e+00
2.761584276863917609e+00
2.761584276863917609e+00
3.007966795861690024e+00
3.007966795861690024e+00
3.097032013916440452e+00
3.097032013916440452e+00
3.037780205694753821e+00
3.037780205694753821e+00
2.753896542252876500e+00
2.753896542252876500e+00
2.583641346476638123e+00
2.583641346476638123e+00
2.405698416089358194e+00
2.405698416089358194e+00
2.295257545701467894e+00
2.295257545701467894e+00
2.295257545701467894e+00
2.372884914700766235e+00
2.372884914700766235e+00
2.123127292703024249e+00
2.123127292703024249e+00
1.944996856593524059e+00
1.944996856593524059e+00
1.975372783593249304e+00
1.975372783593249304e+00
1.963559923093356252e+00
1.963559923093356252e+00
2.151815668202764709e+00
2.151815668202764709e+00
2.313258095034638639e+00
2.313258095034638639e+00
2.278569536423841413e+00
2.278569536423841413e+00
2.278569536423841413e+00
1.916870998260445047e+00
1.916870998260445047e+00
1.762928800317392408e+00
1.762928800317392408e+00
2.004061159092989985e+00
2.004061159092989985e+00
2.299757683034760802e+00
2.299757683034760802e+00
2.502451368755150174e+00
2.502451368755150174e+00
2.652268440809351091e+00
2.652268440809351091e+00
2.709832697531052492e+00
2.709832697531052492e+00
2.648893337809381521e+00
2.648893337809381521e+00
2.648893337809381521e+00
2.602016907254249833e+00
2.602016907254249833e+00
2.431199194311350009e+00
2.431199194311350009e+00
2.328446058534500818e+00
2.328446058534500818e+00
2.203942258980071234e+00
2.203942258980071234e+00
1.950997039704580827e+00
1.950997039704580827e+00
1.908808252204962308e+00
1.908808252204962308e+00
1.980247932370982955e+00
1.980247932370982955e+00
2.107376812036500180e+00
2.107376812036500180e+00
2.113752006591998356e+00
2.113752006591998356e+00
2.012686422315133949e+00
2.012686422315133949e+00
1.967497543259987047e+00
1.967497543259987047e+00
1.967497543259987047e+00
2.180504043702505612e+00
2.180504043702505612e+00
2.470575395977660182e+00
2.470575395977660182e+00
2.437949400311288706e+00
2.437949400311288706e+00
2.417511276589251690e+00
2.417511276589251690e+00
2.260006469924008776e+00
2.260006469924008776e+00
2.407198461867122496e+00
2.407198461867122496e+00
2.735145970030823825e+00
2.735145970030823825e+00
2.779022309030426907e+00
2.779022309030426907e+00
2.782209906308175995e+00
2.782209906308175995e+00
2.611767204809717136e+00
2.611767204809717136e+00
2.432324228644673347e+00
2.432324228644673347e+00
2.432324228644673347e+00
2.338571367534409973e+00
2.338571367534409973e+00
2.329008575701162709e+00
2.329008575701162709e+00
2.647205786309396736e+00
2.647205786309396736e+00
2.694082216864528423e+00
2.694082216864528423e+00
2.412823633533738299e+00
2.412823633533738299e+00
2.257756401257362544e+00
2.257756401257362544e+00
2.256818872646260132e+00
2.256818872646260132e+00
2.216130130924405695e+00
2.216130130924405695e+00
2.042687337870418673e+00
2.042687337870418673e+00
2.042687337870418673e+00
1.954934659871212066e+00
1.954934659871212066e+00
2.071750724814600098e+00
2.071750724814600098e+00
2.235443220313119816e+00
2.235443220313119816e+00
2.258881435590685438e+00
2.258881435590685438e+00
2.606517044587542742e+00
2.606517044587542742e+00
2.717145420697653080e+00
2.717145420697653080e+00
2.405135898922696747e+00
2.405135898922696747e+00
2.405135898922696747e+00
2.409261024811548246e+00
2.409261024811548246e+00
2.280257087923826198e+00
2.280257087923826198e+00
2.298632648701437464e+00
2.298632648701437464e+00
2.280069582201605716e+00
2.280069582201605716e+00
1.942559282204657345e+00
1.942559282204657345e+00
1.870932096316415993e+00
1.870932096316415993e+00
2.031812005981628033e+00
2.031812005981628033e+00
2.167941160313730187e+00
2.167941160313730187e+00
2.167941160313730187e+00
2.231880611590930208e+00
2.231880611590930208e+00
2.419198828089236475e+00
2.419198828089236475e+00
2.710582720419934866e+00
2.710582720419934866e+00
2.752208990752891715e+00
2.752208990752891715e+00
2.526264595477157204e+00
2.526264595477157204e+00
2.248193609424115724e+00
2.248193609424115724e+00
2.306507889034699499e+00
2.306507889034699499e+00
2.234693197424237443e+00
2.234693197424237443e+00
2.377947569200720146e+00
2.377947569200720146e+00
2.377947569200720146e+00
2.365384685811944721e+00
2.365384685811944721e+00
2.144877956480605530e+00
2.144877956480605530e+00
2.144502945036164565e+00
2.144502945036164565e+00
2.086001159703360308e+00
2.086001159703360308e+00
2.039499740592669585e+00
2.039499740592669585e+00
2.013061433759574914e+00
2.013061433759574914e+00
2.051687612537003602e+00
2.051687612537003602e+00
2.206567339091158875e+00
2.206567339091158875e+00
2.206567339091158875e+00
2.342133976256599581e+00
2.342133976256599581e+00
2.593766655476546834e+00
2.593766655476546834e+00
2.955652699362163460e+00
2.955652699362163460e+00
3.107907345805231092e+00
3.107907345805231092e+00
2.940277230140079912e+00
2.940277230140079912e+00
2.692957182531205085e+00
2.692957182531205085e+00
2.472450453199865894e+00
2.472450453199865894e+00
2.297882625812555535e+00
2.297882625812555535e+00
2.297882625812555535e+00
2.104376720480972018e+00
2.104376720480972018e+00
1.935996581926938687e+00
1.935996581926938687e+00
2.025811822870570822e+00
2.025811822870570822e+00
2.080375988036744506e+00
2.080375988036744506e+00
2.047937498092593067e+00
2.047937498092593067e+00
2.123689809869686140e+00
2.123689809869686140e+00
2.232068117313150690e+00
2.232068117313150690e+00
2.264131595812860720e+00
2.264131595812860720e+00
2.264131595812860720e+00
2.374947477645191540e+00
2.374947477645191540e+00
2.697832331308938958e+00
2.697832331308938958e+00
2.643080660420545236e+00
2.643080660420545236e+00
2.469262855922116806e+00
2.469262855922116806e+00
2.285507248146000592e+00
2.285507248146000592e+00
2.007623767815180038e+00
2.007623767815180038e+00
2.044749900814844423e+00
2.044749900814844423e+00
1.979872920926541990e+00
1.979872920926541990e+00
1.979872920926541990e+00
2.068188116092410045e+00
2.068188116092410045e+00
2.219130222479934300e+00
2.219130222479934300e+00
2.497763725699636783e+00
2.497763725699636783e+00
2.847274391918698466e+00
2.847274391918698466e+00
2.803773064363536793e+00
2.803773064363536793e+00
2.633705374309518454e+00
2.633705374309518454e+00
2.662768761253700323e+00
2.662768761253700323e+00
2.413011139255958781e+00
2.413011139255958781e+00
2.207317361980041248e+00
2.207317361980041248e+00
2.207317361980041248e+00
2.255881344035157721e+00
2.255881344035157721e+00
2.121064729758598499e+00
2.121064729758598499e+00
1.933746513260292454e+00
1.933746513260292454e+00
1.964309945982238181e+00
1.964309945982238181e+00
2.089563768425550361e+00
2.089563768425550361e+00
2.269944273201696561e+00
2.269944273201696561e+00
2.414698690755943566e+00
2.414698690755943566e+00
2.572578508865627445e+00
2.572578508865627445e+00
2.572578508865627445e+00
2.677956724753563389e+00
2.677956724753563389e+00
2.522139469588305261e+00
2.522139469588305261e+00
2.336508804589983779e+00
2.336508804589983779e+00
2.347759147923215384e+00
2.347759147923215384e+00
2.197942075869014911e+00
2.197942075869014911e+00
2.328633564256721744e+00
2.328633564256721744e+00
2.494013611255226248e+00
2.494013611255226248e+00
2.499263771477401086e+00
2.499263771477401086e+00
2.455949949644459451e+00
2.455949949644459451e+00
2.455949949644459451e+00
2.396885647144993747e+00
2.396885647144993747e+00
2.357134434034241721e+00
2.357134434034241721e+00
2.257568895535142062e+00
2.257568895535142062e+00
2.199442121646778769e+00
2.199442121646778769e+00
2.206942350535599839e+00
2.206942350535599839e+00
2.287194799645985377e+00
2.287194799645985377e+00
2.084501113925596005e+00
2.084501113925596005e+00
2.014186468092898252e+00
2.014186468092898252e+00
2.014186468092898252e+00
1.891932737205114901e+00
1.891932737205114901e+00
1.868119510483107870e+00
1.868119510483107870e+00
2.082438550981169811e+00
2.082438550981169811e+00
2.505076448866237371e+00
2.505076448866237371e+00
2.678144230475783871e+00
2.678144230475783871e+00
2.621892513809625402e+00
2.621892513809625402e+00
2.371947386089663379e+00
2.371947386089663379e+00
2.451637318033387469e+00
2.451637318033387469e+00
2.451637318033387469e+00
2.529827204199346813e+00
2.529827204199346813e+00
2.401573290200506694e+00
2.401573290200506694e+00
2.394823084200567997e+00
2.394823084200567997e+00
2.541265053254798900e+00
2.541265053254798900e+00
2.569578417310098839e+00
2.569578417310098839e+00
2.650205877864925341e+00
2.650205877864925341e+00
2.467950315866573430e+00
2.467950315866573430e+00
2.353759331034272151e+00
2.353759331034272151e+00
2.353759331034272151e+00
2.286069765312662039e+00
2.286069765312662039e+00
2.098751548814355772e+00
2.098751548814355772e+00
2.052437635425885976e+00
2.052437635425885976e+00
2.259631458479567812e+00
2.259631458479567812e+00
2.457637501144443792e+00
2.457637501144443792e+00
2.380947660756248752e+00
2.380947660756248752e+00
2.350946745200964472e+00
2.350946745200964472e+00
2.333321207312235135e+00
2.333321207312235135e+00
2.333321207312235135e+00
2.341758964812158617e+00
2.341758964812158617e+00
2.350196722312082542e+00
2.350196722312082542e+00
2.332008667256691314e+00
2.332008667256691314e+00
2.359009491256446989e+00
2.359009491256446989e+00
2.331071138645588459e+00
2.331071138645588459e+00
2.313445600756859122e+00
2.313445600756859122e+00
2.206754844813379357e+00
2.206754844813379357e+00
2.134190130314035372e+00
2.134190130314035372e+00
2.134190130314035372e+00
2.185379192480239485e+00
2.185379192480239485e+00
2.217817682424390480e+00
2.217817682424390480e+00
2.346071596423230599e+00
2.346071596423230599e+00
2.510514114810632691e+00
2.510514114810632691e+00
2.402135807367168141e+00
2.402135807367168141e+00
2.243130954924161813e+00
2.243130954924161813e+00
2.272381847590563719e+00
2.272381847590563719e+00
2.300882717368083696e+00
2.300882717368083696e+00
2.300882717368083696e+00
2.371759880367442896e+00
2.371759880367442896e+00
2.432136722922452865e+00
2.432136722922452865e+00
2.426136539811395654e+00
2.426136539811395654e+00
2.328633564256721744e+00
2.328633564256721744e+00
2.265069124423963132e+00
2.265069124423963132e+00
2.308195440534684284e+00
2.308195440534684284e+00
2.323195898312326424e+00
2.323195898312326424e+00
2.231693105868709726e+00
2.231693105868709726e+00
2.231693105868709726e+00
2.210879970702230857e+00
2.210879970702230857e+00
2.310070497756889552e+00
2.310070497756889552e+00
2.340258919034394314e+00
2.340258919034394314e+00
2.442262031922361132e+00
2.442262031922361132e+00
2.464950224311044824e+00
2.464950224311044824e+00
2.446199652088991705e+00
2.446199652088991705e+00
2.449012237922299828e+00
2.449012237922299828e+00
2.409073519089327764e+00
2.409073519089327764e+00
2.306507889034699499e+00
2.306507889034699499e+00
2.306507889034699499e+00
2.220817773979919085e+00
2.220817773979919085e+00
2.139440290536210654e+00
2.139440290536210654e+00
2.158940885647145258e+00
2.158940885647145258e+00
2.173003814813684542e+00
2.173003814813684542e+00
2.111876949369793088e+00
2.111876949369793088e+00
2.038187200537125765e+00
2.038187200537125765e+00
2.153690725424969976e+00
2.153690725424969976e+00
2.281007110812707683e+00
2.281007110812707683e+00
2.426886562700277583e+00
2.426886562700277583e+00
2.467012787255470574e+00
2.467012787255470574e+00
2.467012787255470574e+00
2.519139378032776655e+00
2.519139378032776655e+00
2.657706106753745967e+00
2.657706106753745967e+00
2.747708853419599251e+00
2.747708853419599251e+00
2.707770134586626742e+00
2.707770134586626742e+00
2.605954527420880851e+00
2.605954527420880851e+00
2.384697775200659287e+00
2.384697775200659287e+00
2.291882442701498768e+00
2.291882442701498768e+00
2.162503494369335311e+00
2.162503494369335311e+00
2.042499832148198191e+00
2.042499832148198191e+00
2.042499832148198191e+00
2.060500381481368493e+00
2.060500381481368493e+00
2.040249763481551515e+00
2.040249763481551515e+00
2.087501205481124167e+00
2.087501205481124167e+00
2.164566057313760616e+00
2.164566057313760616e+00
2.180504043702505612e+00
2.180504043702505612e+00
2.281194616534928166e+00
2.281194616534928166e+00
2.489325968199713301e+00
2.489325968199713301e+00
2.489325968199713301e+00
2.632580339976195560e+00
2.632580339976195560e+00
2.776959746086001157e+00
2.776959746086001157e+00
2.724458143864253667e+00
2.724458143864253667e+00
2.519514389477218064e+00
2.519514389477218064e+00
2.420886379589221260e+00
2.420886379589221260e+00
2.334258735923337547e+00
2.334258735923337547e+00
2.209754936368907963e+00
2.209754936368907963e+00
2.225130405590991067e+00
2.225130405590991067e+00
2.225130405590991067e+00
2.204504776146733125e+00
2.204504776146733125e+00
2.198879604480116878e+00
2.198879604480116878e+00
2.268256721701712220e+00
2.268256721701712220e+00
2.291694936979278285e+00
2.291694936979278285e+00
2.374197454756310055e+00
2.374197454756310055e+00
2.365197180089724238e+00
2.365197180089724238e+00
2.319070772423474924e+00
2.319070772423474924e+00
2.288694845423749680e+00
2.288694845423749680e+00
2.288694845423749680e+00
2.235068208868678852e+00
2.235068208868678852e+00
2.237693288979766049e+00
2.237693288979766049e+00
2.239380840479750834e+00
2.239380840479750834e+00
2.222505325479903426e+00
2.222505325479903426e+00
2.180504043702505612e+00
2.180504043702505612e+00
2.222692831202123909e+00
2.222692831202123909e+00
2.270694296090578934e+00
2.270694296090578934e+00
2.257381389812921579e+00
2.257381389812921579e+00
2.149565599536118921e+00
2.149565599536118921e+00
2.149565599536118921e+00
2.149940610980559885e+00
2.149940610980559885e+00
2.312508072145756710e+00
2.312508072145756710e+00
2.404948393200476264e+00
2.404948393200476264e+00
2.420886379589221260e+00
2.420886379589221260e+00
2.458762535477767130e+00
2.458762535477767130e+00
2.409073519089327764e+00
2.409073519089327764e+00
2.421636402478102745e+00
2.421636402478102745e+00
2.520826929532761884e+00
2.520826929532761884e+00
2.520826929532761884e+00
2.436636860255744885e+00
2.436636860255744885e+00
2.430636677144688562e+00
2.430636677144688562e+00
2.432324228644673347e+00
2.432324228644673347e+00
2.356384411145359792e+00
2.356384411145359792e+00
2.350009216589862060e+00
2.350009216589862060e+00
2.372134891811884305e+00
2.372134891811884305e+00
2.329946104312265120e+00
2.329946104312265120e+00
2.329946104312265120e+00
2.319820795312356854e+00
2.319820795312356854e+00
2.237880794701986531e+00
2.237880794701986531e+00
2.164191045869319652e+00
2.164191045869319652e+00
2.196817041535691573e+00
2.196817041535691573e+00
2.179379009369182274e+00
2.179379009369182274e+00
2.253631275368511044e+00
2.253631275368511044e+00
2.421448896755882263e+00
2.421448896755882263e+00
2.434949308755760100e+00
2.434949308755760100e+00
2.434949308755760100e+00
2.349634205145421095e+00
2.349634205145421095e+00
2.297882625812555535e+00
2.297882625812555535e+00
2.356759422589800756e+00
2.356759422589800756e+00
2.437761894589068223e+00
2.437761894589068223e+00
2.384885280922879769e+00
2.384885280922879769e+00
2.366134708700827094e+00
2.366134708700827094e+00
2.350759239478743989e+00
2.350759239478743989e+00
2.245381023590808045e+00
2.245381023590808045e+00
2.157815851313821920e+00
2.157815851313821920e+00
2.135315164647358710e+00
2.135315164647358710e+00
2.175816400646992221e+00
2.175816400646992221e+00
2.175816400646992221e+00
2.231505600146489243e+00
2.231505600146489243e+00
2.320570818201239227e+00
2.320570818201239227e+00
2.403635853144932444e+00
2.403635853144932444e+00
2.481825739310891787e+00
2.481825739310891787e+00
2.451074800866725578e+00
2.451074800866725578e+00
2.469450361644337288e+00
2.469450361644337288e+00
2.456699972533341381e+00
2.456699972533341381e+00
2.364447157200842309e+00
2.364447157200842309e+00
2.364447157200842309e+00
2.320383312479018745e+00
2.320383312479018745e+00
2.306882900479140464e+00
2.306882900479140464e+00
2.231505600146489243e+00
2.231505600146489243e+00
2.228318002868740155e+00
2.228318002868740155e+00
2.176003906369212704e+00
2.176003906369212704e+00
2.199629627368999252e+00
2.199629627368999252e+00
2.293194982757042144e+00
2.293194982757042144e+00
2.294320017090365038e+00
2.294320017090365038e+00
2.294320017090365038e+00
2.377385052034058699e+00
2.377385052034058699e+00
2.391822992645039392e+00
2.391822992645039392e+00
2.275944456312753772e+00
2.275944456312753772e+00
2.329008575701162709e+00
2.329008575701162709e+00
2.345696584978789634e+00
2.345696584978789634e+00
2.239943357646412725e+00
2.239943357646412725e+00
2.268069215979491737e+00
2.268069215979491737e+00
2.185941709646900932e+00
2.185941709646900932e+00
2.185941709646900932e+00
2.111689443647572162e+00
2.111689443647572162e+00
2.092001342814417075e+00
2.092001342814417075e+00
2.114127018036439321e+00
2.114127018036439321e+00
2.216880153813287624e+00
2.216880153813287624e+00
2.329383587145603673e+00
2.329383587145603673e+00
2.392198004089480357e+00
2.392198004089480357e+00
2.470012878810998735e+00
2.470012878810998735e+00
2.578578691976683768e+00
2.578578691976683768e+00
2.578578691976683768e+00
2.653955992309335876e+00
2.653955992309335876e+00
2.668018921475875160e+00
2.668018921475875160e+00
2.544077639088107023e+00
2.544077639088107023e+00
2.376635029145176325e+00
2.376635029145176325e+00
2.334821253089998994e+00
2.334821253089998994e+00
2.315320657979064389e+00
2.315320657979064389e+00
2.361072054200873183e+00
2.361072054200873183e+00
2.366509720145268059e+00
2.366509720145268059e+00
2.366509720145268059e+00
2.219505233924375265e+00
2.219505233924375265e+00
2.105314249092073986e+00
2.105314249092073986e+00
2.099501571703238145e+00
2.099501571703238145e+00
2.164003540147099169e+00
2.164003540147099169e+00
2.267881710257271255e+00
2.267881710257271255e+00
2.341758964812158617e+00
2.341758964812158617e+00
2.415073702200384531e+00
2.415073702200384531e+00
2.472637958922086376e+00
2.472637958922086376e+00
2.472637958922086376e+00
2.479575670644245999e+00
2.479575670644245999e+00
2.449949766533402684e+00
2.449949766533402684e+00
2.392573015533921321e+00
2.392573015533921321e+00
2.273881893368328022e+00
2.273881893368328022e+00
2.261694021423993561e+00
2.261694021423993561e+00
2.233943174535355514e+00
2.233943174535355514e+00
2.181816583758049433e+00
2.181816583758049433e+00
2.195879512924588717e+00
2.195879512924588717e+00
2.213692556535538980e+00
2.213692556535538980e+00
2.213692556535538980e+00
2.290194891201513983e+00
2.290194891201513983e+00
2.379822626422925413e+00
2.379822626422925413e+00
2.359947019867549844e+00
2.359947019867549844e+00
2.371947386089663379e+00
2.371947386089663379e+00
2.416573747978148834e+00
2.416573747978148834e+00
2.447324686422315043e+00
2.447324686422315043e+00
2.412636127811517817e+00
2.412636127811517817e+00
2.412636127811517817e+00
2.374759971922971058e+00
2.374759971922971058e+00
2.238630817590868904e+00
2.238630817590868904e+00
2.148815576647236547e+00
2.148815576647236547e+00
2.188566789757988129e+00
2.188566789757988129e+00
2.310258003479110034e+00
2.310258003479110034e+00
2.355446882534256936e+00
2.355446882534256936e+00
2.293194982757042144e+00
2.293194982757042144e+00
2.200379650257881181e+00
2.200379650257881181e+00
2.200379650257881181e+00
2.308007934812463802e+00
2.308007934812463802e+00
2.399698232978301426e+00
2.399698232978301426e+00
2.557015533921323414e+00
2.557015533921323414e+00
2.587766472365489623e+00
2.587766472365489623e+00
2.481825739310891787e+00
2.481825739310891787e+00
2.477138096255378841e+00
2.477138096255378841e+00
2.361447065645314147e+00
2.361447065645314147e+00
2.268631733146153184e+00
2.268631733146153184e+00
2.225130405590991067e+00
2.225130405590991067e+00
2.164003540147099169e+00
2.164003540147099169e+00
2.158190862758262885e+00
2.158190862758262885e+00
2.184629169591357556e+00
2.184629169591357556e+00
2.202629718924527857e+00
2.202629718924527857e+00
2.298257637256996500e+00
2.298257637256996500e+00
2.298257637256996500e+00
2.341758964812158617e+00
2.341758964812158617e+00
2.352634296700948813e+00
2.352634296700948813e+00
2.418073793755913137e+00
2.418073793755913137e+00
2.403260841700491479e+00
2.403260841700491479e+00
2.395385601367229444e+00
2.395385601367229444e+00
2.433824274422437206e+00
2.433824274422437206e+00
2.329196081423383191e+00
2.329196081423383191e+00
2.248193609424115724e+00
2.248193609424115724e+00
2.213692556535538980e+00
2.213692556535538980e+00
2.213692556535538980e+00
2.179379009369182274e+00
2.179379009369182274e+00
2.192504409924619146e+00
2.192504409924619146e+00
2.207692373424482213e+00
2.207692373424482213e+00
2.263006561479537382e+00
2.263006561479537382e+00
2.338571367534409973e+00
2.338571367534409973e+00
2.366322214423047576e+00
2.366322214423047576e+00
2.422198919644764192e+00
2.422198919644764192e+00
2.439074434644612044e+00
2.439074434644612044e+00
2.439074434644612044e+00
2.369322305978576182e+00
2.369322305978576182e+00
2.320008301034577336e+00
2.320008301034577336e+00
2.349821710867641578e+00
2.349821710867641578e+00
2.314383129367961978e+00
2.314383129367961978e+00
2.288132328257088233e+00
2.288132328257088233e+00
2.237318277535325084e+00
2.237318277535325084e+00
2.196067018646809643e+00
2.196067018646809643e+00
2.192879421369060555e+00
2.192879421369060555e+00
2.192879421369060555e+00
2.146565507980590315e+00
2.146565507980590315e+00
2.224005371257667729e+00
2.224005371257667729e+00
2.372322397534104788e+00
2.372322397534104788e+00
2.486888393810846587e+00
2.486888393810846587e+00
2.579328714865566141e+00
2.579328714865566141e+00
2.515951780755027567e+00
2.515951780755027567e+00
2.408698507644886799e+00
2.408698507644886799e+00
2.424073976866969904e+00
2.424073976866969904e+00
2.424073976866969904e+00
2.359759514145329362e+00
2.359759514145329362e+00
2.303132786034730373e+00
2.303132786034730373e+00
2.273881893368328022e+00
2.273881893368328022e+00
2.199629627368999252e+00
2.199629627368999252e+00
2.187816766869105756e+00
2.187816766869105756e+00
2.221755302591021497e+00
2.221755302591021497e+00
2.244631000701926116e+00
2.244631000701926116e+00
2.313258095034638639e+00
2.313258095034638639e+00
2.366322214423047576e+00
2.366322214423047576e+00
2.387697866756187448e+00
2.387697866756187448e+00
2.387697866756187448e+00
2.462325144199957183e+00
2.462325144199957183e+00
2.456324961088900860e+00
2.456324961088900860e+00
2.392385509811700839e+00
2.392385509811700839e+00
2.389010406811731269e+00
2.389010406811731269e+00
2.288132328257088233e+00
2.288132328257088233e+00
2.236755760368663637e+00
2.236755760368663637e+00
2.209004913480026033e+00
2.209004913480026033e+00
2.166816125980407293e+00
2.166816125980407293e+00
2.166816125980407293e+00
2.203754753257850751e+00
2.203754753257850751e+00
2.231130588702047834e+00
2.231130588702047834e+00
2.275756950590533290e+00
2.275756950590533290e+00
2.333508713034455617e+00
2.333508713034455617e+00
2.360322031311990809e+00
2.360322031311990809e+00
2.372697408978545752e+00
2.372697408978545752e+00
2.422386425366985119e+00
2.422386425366985119e+00
2.397823175756096159e+00
2.397823175756096159e+00
2.397823175756096159e+00
2.410198553422650658e+00
2.410198553422650658e+00
2.416386242255928352e+00
2.416386242255928352e+00
2.314195623645741495e+00
2.314195623645741495e+00
2.303320291756950855e+00
2.303320291756950855e+00
2.271069307535019899e+00
2.271069307535019899e+00
2.201692190313425002e+00
2.201692190313425002e+00
2.235818231757560781e+00
2.235818231757560781e+00
2.260943998535111632e+00
2.260943998535111632e+00
2.260943998535111632e+00
2.287944822534867306e+00
2.287944822534867306e+00
2.347946653645436310e+00
2.347946653645436310e+00
2.358259468367565059e+00
2.358259468367565059e+00
2.408698507644886799e+00
2.408698507644886799e+00
2.425949034089175171e+00
2.425949034089175171e+00
2.390322946867275089e+00
2.390322946867275089e+00
2.412073610644855925e+00
2.412073610644855925e+00
2.375697500534073914e+00
2.375697500534073914e+00
2.278007019257179522e+00
2.278007019257179522e+00
2.278007019257179522e+00
2.264694112979522167e+00
2.264694112979522167e+00
2.207317361980041248e+00
2.207317361980041248e+00
2.229443037202063049e+00
2.229443037202063049e+00
2.282882168034912951e+00
2.282882168034912951e+00
2.257943906979583026e+00
2.257943906979583026e+00
2.290382396923734465e+00
2.290382396923734465e+00
2.349071687978759204e+00
2.349071687978759204e+00
2.364822168645283273e+00
2.364822168645283273e+00
2.426511551255836618e+00
2.426511551255836618e+00
2.426511551255836618e+00
2.423323953978087530e+00
2.423323953978087530e+00
2.382822717978454019e+00
2.382822717978454019e+00
2.410386059144871140e+00
2.410386059144871140e+00
2.336508804589983779e+00
2.336508804589983779e+00
2.275194433423871843e+00
2.275194433423871843e+00
2.253256263924070080e+00
2.253256263924070080e+00
2.199817133091219734e+00
2.199817133091219734e+00
2.192129398480178182e+00
2.192129398480178182e+00
2.192129398480178182e+00
2.237505783257545566e+00
2.237505783257545566e+00
2.260193975646229259e+00
2.260193975646229259e+00
2.332008667256691314e+00
2.332008667256691314e+00
2.387135349589526001e+00
2.387135349589526001e+00
2.401385784478286212e+00
2.401385784478286212e+00
2.444699606311227846e+00
2.444699606311227846e+00
2.399510727256080500e+00
2.399510727256080500e+00
2.361259559923093665e+00
2.361259559923093665e+00
2.361259559923093665e+00
2.390697958311716054e+00
2.390697958311716054e+00
2.290757408368175430e+00
2.290757408368175430e+00
2.245756035035248566e+00
2.245756035035248566e+00
2.240130863368633207e+00
2.240130863368633207e+00
2.206379833368938392e+00
2.206379833368938392e+00
2.225505417035432032e+00
2.225505417035432032e+00
2.261694021423993561e+00
2.261694021423993561e+00
2.290569902645954947e+00
2.290569902645954947e+00
2.290569902645954947e+00
2.349446699423200169e+00
2.349446699423200169e+00
2.365759697256386129e+00
2.365759697256386129e+00
2.390510452589495571e+00
2.390510452589495571e+00
2.411136082033753514e+00
2.411136082033753514e+00
2.385635303811762142e+00
2.385635303811762142e+00
2.406448438978240567e+00
2.406448438978240567e+00
2.384697775200659287e+00
2.384697775200659287e+00
2.289069856868190644e+00
2.289069856868190644e+00
2.289069856868190644e+00
2.263006561479537382e+00
2.263006561479537382e+00
2.206379833368938392e+00
2.206379833368938392e+00
2.163441022980437278e+00
2.163441022980437278e+00
2.206379833368938392e+00
2.206379833368938392e+00
2.223255348368785356e+00
2.223255348368785356e+00
2.278569536423841413e+00
2.278569536423841413e+00
2.351884273812066883e+00
2.351884273812066883e+00
2.355259376812036454e+00
2.355259376812036454e+00
2.388822901089510786e+00
2.388822901089510786e+00
2.388822901089510786e+00
2.419573839533677440e+00
2.419573839533677440e+00
2.393885555589465142e+00
2.393885555589465142e+00
2.421448896755882263e+00
2.421448896755882263e+00
2.349634205145421095e+00
2.349634205145421095e+00
2.259256447035126847e+00
2.259256447035126847e+00
2.256068849757378203e+00
2.256068849757378203e+00
2.202067201757865966e+00
2.202067201757865966e+00
2.166253608813745402e+00
2.166253608813745402e+00
2.166253608813745402e+00
2.205629810480056463e+00
2.205629810480056463e+00
2.253068758201849597e+00
2.253068758201849597e+00
2.324883449812311209e+00
2.324883449812311209e+00
2.378135074922940628e+00
2.378135074922940628e+00
2.384510269478438804e+00
2.384510269478438804e+00
2.446762169255653596e+00
2.446762169255653596e+00
2.446949674977874079e+00
2.446949674977874079e+00
2.400823267311624321e+00
2.400823267311624321e+00
2.427449079866939474e+00
2.427449079866939474e+00
2.427449079866939474e+00
2.338758873256630455e+00
2.338758873256630455e+00
2.280819605090487201e+00
2.280819605090487201e+00
2.258881435590685438e+00
2.258881435590685438e+00
2.209942442091128445e+00
2.209942442091128445e+00
2.208254890591143660e+00
2.208254890591143660e+00
2.233005645924253102e+00
2.233005645924253102e+00
2.251568712424085295e+00
2.251568712424085295e+00
2.316258186590166801e+00
2.316258186590166801e+00
2.316258186590166801e+00
2.324508438367870244e+00
2.324508438367870244e+00
2.366322214423047576e+00
2.366322214423047576e+00
2.419573839533677440e+00
2.419573839533677440e+00
2.388447889645069822e+00
2.388447889645069822e+00
2.390697958311716054e+00
2.390697958311716054e+00
2.396885647144993747e+00
2.396885647144993747e+00
2.296007568590349823e+00
2.296007568590349823e+00
2.245006012146367080e+00
2.245006012146367080e+00
2.209942442091128445e+00
2.209942442091128445e+00
2.165691091647083955e+00
2.165691091647083955e+00
2.183504135258034218e+00
2.183504135258034218e+00
2.197379558702353020e+00
2.197379558702353020e+00
2.240318369090853690e+00
2.240318369090853690e+00
2.240318369090853690e+00
2.324695944090090727e+00
2.324695944090090727e+00
2.361822077089755112e+00
2.361822077089755112e+00
2.416198736533707869e+00
2.416198736533707869e+00
2.445637134922330258e+00
2.445637134922330258e+00
2.406073427533799602e+00
2.406073427533799602e+00
2.430636677144688562e+00
2.430636677144688562e+00
2.384885280922879769e+00
2.384885280922879769e+00
2.292069948423719250e+00
2.292069948423719250e+00
2.292069948423719250e+00
2.271631824701681346e+00
2.271631824701681346e+00
2.215942625202185212e+00
2.215942625202185212e+00
2.186316721091342341e+00
2.186316721091342341e+00
2.217255165257729033e+00
2.217255165257729033e+00
2.231693105868709726e+00
2.231693105868709726e+00
2.283444685201574842e+00
2.283444685201574842e+00
2.333321207312235135e+00
2.333321207312235135e+00
2.353946836756492633e+00
2.353946836756492633e+00
2.353946836756492633e+00
2.413198644978179264e+00
2.413198644978179264e+00
2.420511368144779851e+00
2.420511368144779851e+00
2.374572466200750576e+00
2.374572466200750576e+00
2.405135898922696747e+00
2.405135898922696747e+00
2.341383953367717208e+00
2.341383953367717208e+00
2.269006744590594149e+00
2.269006744590594149e+00
2.233380657368694511e+00
2.233380657368694511e+00
2.173191320535905025e+00
2.173191320535905025e+00
2.173191320535905025e+00
2.185191686758019003e+00
2.185191686758019003e+00
2.225317911313211550e+00
2.225317911313211550e+00
2.245193517868587563e+00
2.245193517868587563e+00
2.298070131534776017e+00
2.298070131534776017e+00
2.337446333201086635e+00
2.337446333201086635e+00
2.348321665089877275e+00
2.348321665089877275e+00
2.415073702200384531e+00
2.415073702200384531e+00
2.396135624256111374e+00
2.396135624256111374e+00
2.396135624256111374e+00
2.383197729422894984e+00
2.383197729422894984e+00
2.410011047700430176e+00
2.410011047700430176e+00
2.318695760979033516e+00
2.318695760979033516e+00
2.264881618701742649e+00
2.264881618701742649e+00
2.232068117313150690e+00
2.232068117313150690e+00
2.190441846980193397e+00
2.190441846980193397e+00
2.209567430646687480e+00
2.209567430646687480e+00
2.240505874813074172e+00
2.240505874813074172e+00
2.269569261757255596e+00
2.269569261757255596e+00
2.324133426923429280e+00
2.324133426923429280e+00
2.324133426923429280e+00
2.353009308145390222e+00
2.353009308145390222e+00
2.394635578478347071e+00
2.394635578478347071e+00
2.432511734366893830e+00
2.432511734366893830e+00
2.398385692922757606e+00
2.398385692922757606e+00
2.397260658589434712e+00
2.397260658589434712e+00
2.388822901089510786e+00
2.388822901089510786e+00
2.283819696646015807e+00
2.283819696646015807e+00
2.283819696646015807e+00
2.249318643757439062e+00
2.249318643757439062e+00
2.203942258980071234e+00
2.203942258980071234e+00
2.172441297647023095e+00
2.172441297647023095e+00
2.202442213202307375e+00
2.202442213202307375e+00
2.214630085146641392e+00
2.214630085146641392e+00
2.261694021423993561e+00
2.261694021423993561e+00
2.325258461256752618e+00
2.325258461256752618e+00
2.341383953367717208e+00
2.341383953367717208e+00
2.341383953367717208e+00
2.401198278756065729e+00
2.401198278756065729e+00
2.418073793755913137e+00
2.418073793755913137e+00
2.382822717978454019e+00
2.382822717978454019e+00
2.413386150700399746e+00
2.413386150700399746e+00
2.369134800256355700e+00
2.369134800256355700e+00
2.294320017090365038e+00
2.294320017090365038e+00
2.272756859035004684e+00
2.272756859035004684e+00
2.220067751091036712e+00
2.220067751091036712e+00
2.220067751091036712e+00
2.209567430646687480e+00
2.209567430646687480e+00
2.230943082979827352e+00
2.230943082979827352e+00
2.240318369090853690e+00
2.240318369090853690e+00
2.300320200201422249e+00
2.300320200201422249e+00
2.353009308145390222e+00
2.353009308145390222e+00
2.369134800256355700e+00
2.369134800256355700e+00
2.428574114200262368e+00
2.428574114200262368e+00
2.415448713644825496e+00
2.415448713644825496e+00
2.371197363200781449e+00
2.371197363200781449e+00
2.371197363200781449e+00
2.405135898922696747e+00
2.405135898922696747e+00
2.320945829645680192e+00
2.320945829645680192e+00
2.250256172368541474e+00
2.250256172368541474e+00
2.225130405590991067e+00
2.225130405590991067e+00
2.185004181035798521e+00
2.185004181035798521e+00
2.189129306924649576e+00
2.189129306924649576e+00
2.228693014313181120e+00
2.228693014313181120e+00
2.257943906979583026e+00
2.257943906979583026e+00
2.257943906979583026e+00
2.319633289590136371e+00
2.319633289590136371e+00
2.353759331034272151e+00
2.353759331034272151e+00
2.388635395367290304e+00
2.388635395367290304e+00
2.432511734366893830e+00
2.432511734366893830e+00
2.400260750144962874e+00
2.400260750144962874e+00
2.382635212256233537e+00
2.382635212256233537e+00
2.391635486922818910e+00
2.391635486922818910e+00
2.294695028534806447e+00
2.294695028534806447e+00
2.251568712424085295e+00
2.251568712424085295e+00
2.251568712424085295e+00
2.217817682424390480e+00
2.217817682424390480e+00
2.175253883480330774e+00
2.175253883480330774e+00
2.196254524369030126e+00
2.196254524369030126e+00
2.227005462813196335e+00
2.227005462813196335e+00
2.265069124423963132e+00
2.265069124423963132e+00
2.330321115756706529e+00
2.330321115756706529e+00
2.350946745200964472e+00
2.350946745200964472e+00
2.391822992645039392e+00
2.391822992645039392e+00
2.391822992645039392e+00
2.422198919644764192e+00
2.422198919644764192e+00
2.385822809533982625e+00
2.385822809533982625e+00
2.404760887478255782e+00
2.404760887478255782e+00
2.382822717978454019e+00
2.382822717978454019e+00
2.289444868312631609e+00
2.289444868312631609e+00
2.256256355479598685e+00
2.256256355479598685e+00
2.204879787591174090e+00
2.204879787591174090e+00
2.182754112369151844e+00
2.182754112369151844e+00
2.182754112369151844e+00
2.215942625202185212e+00
2.215942625202185212e+00
2.230943082979827352e+00
2.230943082979827352e+00
2.285882259590441556e+00
2.285882259590441556e+00
2.337821344645527599e+00
2.337821344645527599e+00
2.351884273812066883e+00
2.351884273812066883e+00
2.403823358867152926e+00
2.403823358867152926e+00
2.402698324533829588e+00
2.402698324533829588e+00
2.365197180089724238e+00
2.365197180089724238e+00
2.365197180089724238e+00
2.402135807367168141e+00
2.402135807367168141e+00
2.340071413312173831e+00
2.340071413312173831e+00
2.265069124423963132e+00
2.265069124423963132e+00
2.238818323313089387e+00
2.238818323313089387e+00
2.189129306924649576e+00
2.189129306924649576e+00
2.178628986480300345e+00
2.178628986480300345e+00
2.220630268257698603e+00
2.220630268257698603e+00
2.247631092257453833e+00
2.247631092257453833e+00
2.313820612201300086e+00
2.313820612201300086e+00
2.350196722312082542e+00
2.350196722312082542e+00
2.350196722312082542e+00
2.370259834589678594e+00
2.370259834589678594e+00
2.426699056978057101e+00
2.426699056978057101e+00
2.411698599200414961e+00
2.411698599200414961e+00
2.382822717978454019e+00
2.382822717978454019e+00
2.399885738700521909e+00
2.399885738700521909e+00
2.309507980590228104e+00
2.309507980590228104e+00
2.253256263924070080e+00
2.253256263924070080e+00
2.225317911313211550e+00
2.225317911313211550e+00
2.191566881313516735e+00
2.191566881313516735e+00
2.191566881313516735e+00
2.200754661702322146e+00
2.200754661702322146e+00
2.230943082979827352e+00
2.230943082979827352e+00
2.251381206701864812e+00
2.251381206701864812e+00
2.316070680867946319e+00
2.316070680867946319e+00
2.349634205145421095e+00
2.349634205145421095e+00
2.387885372478407930e+00
2.387885372478407930e+00
2.422573931089205601e+00
2.422573931089205601e+00
2.384135258033997840e+00
2.384135258033997840e+00
2.384135258033997840e+00
2.392198004089480357e+00
2.392198004089480357e+00
2.388635395367290304e+00
2.388635395367290304e+00
2.295820062868129341e+00
2.295820062868129341e+00
2.262256538590655452e+00
2.262256538590655452e+00
2.215380108035523765e+00
2.215380108035523765e+00
2.178441480758079862e+00
2.178441480758079862e+00
2.192504409924619146e+00
2.192504409924619146e+00
2.210879970702230857e+00
2.210879970702230857e+00
2.210879970702230857e+00
2.271444318979460864e+00
2.271444318979460864e+00
2.338946378978850937e+00
2.338946378978850937e+00
2.354134342478713116e+00
2.354134342478713116e+00
2.412636127811517817e+00
2.412636127811517817e+00
2.423323953978087530e+00
2.423323953978087530e+00
2.368384777367473326e+00
2.368384777367473326e+00
2.397448164311655194e+00
2.397448164311655194e+00
2.350759239478743989e+00
2.350759239478743989e+00
2.276506973479415219e+00
2.276506973479415219e+00
2.276506973479415219e+00
2.248943632312997654e+00
2.248943632312997654e+00
2.201879696035645484e+00
2.201879696035645484e+00
2.185191686758019003e+00
2.185191686758019003e+00
2.216130130924405695e+00
2.216130130924405695e+00
2.238818323313089387e+00
2.238818323313089387e+00
2.301257728812525105e+00
2.301257728812525105e+00
2.344196539201025331e+00
2.344196539201025331e+00
2.365197180089724238e+00
2.365197180089724238e+00
2.365197180089724238e+00
2.418636310922574584e+00
2.418636310922574584e+00
2.414511185033723084e+00
2.414511185033723084e+00
2.387135349589526001e+00
2.387135349589526001e+00
2.410761070589312105e+00
2.410761070589312105e+00
2.325070955534531691e+00
2.325070955534531691e+00
2.264131595812860720e+00
2.264131595812860720e+00
2.233193151646474028e+00
2.233193151646474028e+00
2.190816858424634361e+00
2.190816858424634361e+00
2.190816858424634361e+00
2.191191869869075770e+00
2.191191869869075770e+00
2.223630359813226764e+00
2.223630359813226764e+00
2.251381206701864812e+00
2.251381206701864812e+00
2.320945829645680192e+00
2.320945829645680192e+00
2.354509353923154524e+00
2.354509353923154524e+00
2.382635212256233537e+00
2.382635212256233537e+00
2.426324045533616136e+00
2.426324045533616136e+00
2.396510635700552783e+00
2.396510635700552783e+00
2.396510635700552783e+00
2.385447798089541660e+00
2.385447798089541660e+00
2.406260933256020085e+00
2.406260933256020085e+00
2.309695486312448587e+00
2.309695486312448587e+00
2.250068666646320992e+00
2.250068666646320992e+00
2.218567705313272853e+00
2.218567705313272853e+00
2.182379100924710880e+00
2.182379100924710880e+00
2.206567339091158875e+00
2.206567339091158875e+00
2.228505508590960638e+00
2.228505508590960638e+00
2.228505508590960638e+00
2.274444410534989469e+00
2.274444410534989469e+00
2.331071138645588459e+00
2.331071138645588459e+00
2.353946836756492633e+00
2.353946836756492633e+00
2.383385235145115466e+00
2.383385235145115466e+00
2.412636127811517817e+00
2.412636127811517817e+00
2.380947660756248752e+00
2.380947660756248752e+00
2.397448164311655194e+00
2.397448164311655194e+00
2.374384960478530537e+00
2.374384960478530537e+00
2.374384960478530537e+00
2.279319559312723342e+00
2.279319559312723342e+00
2.259631458479567812e+00
2.259631458479567812e+00
2.215567613757744247e+00
2.215567613757744247e+00
2.196254524369030126e+00
2.196254524369030126e+00
2.227005462813196335e+00
2.227005462813196335e+00
2.235255714590899334e+00
2.235255714590899334e+00
2.291132419812616394e+00
2.291132419812616394e+00
2.346634113589892490e+00
2.346634113589892490e+00
2.399698232978301426e+00
2.399698232978301426e+00
2.434011780144657688e+00
2.434011780144657688e+00
2.434011780144657688e+00
2.403073335978270997e+00
2.403073335978270997e+00
2.362572099978637485e+00
2.362572099978637485e+00
2.397823175756096159e+00
2.397823175756096159e+00
2.334258735923337547e+00
2.334258735923337547e+00
2.259256447035126847e+00
2.259256447035126847e+00
2.248193609424115724e+00
2.248193609424115724e+00
2.188941801202429094e+00
2.188941801202429094e+00
2.185754203924680450e+00
2.185754203924680450e+00
2.185754203924680450e+00
2.221567796868801015e+00
2.221567796868801015e+00
2.243693472090823260e+00
2.243693472090823260e+00
2.304632831812494231e+00
2.304632831812494231e+00
2.346259102145451525e+00
2.346259102145451525e+00
2.371384868923001932e+00
2.371384868923001932e+00
2.421636402478102745e+00
2.421636402478102745e+00
2.397073152867214230e+00
2.397073152867214230e+00
2.375885006256294396e+00
2.375885006256294396e+00
2.407948484756004870e+00
2.407948484756004870e+00
2.407948484756004870e+00
2.322258369701224012e+00
2.322258369701224012e+00
2.262256538590655452e+00
2.262256538590655452e+00
2.232068117313150690e+00
2.232068117313150690e+00
2.185941709646900932e+00
2.185941709646900932e+00
2.197192052980132537e+00
2.197192052980132537e+00
2.228130497146519229e+00
2.228130497146519229e+00
2.260193975646229259e+00
2.260193975646229259e+00
2.326946012756737403e+00
2.326946012756737403e+00
2.326946012756737403e+00
2.349259193700979687e+00
2.349259193700979687e+00
2.375697500534073914e+00
2.375697500534073914e+00
2.417698782311472172e+00
2.417698782311472172e+00
2.385447798089541660e+00
2.385447798089541660e+00
2.393323038422803695e+00
2.393323038422803695e+00
2.386385326700643628e+00
2.386385326700643628e+00
