2.357321939756462204e+00
2.390135441145054607e+00
2.390135441145054607e+00
2.390135441145054607e+00
2.326758507034516477e+00
2.326758507034516477e+00
2.326758507034516477e+00
2.259256447035126847e+00
2.259256447035126847e+00
2.259256447035126847e+00
2.259256447035126847e+00
2.239380840479750834e+00
2.239380840479750834e+00
2.239380840479750834e+00
2.193066927091281038e+00
2.193066927091281038e+00
2.193066927091281038e+00
2.196067018646809643e+00
2.196067018646809643e+00
2.196067018646809643e+00
2.196067018646809643e+00
2.241255897701956545e+00
2.241255897701956545e+00
2.241255897701956545e+00
2.256068849757378203e+00
2.256068849757378203e+00
2.256068849757378203e+00
2.313258095034638639e+00
2.313258095034638639e+00
2.313258095034638639e+00
2.313258095034638639e+00
2.359572008423108880e+00
2.359572008423108880e+00
2.359572008423108880e+00
2.386385326700643628e+00
2.386385326700643628e+00
2.386385326700643628e+00
2.431011688589129527e+00
2.431011688589129527e+00
2.431011688589129527e+00
2.431011688589129527e+00
2.404760887478255782e+00
2.404760887478255782e+00
2.404760887478255782e+00
2.375322489089632505e+00
2.375322489089632505e+00
2.375322489089632505e+00
2.397260658589434712e+00
2.397260658589434712e+00
2.397260658589434712e+00
2.397260658589434712e+00
2.299195165868098911e+00
2.299195165868098911e+00
2.299195165868098911e+00
2.253631275368511044e+00
2.253631275368511044e+00
2.253631275368511044e+00
2.224005371257667729e+00
2.224005371257667729e+00
2.224005371257667729e+00
2.224005371257667729e+00
2.180879055146946577e+00
2.180879055146946577e+00
2.180879055146946577e+00
2.195504501480147752e+00
2.195504501480147752e+00
2.195504501480147752e+00
2.213317545091097571e+00
2.213317545091097571e+00
2.213317545091097571e+00
2.213317545091097571e+00
2.244631000701926116e+00
2.244631000701926116e+00
2.244631000701926116e+00
2.304257820368053267e+00
2.304257820368053267e+00
2.304257820368053267e+00
2.331821161534470832e+00
2.331821161534470832e+00
2.331821161534470832e+00
2.331821161534470832e+00
2.370634846034120002e+00
2.370634846034120002e+00
2.370634846034120002e+00
2.414886196478164049e+00
2.414886196478164049e+00
2.414886196478164049e+00
2.414886196478164049e+00
2.379822626422925413e+00
2.379822626422925413e+00
2.385072786645100695e+00
2.385072786645100695e+00
2.385072786645100695e+00
2.370259834589678594e+00
2.370259834589678594e+00
2.370259834589678594e+00
2.284007202368236289e+00
2.284007202368236289e+00
2.284007202368236289e+00
2.284007202368236289e+00
2.263569078646198829e+00
2.263569078646198829e+00
2.263569078646198829e+00
2.221380291146580532e+00
2.221380291146580532e+00
2.221380291146580532e+00
2.182004089480269915e+00
2.182004089480269915e+00
2.182004089480269915e+00
2.182004089480269915e+00
2.210692464980010374e+00
2.210692464980010374e+00
2.210692464980010374e+00
2.232068117313150690e+00
2.232068117313150690e+00
2.232068117313150690e+00
2.280632099368266719e+00
2.280632099368266719e+00
2.280632099368266719e+00
2.280632099368266719e+00
2.342696493423261028e+00
2.342696493423261028e+00
2.342696493423261028e+00
2.354321848200934042e+00
2.354321848200934042e+00
2.354321848200934042e+00
2.401385784478286212e+00
2.401385784478286212e+00
2.401385784478286212e+00
2.401385784478286212e+00
2.405885921811578676e+00
2.405885921811578676e+00
2.405885921811578676e+00
2.364822168645283273e+00
2.364822168645283273e+00
2.364822168645283273e+00
2.390510452589495571e+00
2.390510452589495571e+00
2.390510452589495571e+00
2.341571459089938134e+00
2.341571459089938134e+00
2.341571459089938134e+00
2.341571459089938134e+00
2.265444135868404540e+00
2.265444135868404540e+00
2.265444135868404540e+00
2.245381023590808045e+00
2.245381023590808045e+00
2.245381023590808045e+00
2.186504226813562823e+00
2.186504226813562823e+00
2.186504226813562823e+00
2.181441572313608468e+00
2.181441572313608468e+00
2.181441572313608468e+00
2.181441572313608468e+00
2.200379650257881181e+00
2.200379650257881181e+00
2.200379650257881181e+00
2.212942533646656607e+00
2.212942533646656607e+00
2.212942533646656607e+00
2.305945371868038052e+00
2.305945371868038052e+00
2.305945371868038052e+00
2.305945371868038052e+00
2.344759056367687222e+00
2.344759056367687222e+00
2.344759056367687222e+00
2.366509720145268059e+00
2.366509720145268059e+00
2.366509720145268059e+00
2.422573931089205601e+00
2.422573931089205601e+00
2.422573931089205601e+00
2.422573931089205601e+00
2.411136082033753514e+00
2.411136082033753514e+00
2.411136082033753514e+00
2.377760063478499664e+00
2.377760063478499664e+00
2.377760063478499664e+00
2.409073519089327764e+00
2.409073519089327764e+00
2.409073519089327764e+00
2.409073519089327764e+00
2.328258552812280335e+00
2.328258552812280335e+00
2.328258552812280335e+00
2.265819147312845505e+00
2.265819147312845505e+00
2.265819147312845505e+00
2.238255806146427940e+00
2.238255806146427940e+00
2.238255806146427940e+00
2.238255806146427940e+00
2.189129306924649576e+00
2.189129306924649576e+00
2.189129306924649576e+00
2.194191961424603932e+00
2.194191961424603932e+00
2.194191961424603932e+00
2.225880428479872997e+00
2.225880428479872997e+00
2.225880428479872997e+00
2.225880428479872997e+00
2.248381115146336207e+00
2.248381115146336207e+00
2.248381115146336207e+00
2.307070406201360946e+00
2.307070406201360946e+00
2.307070406201360946e+00
2.335571275978881367e+00
2.335571275978881367e+00
2.335571275978881367e+00
2.335571275978881367e+00
2.363322122867518971e+00
2.363322122867518971e+00
2.363322122867518971e+00
2.410011047700430176e+00
2.410011047700430176e+00
2.410011047700430176e+00
2.374947477645191540e+00
2.374947477645191540e+00
2.374947477645191540e+00
2.374947477645191540e+00
2.363884640034180418e+00
2.363884640034180418e+00
2.363884640034180418e+00
2.380760155034028269e+00
2.380760155034028269e+00
2.380760155034028269e+00
2.302757774590289408e+00
2.302757774590289408e+00
2.302757774590289408e+00
2.302757774590289408e+00
2.269006744590594149e+00
2.269006744590594149e+00
2.269006744590594149e+00
2.224567888424329176e+00
2.224567888424329176e+00
2.224567888424329176e+00
2.224567888424329176e+00
2.193254432813501520e+00
2.193254432813501520e+00
2.193254432813501520e+00
2.224380382702108694e+00
2.224380382702108694e+00
2.224380382702108694e+00
2.234880703146458369e+00
2.234880703146458369e+00
2.234880703146458369e+00
2.234880703146458369e+00
2.262069032868434526e+00
2.262069032868434526e+00
2.262069032868434526e+00
2.322070863979003530e+00
2.322070863979003530e+00
2.322070863979003530e+00
2.337821344645527599e+00
2.337821344645527599e+00
2.337821344645527599e+00
2.337821344645527599e+00
2.390510452589495571e+00
2.390510452589495571e+00
2.390510452589495571e+00
2.417136265144810281e+00
2.417136265144810281e+00
2.417136265144810281e+00
2.378135074922940628e+00
2.378135074922940628e+00
2.378135074922940628e+00
2.378135074922940628e+00
2.393885555589465142e+00
2.393885555589465142e+00
2.393885555589465142e+00
2.370822351756340485e+00
2.370822351756340485e+00
2.370822351756340485e+00
2.286632282479323930e+00
2.286632282479323930e+00
2.286632282479323930e+00
2.286632282479323930e+00
2.257193884090700653e+00
2.257193884090700653e+00
2.257193884090700653e+00
2.204317270424512643e+00
2.204317270424512643e+00
2.204317270424512643e+00
2.182004089480269915e+00
2.182004089480269915e+00
2.182004089480269915e+00
2.182004089480269915e+00
2.215192602313302839e+00
2.215192602313302839e+00
2.215192602313302839e+00
2.221005279702139568e+00
2.221005279702139568e+00
2.221005279702139568e+00
2.270319284646137969e+00
2.270319284646137969e+00
2.270319284646137969e+00
2.270319284646137969e+00
2.330508621478927012e+00
2.330508621478927012e+00
2.330508621478927012e+00
2.343259010589922919e+00
2.343259010589922919e+00
2.343259010589922919e+00
2.402135807367168141e+00
2.402135807367168141e+00
2.402135807367168141e+00
2.402135807367168141e+00
2.405698416089358194e+00
2.405698416089358194e+00
2.405698416089358194e+00
2.371197363200781449e+00
2.371197363200781449e+00
2.371197363200781449e+00
2.407010956144902014e+00
2.407010956144902014e+00
2.407010956144902014e+00
2.407010956144902014e+00
2.345134067812128187e+00
2.345134067812128187e+00
2.345134067812128187e+00
2.269944273201696561e+00
2.269944273201696561e+00
2.269944273201696561e+00
2.243505966368602778e+00
2.243505966368602778e+00
2.243505966368602778e+00
2.243505966368602778e+00
2.188754295480208611e+00
2.188754295480208611e+00
2.188754295480208611e+00
2.181441572313608468e+00
2.181441572313608468e+00
2.181441572313608468e+00
2.212380016479995160e+00
2.212380016479995160e+00
2.212380016479995160e+00
2.212380016479995160e+00
2.240318369090853690e+00
2.240318369090853690e+00
2.240318369090853690e+00
2.301445234534745587e+00
2.301445234534745587e+00
2.301445234534745587e+00
2.301445234534745587e+00
2.339883907589953349e+00
2.339883907589953349e+00
2.339883907589953349e+00
2.358259468367565059e+00
2.358259468367565059e+00
2.358259468367565059e+00
2.410573564867091623e+00
2.410573564867091623e+00
2.410573564867091623e+00
2.410573564867091623e+00
2.395948118533890892e+00
2.395948118533890892e+00
2.395948118533890892e+00
2.373447431867427682e+00
2.373447431867427682e+00
2.373447431867427682e+00
2.405323404644917229e+00
2.405323404644917229e+00
2.405323404644917229e+00
2.405323404644917229e+00
2.322070863979003530e+00
2.322070863979003530e+00
2.322070863979003530e+00
2.267131687368389326e+00
2.267131687368389326e+00
2.267131687368389326e+00
2.234880703146458369e+00
2.234880703146458369e+00
2.234880703146458369e+00
2.234880703146458369e+00
2.185379192480239485e+00
2.185379192480239485e+00
2.185379192480239485e+00
2.197004547257912055e+00
2.197004547257912055e+00
2.197004547257912055e+00
2.222130314035462462e+00
2.222130314035462462e+00
2.222130314035462462e+00
2.222130314035462462e+00
2.260006469924008776e+00
2.260006469924008776e+00
2.260006469924008776e+00
2.328821069978942226e+00
2.328821069978942226e+00
2.328821069978942226e+00
2.352634296700948813e+00
2.352634296700948813e+00
2.352634296700948813e+00
2.352634296700948813e+00
2.387697866756187448e+00
2.387697866756187448e+00
2.387697866756187448e+00
2.426136539811395654e+00
2.426136539811395654e+00
2.426136539811395654e+00
2.387697866756187448e+00
2.387697866756187448e+00
2.387697866756187448e+00
2.387697866756187448e+00
2.392385509811700839e+00
2.392385509811700839e+00
2.392385509811700839e+00
2.385447798089541660e+00
2.385447798089541660e+00
2.385447798089541660e+00
2.283257179479354360e+00
2.283257179479354360e+00
2.283257179479354360e+00
2.252131229590746742e+00
2.252131229590746742e+00
2.252131229590746742e+00
2.252131229590746742e+00
2.205254799035615054e+00
2.205254799035615054e+00
2.205254799035615054e+00
2.174691366313669327e+00
2.174691366313669327e+00
2.174691366313669327e+00
2.200379650257881181e+00
2.200379650257881181e+00
2.200379650257881181e+00
2.200379650257881181e+00
2.211254982146671821e+00
2.211254982146671821e+00
2.211254982146671821e+00
2.260381481368449741e+00
2.260381481368449741e+00
2.260381481368449741e+00
2.327321024201178368e+00
2.327321024201178368e+00
2.327321024201178368e+00
2.327321024201178368e+00
2.360322031311990809e+00
2.360322031311990809e+00
2.360322031311990809e+00
2.399323221533860018e+00
2.399323221533860018e+00
2.399323221533860018e+00
2.405135898922696747e+00
2.405135898922696747e+00
2.405135898922696747e+00
2.405135898922696747e+00
2.364822168645283273e+00
2.364822168645283273e+00
2.364822168645283273e+00
2.397448164311655194e+00
2.397448164311655194e+00
2.397448164311655194e+00
2.397448164311655194e+00
2.358821985534226506e+00
2.358821985534226506e+00
2.358821985534226506e+00
2.279132053590502860e+00
2.279132053590502860e+00
2.279132053590502860e+00
2.263944090090640238e+00
2.263944090090640238e+00
2.263944090090640238e+00
2.263944090090640238e+00
2.211067476424451339e+00
2.211067476424451339e+00
2.211067476424451339e+00
2.200942167424543072e+00
2.200942167424543072e+00
2.200942167424543072e+00
2.234130680257575996e+00
2.234130680257575996e+00
2.234130680257575996e+00
2.234130680257575996e+00
2.240130863368633207e+00
2.240130863368633207e+00
2.240130863368633207e+00
2.291319925534837321e+00
2.291319925534837321e+00
2.291319925534837321e+00
2.335571275978881367e+00
2.335571275978881367e+00
2.335571275978881367e+00
2.335571275978881367e+00
2.348134159367656792e+00
2.348134159367656792e+00
2.348134159367656792e+00
2.398948210089419053e+00
2.398948210089419053e+00
2.398948210089419053e+00
2.390697958311716054e+00
2.390697958311716054e+00
2.390697958311716054e+00
2.390697958311716054e+00
2.361259559923093665e+00
2.361259559923093665e+00
2.361259559923093665e+00
2.398385692922757606e+00
2.398385692922757606e+00
2.398385692922757606e+00
2.314383129367961978e+00
2.314383129367961978e+00
2.314383129367961978e+00
2.314383129367961978e+00
2.252318735312967224e+00
2.252318735312967224e+00
2.252318735312967224e+00
2.233193151646474028e+00
2.233193151646474028e+00
2.233193151646474028e+00
2.190441846980193397e+00
2.190441846980193397e+00
2.190441846980193397e+00
2.190441846980193397e+00
2.196067018646809643e+00
2.196067018646809643e+00
2.196067018646809643e+00
2.226255439924313961e+00
2.226255439924313961e+00
2.226255439924313961e+00
2.256443861201819168e+00
2.256443861201819168e+00
2.256443861201819168e+00
2.256443861201819168e+00
2.317945738090151586e+00
2.317945738090151586e+00
2.317945738090151586e+00
2.340071413312173831e+00
2.340071413312173831e+00
2.340071413312173831e+00
2.340071413312173831e+00
2.362947111423078006e+00
2.362947111423078006e+00
2.362947111423078006e+00
2.414511185033723084e+00
2.414511185033723084e+00
2.414511185033723084e+00
2.398573198644978088e+00
2.398573198644978088e+00
2.398573198644978088e+00
2.385447798089541660e+00
2.385447798089541660e+00
2.385447798089541660e+00
2.385447798089541660e+00
2.387510361033966966e+00
2.387510361033966966e+00
2.387510361033966966e+00
2.288882351145970162e+00
2.288882351145970162e+00
2.288882351145970162e+00
2.288882351145970162e+00
2.248756126590777171e+00
2.248756126590777171e+00
2.248756126590777171e+00
2.223630359813226764e+00
2.223630359813226764e+00
2.223630359813226764e+00
2.195316995757927270e+00
2.195316995757927270e+00
2.195316995757927270e+00
2.195316995757927270e+00
2.210317453535568966e+00
2.210317453535568966e+00
2.210317453535568966e+00
2.222130314035462462e+00
2.222130314035462462e+00
2.222130314035462462e+00
2.258693929868464956e+00
2.258693929868464956e+00
2.258693929868464956e+00
2.258693929868464956e+00
2.323570909756767389e+00
2.323570909756767389e+00
2.323570909756767389e+00
2.347946653645436310e+00
2.347946653645436310e+00
2.347946653645436310e+00
2.388260383922848895e+00
2.388260383922848895e+00
2.388260383922848895e+00
2.388260383922848895e+00
2.408135990478225352e+00
2.408135990478225352e+00
2.408135990478225352e+00
2.364822168645283273e+00
2.364822168645283273e+00
2.364822168645283273e+00
2.396885647144993747e+00
2.396885647144993747e+00
2.396885647144993747e+00
2.396885647144993747e+00
2.377760063478499664e+00
2.377760063478499664e+00
2.377760063478499664e+00
2.289819879757073018e+00
2.289819879757073018e+00
2.289819879757073018e+00
2.261319009979552597e+00
2.261319009979552597e+00
2.261319009979552597e+00
2.261319009979552597e+00
2.207504867702261730e+00
2.207504867702261730e+00
2.207504867702261730e+00
2.191004364146854844e+00
2.191004364146854844e+00
2.191004364146854844e+00
2.191004364146854844e+00
2.229255531479842567e+00
2.229255531479842567e+00
2.229255531479842567e+00
2.237130771813104602e+00
2.237130771813104602e+00
2.237130771813104602e+00
2.284194708090456771e+00
2.284194708090456771e+00
2.284194708090456771e+00
2.284194708090456771e+00
2.330508621478927012e+00
2.330508621478927012e+00
2.330508621478927012e+00
2.350384228034303025e+00
2.350384228034303025e+00
2.350384228034303025e+00
2.407198461867122496e+00
2.407198461867122496e+00
2.407198461867122496e+00
2.407198461867122496e+00
2.406073427533799602e+00
2.406073427533799602e+00
2.406073427533799602e+00
2.366322214423047576e+00
2.366322214423047576e+00
2.366322214423047576e+00
2.400635761589403838e+00
2.400635761589403838e+00
2.400635761589403838e+00
2.400635761589403838e+00
2.340071413312173831e+00
2.340071413312173831e+00
2.340071413312173831e+00
2.263194067201757864e+00
2.263194067201757864e+00
2.263194067201757864e+00
2.242755943479720404e+00
2.242755943479720404e+00
2.242755943479720404e+00
2.242755943479720404e+00
2.192316904202398664e+00
2.192316904202398664e+00
2.192316904202398664e+00
2.187441755424664791e+00
2.187441755424664791e+00
2.187441755424664791e+00
2.225317911313211550e+00
2.225317911313211550e+00
2.225317911313211550e+00
2.225317911313211550e+00
2.238255806146427940e+00
2.238255806146427940e+00
2.238255806146427940e+00
2.297507614368114126e+00
2.297507614368114126e+00
2.297507614368114126e+00
2.335758781701101849e+00
2.335758781701101849e+00
2.335758781701101849e+00
2.335758781701101849e+00
2.351884273812066883e+00
2.351884273812066883e+00
2.351884273812066883e+00
2.401198278756065729e+00
2.401198278756065729e+00
2.401198278756065729e+00
2.386385326700643628e+00
2.386385326700643628e+00
2.386385326700643628e+00
2.386385326700643628e+00
2.371197363200781449e+00
2.371197363200781449e+00
2.371197363200781449e+00
2.400260750144962874e+00
2.400260750144962874e+00
2.400260750144962874e+00
2.318320749534592551e+00
2.318320749534592551e+00
2.318320749534592551e+00
2.269756767479476078e+00
2.269756767479476078e+00
2.269756767479476078e+00
2.269756767479476078e+00
2.243130954924161813e+00
2.243130954924161813e+00
2.243130954924161813e+00
2.186504226813562823e+00
2.186504226813562823e+00
2.186504226813562823e+00
2.206192327646717910e+00
2.206192327646717910e+00
2.206192327646717910e+00
2.206192327646717910e+00
2.230943082979827352e+00
2.230943082979827352e+00
2.230943082979827352e+00
2.272381847590563719e+00
2.272381847590563719e+00
2.272381847590563719e+00
2.272381847590563719e+00
2.331258644367808941e+00
2.331258644367808941e+00
2.331258644367808941e+00
2.351321756645405436e+00
2.351321756645405436e+00
2.351321756645405436e+00
2.382635212256233537e+00
2.382635212256233537e+00
2.382635212256233537e+00
2.382635212256233537e+00
2.416761253700369316e+00
2.416761253700369316e+00
2.416761253700369316e+00
2.373259926145207199e+00
2.373259926145207199e+00
2.373259926145207199e+00
2.377385052034058699e+00
2.377385052034058699e+00
2.377385052034058699e+00
2.377385052034058699e+00
2.371947386089663379e+00
2.371947386089663379e+00
2.371947386089663379e+00
2.272381847590563719e+00
2.272381847590563719e+00
2.272381847590563719e+00
2.241630909146397510e+00
2.241630909146397510e+00
2.241630909146397510e+00
2.241630909146397510e+00
2.202817224646748340e+00
2.202817224646748340e+00
2.202817224646748340e+00
2.185941709646900932e+00
2.185941709646900932e+00
2.185941709646900932e+00
2.207317361980041248e+00
2.207317361980041248e+00
2.207317361980041248e+00
2.207317361980041248e+00
2.216317636646626177e+00
2.216317636646626177e+00
2.216317636646626177e+00
2.269569261757255596e+00
2.269569261757255596e+00
2.269569261757255596e+00
2.337821344645527599e+00
2.337821344645527599e+00
2.337821344645527599e+00
2.337821344645527599e+00
2.353946836756492633e+00
2.353946836756492633e+00
2.353946836756492633e+00
2.396510635700552783e+00
2.396510635700552783e+00
2.396510635700552783e+00
2.412261116367076408e+00
2.412261116367076408e+00
2.412261116367076408e+00
2.412261116367076408e+00
2.377947569200720146e+00
2.377947569200720146e+00
2.377947569200720146e+00
2.401385784478286212e+00
2.401385784478286212e+00
2.401385784478286212e+00
2.401385784478286212e+00
2.345134067812128187e+00
2.345134067812128187e+00
2.345134067812128187e+00
2.257381389812921579e+00
2.257381389812921579e+00
2.257381389812921579e+00
2.237505783257545566e+00
2.237505783257545566e+00
2.237505783257545566e+00
2.237505783257545566e+00
2.185754203924680450e+00
2.185754203924680450e+00
2.185754203924680450e+00
2.178441480758079862e+00
2.178441480758079862e+00
2.178441480758079862e+00
2.216130130924405695e+00
2.216130130924405695e+00
2.216130130924405695e+00
2.227755485702078264e+00
2.227755485702078264e+00
2.227755485702078264e+00
2.227755485702078264e+00
2.294882534257026929e+00
2.294882534257026929e+00
2.294882534257026929e+00
2.354696859645375007e+00
2.354696859645375007e+00
2.354696859645375007e+00
2.374759971922971058e+00
2.374759971922971058e+00
2.374759971922971058e+00
2.374759971922971058e+00
2.428199102755821404e+00
2.428199102755821404e+00
2.428199102755821404e+00
2.406823450422681532e+00
2.406823450422681532e+00
2.406823450422681532e+00
2.374759971922971058e+00
2.374759971922971058e+00
2.374759971922971058e+00
2.374759971922971058e+00
2.404385876033814373e+00
2.404385876033814373e+00
2.404385876033814373e+00
2.332571184423352761e+00
2.332571184423352761e+00
2.332571184423352761e+00
2.284007202368236289e+00
2.284007202368236289e+00
2.284007202368236289e+00
2.284007202368236289e+00
2.255693838312936794e+00
2.255693838312936794e+00
2.255693838312936794e+00
2.196817041535691573e+00
2.196817041535691573e+00
2.196817041535691573e+00
2.196067018646809643e+00
2.196067018646809643e+00
2.196067018646809643e+00
2.196067018646809643e+00
2.217630176702169997e+00
2.217630176702169997e+00
2.217630176702169997e+00
2.239380840479750834e+00
2.239380840479750834e+00
2.239380840479750834e+00
2.239380840479750834e+00
2.296007568590349823e+00
2.296007568590349823e+00
2.296007568590349823e+00
2.331633655812249906e+00
2.331633655812249906e+00
2.331633655812249906e+00
2.363509628589739453e+00
2.363509628589739453e+00
2.363509628589739453e+00
2.363509628589739453e+00
2.412448622089296890e+00
2.412448622089296890e+00
2.412448622089296890e+00
2.386760338145085036e+00
2.386760338145085036e+00
2.386760338145085036e+00
2.372884914700766235e+00
2.372884914700766235e+00
2.372884914700766235e+00
2.372884914700766235e+00
2.395198095645008962e+00
2.395198095645008962e+00
2.395198095645008962e+00
2.300320200201422249e+00
2.300320200201422249e+00
2.300320200201422249e+00
2.256443861201819168e+00
2.256443861201819168e+00
2.256443861201819168e+00
2.256443861201819168e+00
2.218192693868831444e+00
2.218192693868831444e+00
2.218192693868831444e+00
2.187066743980223826e+00
2.187066743980223826e+00
2.187066743980223826e+00
2.212380016479995160e+00
2.212380016479995160e+00
2.212380016479995160e+00
2.212380016479995160e+00
2.225880428479872997e+00
2.225880428479872997e+00
2.225880428479872997e+00
2.266006653035065987e+00
2.266006653035065987e+00
2.266006653035065987e+00
2.326195989867855030e+00
2.326195989867855030e+00
2.326195989867855030e+00
2.326195989867855030e+00
2.347571642200994901e+00
2.347571642200994901e+00
2.347571642200994901e+00
2.387697866756187448e+00
2.387697866756187448e+00
2.387697866756187448e+00
2.387697866756187448e+00
2.415073702200384531e+00
2.415073702200384531e+00
2.415073702200384531e+00
2.378697592089602519e+00
2.378697592089602519e+00
2.378697592089602519e+00
2.401198278756065729e+00
2.401198278756065729e+00
2.401198278756065729e+00
2.401198278756065729e+00
2.382260200811792572e+00
2.382260200811792572e+00
2.382260200811792572e+00
2.292257454145939732e+00
2.292257454145939732e+00
2.292257454145939732e+00
2.269381756035035114e+00
2.269381756035035114e+00
2.269381756035035114e+00
2.269381756035035114e+00
2.215755119479964730e+00
2.215755119479964730e+00
2.215755119479964730e+00
2.189879329813531950e+00
2.189879329813531950e+00
2.189879329813531950e+00
2.216130130924405695e+00
2.216130130924405695e+00
2.216130130924405695e+00
2.216130130924405695e+00
2.226067934202093479e+00
2.226067934202093479e+00
2.226067934202093479e+00
2.286069765312662039e+00
2.286069765312662039e+00
2.286069765312662039e+00
2.342696493423261028e+00
2.342696493423261028e+00
2.342696493423261028e+00
2.342696493423261028e+00
2.350759239478743989e+00
2.350759239478743989e+00
2.350759239478743989e+00
2.400260750144962874e+00
2.400260750144962874e+00
2.400260750144962874e+00
2.412073610644855925e+00
2.412073610644855925e+00
2.412073610644855925e+00
2.412073610644855925e+00
2.375697500534073914e+00
2.375697500534073914e+00
2.375697500534073914e+00
2.405323404644917229e+00
2.405323404644917229e+00
2.405323404644917229e+00
2.346821619312112972e+00
2.346821619312112972e+00
2.346821619312112972e+00
2.346821619312112972e+00
2.272006836146122755e+00
2.272006836146122755e+00
2.272006836146122755e+00
2.233193151646474028e+00
2.233193151646474028e+00
2.233193151646474028e+00
2.176191412091433186e+00
2.176191412091433186e+00
2.176191412091433186e+00
2.176191412091433186e+00
2.174503860591448845e+00
2.174503860591448845e+00
2.174503860591448845e+00
2.208442396313364142e+00
2.208442396313364142e+00
2.208442396313364142e+00
2.228318002868740155e+00
2.228318002868740155e+00
2.228318002868740155e+00
2.228318002868740155e+00
2.293194982757042144e+00
2.293194982757042144e+00
2.293194982757042144e+00
2.335383770256660885e+00
2.335383770256660885e+00
2.335383770256660885e+00
2.354321848200934042e+00
2.354321848200934042e+00
2.354321848200934042e+00
2.354321848200934042e+00
2.396323129978331856e+00
2.396323129978331856e+00
2.396323129978331856e+00
2.375509994811853431e+00
2.375509994811853431e+00
2.375509994811853431e+00
2.359947019867549844e+00
2.359947019867549844e+00
2.359947019867549844e+00
2.359947019867549844e+00
2.392760521256141804e+00
2.392760521256141804e+00
2.392760521256141804e+00
2.303320291756950855e+00
2.303320291756950855e+00
2.303320291756950855e+00
2.260943998535111632e+00
2.260943998535111632e+00
2.260943998535111632e+00
2.260943998535111632e+00
2.237693288979766049e+00
2.237693288979766049e+00
2.237693288979766049e+00
2.193816949980162967e+00
2.193816949980162967e+00
2.193816949980162967e+00
2.193816949980162967e+00
2.209942442091128445e+00
2.209942442091128445e+00
2.209942442091128445e+00
2.235818231757560781e+00
2.235818231757560781e+00
2.235818231757560781e+00
2.261319009979552597e+00
2.261319009979552597e+00
2.261319009979552597e+00
2.261319009979552597e+00
2.329383587145603673e+00
2.329383587145603673e+00
2.329383587145603673e+00
2.358634479812006024e+00
2.358634479812006024e+00
2.358634479812006024e+00
2.389947935422834124e+00
2.389947935422834124e+00
2.389947935422834124e+00
2.389947935422834124e+00
2.422573931089205601e+00
2.422573931089205601e+00
2.422573931089205601e+00
2.376260017700735361e+00
2.376260017700735361e+00
2.376260017700735361e+00
2.380760155034028269e+00
2.380760155034028269e+00
2.380760155034028269e+00
2.380760155034028269e+00
2.372884914700766235e+00
2.372884914700766235e+00
2.372884914700766235e+00
2.278944547868282378e+00
2.278944547868282378e+00
2.278944547868282378e+00
2.248943632312997654e+00
2.248943632312997654e+00
2.248943632312997654e+00
2.248943632312997654e+00
2.207692373424482213e+00
2.207692373424482213e+00
2.207692373424482213e+00
2.185754203924680450e+00
2.185754203924680450e+00
2.185754203924680450e+00
2.229068025757622085e+00
2.229068025757622085e+00
2.229068025757622085e+00
2.229068025757622085e+00
2.237318277535325084e+00
2.237318277535325084e+00
2.237318277535325084e+00
2.271069307535019899e+00
2.271069307535019899e+00
2.271069307535019899e+00
2.271069307535019899e+00
2.323195898312326424e+00
2.323195898312326424e+00
2.323195898312326424e+00
2.344196539201025331e+00
2.344196539201025331e+00
2.344196539201025331e+00
2.395573107089449927e+00
2.395573107089449927e+00
2.395573107089449927e+00
2.395573107089449927e+00
2.409636036255989211e+00
2.409636036255989211e+00
2.409636036255989211e+00
2.362009582811975594e+00
2.362009582811975594e+00
2.362009582811975594e+00
2.385260292367321178e+00
2.385260292367321178e+00
2.385260292367321178e+00
2.385260292367321178e+00
2.342696493423261028e+00
2.342696493423261028e+00
2.342696493423261028e+00
2.266381664479506952e+00
2.266381664479506952e+00
2.266381664479506952e+00
2.252506241035188150e+00
2.252506241035188150e+00
2.252506241035188150e+00
2.252506241035188150e+00
2.207504867702261730e+00
2.207504867702261730e+00
2.207504867702261730e+00
2.187254249702444309e+00
2.187254249702444309e+00
2.187254249702444309e+00
2.223630359813226764e+00
2.223630359813226764e+00
2.223630359813226764e+00
2.223630359813226764e+00
2.239005829035309869e+00
2.239005829035309869e+00
2.239005829035309869e+00
2.296195074312570750e+00
2.296195074312570750e+00
2.296195074312570750e+00
2.342883999145481511e+00
2.342883999145481511e+00
2.342883999145481511e+00
2.342883999145481511e+00
2.351696768089846401e+00
2.351696768089846401e+00
2.351696768089846401e+00
2.400260750144962874e+00
2.400260750144962874e+00
2.400260750144962874e+00
2.397073152867214230e+00
2.397073152867214230e+00
2.397073152867214230e+00
2.397073152867214230e+00
2.367072237311929506e+00
2.367072237311929506e+00
2.367072237311929506e+00
2.401385784478286212e+00
2.401385784478286212e+00
2.401385784478286212e+00
2.401385784478286212e+00
2.319820795312356854e+00
2.319820795312356854e+00
2.319820795312356854e+00
2.259443952757347329e+00
2.259443952757347329e+00
2.259443952757347329e+00
2.241818414868617992e+00
2.241818414868617992e+00
2.241818414868617992e+00
2.241818414868617992e+00
2.200379650257881181e+00
2.200379650257881181e+00
2.200379650257881181e+00
2.198504593035676358e+00
2.198504593035676358e+00
2.198504593035676358e+00
2.229630542924283532e+00
2.229630542924283532e+00
2.229630542924283532e+00
2.229630542924283532e+00
2.243505966368602778e+00
2.243505966368602778e+00
2.243505966368602778e+00
2.305195348979155678e+00
2.305195348979155678e+00
2.305195348979155678e+00
2.340258919034394314e+00
2.340258919034394314e+00
2.340258919034394314e+00
2.340258919034394314e+00
2.364072145756401344e+00
2.364072145756401344e+00
2.364072145756401344e+00
2.410948576311533031e+00
2.410948576311533031e+00
2.410948576311533031e+00
2.377947569200720146e+00
2.377947569200720146e+00
2.377947569200720146e+00
2.377947569200720146e+00
2.360322031311990809e+00
2.360322031311990809e+00
2.360322031311990809e+00
2.368384777367473326e+00
2.368384777367473326e+00
2.368384777367473326e+00
2.286632282479323930e+00
2.286632282479323930e+00
2.286632282479323930e+00
2.286632282479323930e+00
2.256443861201819168e+00
2.256443861201819168e+00
2.256443861201819168e+00
2.218755211035493335e+00
2.218755211035493335e+00
2.218755211035493335e+00
2.218755211035493335e+00
2.184441663869136629e+00
2.184441663869136629e+00
2.184441663869136629e+00
2.211254982146671821e+00
2.211254982146671821e+00
2.211254982146671821e+00
2.235068208868678852e+00
2.235068208868678852e+00
2.235068208868678852e+00
2.235068208868678852e+00
2.260381481368449741e+00
2.260381481368449741e+00
2.260381481368449741e+00
2.326946012756737403e+00
2.326946012756737403e+00
2.326946012756737403e+00
2.347759147923215384e+00
2.347759147923215384e+00
2.347759147923215384e+00
2.347759147923215384e+00
2.387135349589526001e+00
2.387135349589526001e+00
2.387135349589526001e+00
2.412448622089296890e+00
2.412448622089296890e+00
2.412448622089296890e+00
2.379072603534043484e+00
2.379072603534043484e+00
2.379072603534043484e+00
2.379072603534043484e+00
2.407198461867122496e+00
2.407198461867122496e+00
2.407198461867122496e+00
2.394823084200567997e+00
2.394823084200567997e+00
2.394823084200567997e+00
2.305570360423596643e+00
2.305570360423596643e+00
2.305570360423596643e+00
2.261881527146214044e+00
2.261881527146214044e+00
2.261881527146214044e+00
2.261881527146214044e+00
2.204879787591174090e+00
2.204879787591174090e+00
2.204879787591174090e+00
2.181254066591387542e+00
2.181254066591387542e+00
2.181254066591387542e+00
2.208629902035584625e+00
2.208629902035584625e+00
2.208629902035584625e+00
2.208629902035584625e+00
2.219505233924375265e+00
2.219505233924375265e+00
2.219505233924375265e+00
2.268819238868374111e+00
2.268819238868374111e+00
2.268819238868374111e+00
2.268819238868374111e+00
2.321320841090121156e+00
2.321320841090121156e+00
2.321320841090121156e+00
2.339883907589953349e+00
2.339883907589953349e+00
2.339883907589953349e+00
2.390135441145054607e+00
2.390135441145054607e+00
2.390135441145054607e+00
2.390135441145054607e+00
2.396323129978331856e+00
2.396323129978331856e+00
2.396323129978331856e+00
2.364072145756401344e+00
2.364072145756401344e+00
2.364072145756401344e+00
2.396323129978331856e+00
2.396323129978331856e+00
2.396323129978331856e+00
2.396323129978331856e+00
2.344384044923245813e+00
2.344384044923245813e+00
2.344384044923245813e+00
2.279882076479384789e+00
2.279882076479384789e+00
2.279882076479384789e+00
2.253068758201849597e+00
2.253068758201849597e+00
2.253068758201849597e+00
2.253068758201849597e+00
2.195879512924588717e+00
2.195879512924588717e+00
2.195879512924588717e+00
2.188754295480208611e+00
2.188754295480208611e+00
2.188754295480208611e+00
2.207129856257820322e+00
2.207129856257820322e+00
2.207129856257820322e+00
2.207129856257820322e+00
2.219692739646595747e+00
2.219692739646595747e+00
2.219692739646595747e+00
2.287569811090426342e+00
2.287569811090426342e+00
2.287569811090426342e+00
2.340258919034394314e+00
2.340258919034394314e+00
2.340258919034394314e+00
2.340258919034394314e+00
2.361072054200873183e+00
2.361072054200873183e+00
2.361072054200873183e+00
2.418636310922574584e+00
2.418636310922574584e+00
2.418636310922574584e+00
2.418636310922574584e+00
2.397073152867214230e+00
2.397073152867214230e+00
2.397073152867214230e+00
2.366697225867488541e+00
2.366697225867488541e+00
2.366697225867488541e+00
2.380572649311807787e+00
2.380572649311807787e+00
2.380572649311807787e+00
2.380572649311807787e+00
2.284194708090456771e+00
2.284194708090456771e+00
2.284194708090456771e+00
2.224755394146549659e+00
2.224755394146549659e+00
2.224755394146549659e+00
2.196442030091250608e+00
2.196442030091250608e+00
2.196442030091250608e+00
2.196442030091250608e+00
2.170941251869258792e+00
2.170941251869258792e+00
2.170941251869258792e+00
2.200567155980101663e+00
2.200567155980101663e+00
2.200567155980101663e+00
2.239193334757530351e+00
2.239193334757530351e+00
2.239193334757530351e+00
2.239193334757530351e+00
2.284757225257118218e+00
2.284757225257118218e+00
2.284757225257118218e+00
2.359196996978667915e+00
2.359196996978667915e+00
2.359196996978667915e+00
2.373634937589648164e+00
2.373634937589648164e+00
2.373634937589648164e+00
2.373634937589648164e+00
2.380197637867366822e+00
2.380197637867366822e+00
2.380197637867366822e+00
2.395385601367229444e+00
2.395385601367229444e+00
2.395385601367229444e+00
2.347009125034333454e+00
2.347009125034333454e+00
2.347009125034333454e+00
2.347009125034333454e+00
2.356196905423139309e+00
2.356196905423139309e+00
2.356196905423139309e+00
2.364634662923062791e+00
2.364634662923062791e+00
2.364634662923062791e+00
2.285882259590441556e+00
2.285882259590441556e+00
2.285882259590441556e+00
2.285882259590441556e+00
2.266006653035065987e+00
2.266006653035065987e+00
2.266006653035065987e+00
2.228693014313181120e+00
2.228693014313181120e+00
2.228693014313181120e+00
2.201129673146763555e+00
2.201129673146763555e+00
2.201129673146763555e+00
2.201129673146763555e+00
2.214255073702200427e+00
2.214255073702200427e+00
2.214255073702200427e+00
2.216880153813287624e+00
2.216880153813287624e+00
2.216880153813287624e+00
2.245568529313028083e+00
2.245568529313028083e+00
2.245568529313028083e+00
2.245568529313028083e+00
2.310445509201330516e+00
2.310445509201330516e+00
2.310445509201330516e+00
2.334071230201117064e+00
2.334071230201117064e+00
2.334071230201117064e+00
2.390322946867275089e+00
2.390322946867275089e+00
2.390322946867275089e+00
2.390322946867275089e+00
2.414323679311502602e+00
2.414323679311502602e+00
2.414323679311502602e+00
2.387885372478407930e+00
2.387885372478407930e+00
2.387885372478407930e+00
2.407010956144902014e+00
2.407010956144902014e+00
2.407010956144902014e+00
2.407010956144902014e+00
2.350196722312082542e+00
2.350196722312082542e+00
2.350196722312082542e+00
2.245193517868587563e+00
2.245193517868587563e+00
2.245193517868587563e+00
2.221192785424360050e+00
2.221192785424360050e+00
2.221192785424360050e+00
2.221192785424360050e+00
2.178066469313638454e+00
2.178066469313638454e+00
2.178066469313638454e+00
2.158940885647145258e+00
2.158940885647145258e+00
2.158940885647145258e+00
2.177878963591417971e+00
2.177878963591417971e+00
2.177878963591417971e+00
2.177878963591417971e+00
2.203379741813409787e+00
2.203379741813409787e+00
2.203379741813409787e+00
2.270694296090578934e+00
2.270694296090578934e+00
2.270694296090578934e+00
2.320008301034577336e+00
2.320008301034577336e+00
2.320008301034577336e+00
2.320008301034577336e+00
2.334071230201117064e+00
2.334071230201117064e+00
2.334071230201117064e+00
2.386760338145085036e+00
2.386760338145085036e+00
2.386760338145085036e+00
2.386760338145085036e+00
2.389010406811731269e+00
2.389010406811731269e+00
2.389010406811731269e+00
2.344196539201025331e+00
2.344196539201025331e+00
2.344196539201025331e+00
2.368947294534135217e+00
2.368947294534135217e+00
2.368947294534135217e+00
2.368947294534135217e+00
2.293569994201483109e+00
2.293569994201483109e+00
2.293569994201483109e+00
2.247443586535233351e+00
2.247443586535233351e+00
2.247443586535233351e+00
2.237880794701986531e+00
2.237880794701986531e+00
2.237880794701986531e+00
2.237880794701986531e+00
2.185941709646900932e+00
2.185941709646900932e+00
2.185941709646900932e+00
2.197754570146794428e+00
2.197754570146794428e+00
2.197754570146794428e+00
2.223442854091006282e+00
2.223442854091006282e+00
2.223442854091006282e+00
2.223442854091006282e+00
2.250256172368541474e+00
2.250256172368541474e+00
2.250256172368541474e+00
2.318695760979033516e+00
2.318695760979033516e+00
2.318695760979033516e+00
2.364259651478621826e+00
2.364259651478621826e+00
2.364259651478621826e+00
2.364259651478621826e+00
2.396698141422773265e+00
2.396698141422773265e+00
2.396698141422773265e+00
2.435699331644642474e+00
2.435699331644642474e+00
2.435699331644642474e+00
2.396510635700552783e+00
2.396510635700552783e+00
2.396510635700552783e+00
2.396510635700552783e+00
2.369697317423017147e+00
2.369697317423017147e+00
2.369697317423017147e+00
2.373072420422986717e+00
2.373072420422986717e+00
2.373072420422986717e+00
2.277819513534959039e+00
2.277819513534959039e+00
2.277819513534959039e+00
2.214255073702200427e+00
2.214255073702200427e+00
2.214255073702200427e+00
2.214255073702200427e+00
2.174878872035889810e+00
2.174878872035889810e+00
2.174878872035889810e+00
2.158753379924924776e+00
2.158753379924924776e+00
2.158753379924924776e+00
2.217067659535508550e+00
2.217067659535508550e+00
2.217067659535508550e+00
2.217067659535508550e+00
2.252506241035188150e+00
2.252506241035188150e+00
2.252506241035188150e+00
2.290194891201513983e+00
2.290194891201513983e+00
2.290194891201513983e+00
2.290194891201513983e+00
2.343634022034363884e+00
2.343634022034363884e+00
2.343634022034363884e+00
2.315695669423505798e+00
2.315695669423505798e+00
2.315695669423505798e+00
2.313633106479079604e+00
2.313633106479079604e+00
2.313633106479079604e+00
2.313633106479079604e+00
2.336321298867763296e+00
2.336321298867763296e+00
2.336321298867763296e+00
2.303695303201391820e+00
2.303695303201391820e+00
2.303695303201391820e+00
2.316070680867946319e+00
2.316070680867946319e+00
2.316070680867946319e+00
2.316070680867946319e+00
2.291132419812616394e+00
2.291132419812616394e+00
2.291132419812616394e+00
2.208254890591143660e+00
2.208254890591143660e+00
2.208254890591143660e+00
2.222317819757682944e+00
2.222317819757682944e+00
2.222317819757682944e+00
2.222317819757682944e+00
2.225880428479872997e+00
2.225880428479872997e+00
2.225880428479872997e+00
2.250068666646320992e+00
2.250068666646320992e+00
2.250068666646320992e+00
2.273694387646107540e+00
2.273694387646107540e+00
2.273694387646107540e+00
2.273694387646107540e+00
2.252693746757408633e+00
2.252693746757408633e+00
2.252693746757408633e+00
2.278757042146061895e+00
2.278757042146061895e+00
2.278757042146061895e+00
2.357134434034241721e+00
2.357134434034241721e+00
2.357134434034241721e+00
2.357134434034241721e+00
2.382072695089572090e+00
2.382072695089572090e+00
2.382072695089572090e+00
2.428949125644703777e+00
2.428949125644703777e+00
2.428949125644703777e+00
2.428949125644703777e+00
2.445074617755668811e+00
2.445074617755668811e+00
2.445074617755668811e+00
2.404573381756035300e+00
2.404573381756035300e+00
2.404573381756035300e+00
2.426136539811395654e+00
2.426136539811395654e+00
2.426136539811395654e+00
2.426136539811395654e+00
2.358446974089785542e+00
2.358446974089785542e+00
2.358446974089785542e+00
2.263006561479537382e+00
2.263006561479537382e+00
2.263006561479537382e+00
2.208817407757805107e+00
2.208817407757805107e+00
2.208817407757805107e+00
2.163253517258217240e+00
2.163253517258217240e+00
2.163253517258217240e+00
2.163253517258217240e+00
2.167566148869289222e+00
2.167566148869289222e+00
2.167566148869289222e+00
2.190066835535752432e+00
2.190066835535752432e+00
2.190066835535752432e+00
2.212192510757774677e+00
2.212192510757774677e+00
2.212192510757774677e+00
2.283632190923795324e+00
2.283632190923795324e+00
2.283632190923795324e+00
2.283632190923795324e+00
2.346446607867672007e+00
2.346446607867672007e+00
2.346446607867672007e+00
2.378697592089602519e+00
2.378697592089602519e+00
2.378697592089602519e+00
2.432324228644673347e+00
2.432324228644673347e+00
2.432324228644673347e+00
2.432324228644673347e+00
2.410198553422650658e+00
2.410198553422650658e+00
2.410198553422650658e+00
2.392385509811700839e+00
2.392385509811700839e+00
2.392385509811700839e+00
2.443949583422345917e+00
2.443949583422345917e+00
2.443949583422345917e+00
2.443949583422345917e+00
2.351509262367625919e+00
2.351509262367625919e+00
2.351509262367625919e+00
2.300882717368083696e+00
2.300882717368083696e+00
2.300882717368083696e+00
2.257756401257362544e+00
2.257756401257362544e+00
2.257756401257362544e+00
2.257756401257362544e+00
2.167003631702627775e+00
2.167003631702627775e+00
2.167003631702627775e+00
2.134752647480697263e+00
2.134752647480697263e+00
2.134752647480697263e+00
2.134752647480697263e+00
2.141315347758415477e+00
2.141315347758415477e+00
2.141315347758415477e+00
2.170191228980376863e+00
2.170191228980376863e+00
2.170191228980376863e+00
2.230005554368724940e+00
2.230005554368724940e+00
2.230005554368724940e+00
2.230005554368724940e+00
2.270131778923917043e+00
2.270131778923917043e+00
2.270131778923917043e+00
2.321320841090121156e+00
2.321320841090121156e+00
2.321320841090121156e+00
2.368009765923032361e+00
2.368009765923032361e+00
2.368009765923032361e+00
2.368009765923032361e+00
2.335571275978881367e+00
2.335571275978881367e+00
2.335571275978881367e+00
2.332946195867793726e+00
2.332946195867793726e+00
2.332946195867793726e+00
2.346446607867672007e+00
2.346446607867672007e+00
2.346446607867672007e+00
2.346446607867672007e+00
2.251381206701864812e+00
2.251381206701864812e+00
2.251381206701864812e+00
2.234130680257575996e+00
2.234130680257575996e+00
2.234130680257575996e+00
2.232818140202032620e+00
2.232818140202032620e+00
2.232818140202032620e+00
2.232818140202032620e+00
2.203192236091189304e+00
2.203192236091189304e+00
2.203192236091189304e+00
2.231318094424268317e+00
2.231318094424268317e+00
2.231318094424268317e+00
2.257943906979583026e+00
2.257943906979583026e+00
2.257943906979583026e+00
2.257943906979583026e+00
2.280257087923826198e+00
2.280257087923826198e+00
2.280257087923826198e+00
2.314758140812402942e+00
2.314758140812402942e+00
2.314758140812402942e+00
2.359759514145329362e+00
2.359759514145329362e+00
2.359759514145329362e+00
2.359759514145329362e+00
2.459512558366649504e+00
2.459512558366649504e+00
2.459512558366649504e+00
2.461200109866634289e+00
2.461200109866634289e+00
2.461200109866634289e+00
2.429324137089144742e+00
2.429324137089144742e+00
2.429324137089144742e+00
2.429324137089144742e+00
2.457262489700002828e+00
2.457262489700002828e+00
2.457262489700002828e+00
2.403260841700491479e+00
2.403260841700491479e+00
2.403260841700491479e+00
2.301070223090304623e+00
2.301070223090304623e+00
2.301070223090304623e+00
2.301070223090304623e+00
2.287382305368205859e+00
2.287382305368205859e+00
2.287382305368205859e+00
2.241443403424177028e+00
2.241443403424177028e+00
2.241443403424177028e+00
2.193066927091281038e+00
2.193066927091281038e+00
2.193066927091281038e+00
2.193066927091281038e+00
2.196254524369030126e+00
2.196254524369030126e+00
2.196254524369030126e+00
2.180316537980285130e+00
2.180316537980285130e+00
2.180316537980285130e+00
2.201504684591204519e+00
2.201504684591204519e+00
2.201504684591204519e+00
2.201504684591204519e+00
2.244255989257484707e+00
2.244255989257484707e+00
2.244255989257484707e+00
2.288507339701529197e+00
2.288507339701529197e+00
2.288507339701529197e+00
2.288507339701529197e+00
2.325445966978973100e+00
2.325445966978973100e+00
2.325445966978973100e+00
2.332008667256691314e+00
2.332008667256691314e+00
2.332008667256691314e+00
2.308570451979125249e+00
2.308570451979125249e+00
2.308570451979125249e+00
2.308570451979125249e+00
2.390322946867275089e+00
2.390322946867275089e+00
2.390322946867275089e+00
2.368759788811914291e+00
2.368759788811914291e+00
2.368759788811914291e+00
2.346634113589892490e+00
2.346634113589892490e+00
2.346634113589892490e+00
2.329196081423383191e+00
2.329196081423383191e+00
2.261319009979552597e+00
2.261319009979552597e+00
2.226067934202093479e+00
2.226067934202093479e+00
2.238443311868648422e+00
2.238443311868648422e+00
2.264319101535081202e+00
2.264319101535081202e+00
2.326758507034516477e+00
2.326758507034516477e+00
2.326758507034516477e+00
2.342696493423261028e+00
2.342696493423261028e+00
2.394073061311685624e+00
2.394073061311685624e+00
2.434011780144657688e+00
2.434011780144657688e+00
2.365384685811944721e+00
2.365384685811944721e+00
2.362947111423078006e+00
2.362947111423078006e+00
2.389947935422834124e+00
2.389947935422834124e+00
2.272006836146122755e+00
2.272006836146122755e+00
2.219692739646595747e+00
2.219692739646595747e+00
2.219692739646595747e+00
2.187254249702444309e+00
2.187254249702444309e+00
2.170191228980376863e+00
2.170191228980376863e+00
2.223255348368785356e+00
2.223255348368785356e+00
2.252693746757408633e+00
2.252693746757408633e+00
2.281569627979369130e+00
2.281569627979369130e+00
2.335758781701101849e+00
2.335758781701101849e+00
2.387322855311746483e+00
2.387322855311746483e+00
2.430449171422468080e+00
2.430449171422468080e+00
2.412823633533738299e+00
2.412823633533738299e+00
2.412823633533738299e+00
2.285882259590441556e+00
2.285882259590441556e+00
2.275756950590533290e+00
2.275756950590533290e+00
2.229818048646504014e+00
2.229818048646504014e+00
2.137752739036225869e+00
2.137752739036225869e+00
2.165503585924863472e+00
2.165503585924863472e+00
2.184629169591357556e+00
2.184629169591357556e+00
2.191754387035737217e+00
2.191754387035737217e+00
2.237693288979766049e+00
2.237693288979766049e+00
2.237693288979766049e+00
2.262444044312875935e+00
2.262444044312875935e+00
2.317570726645710621e+00
2.317570726645710621e+00
2.365197180089724238e+00
2.365197180089724238e+00
2.370822351756340485e+00
2.370822351756340485e+00
2.425199011200292798e+00
2.425199011200292798e+00
2.402510818811609106e+00
2.402510818811609106e+00
2.342696493423261028e+00
2.342696493423261028e+00
2.360509537034211291e+00
2.360509537034211291e+00
2.360509537034211291e+00
2.316258186590166801e+00
2.316258186590166801e+00
2.226630451368755370e+00
2.226630451368755370e+00
2.178628986480300345e+00
2.178628986480300345e+00
2.139252784813989727e+00
2.139252784813989727e+00
2.214255073702200427e+00
2.214255073702200427e+00
2.237505783257545566e+00
2.237505783257545566e+00
2.251756218146305777e+00
2.251756218146305777e+00
2.341946470534379099e+00
2.341946470534379099e+00
2.416386242255928352e+00
2.416386242255928352e+00
2.416386242255928352e+00
2.418448805200354101e+00
2.418448805200354101e+00
2.466075258644368162e+00
2.466075258644368162e+00
2.435511825922421991e+00
2.435511825922421991e+00
2.390697958311716054e+00
2.390697958311716054e+00
2.428761619922483295e+00
2.428761619922483295e+00
2.315133152256843907e+00
2.315133152256843907e+00
2.230193060090945423e+00
2.230193060090945423e+00
2.230193060090945423e+00
2.208442396313364142e+00
2.208442396313364142e+00
2.175253883480330774e+00
2.175253883480330774e+00
2.131377544480727693e+00
2.131377544480727693e+00
2.125564867091891408e+00
2.125564867091891408e+00
2.197379558702353020e+00
2.197379558702353020e+00
2.294507522812585520e+00
2.294507522812585520e+00
2.369697317423017147e+00
2.369697317423017147e+00
2.396885647144993747e+00
2.396885647144993747e+00
2.396885647144993747e+00
2.406635944700461049e+00
2.406635944700461049e+00
2.350946745200964472e+00
2.350946745200964472e+00
2.358821985534226506e+00
2.358821985534226506e+00
2.407385967589342979e+00
2.407385967589342979e+00
2.361447065645314147e+00
2.361447065645314147e+00
2.365384685811944721e+00
2.365384685811944721e+00
2.356009399700918827e+00
2.356009399700918827e+00
2.253068758201849597e+00
2.253068758201849597e+00
2.253068758201849597e+00
2.165691091647083955e+00
2.165691091647083955e+00
2.089188756981108952e+00
2.089188756981108952e+00
2.065938047425763813e+00
2.065938047425763813e+00
2.147128025147251762e+00
2.147128025147251762e+00
2.235443220313119816e+00
2.235443220313119816e+00
2.308945463423566213e+00
2.308945463423566213e+00
2.341571459089938134e+00
2.341571459089938134e+00
2.351884273812066883e+00
2.351884273812066883e+00
2.365572191534165203e+00
2.365572191534165203e+00
2.365572191534165203e+00
2.339508896145511940e+00
2.339508896145511940e+00
2.224755394146549659e+00
2.224755394146549659e+00
2.199817133091219734e+00
2.199817133091219734e+00
2.194566972869045340e+00
2.194566972869045340e+00
2.193441938535722002e+00
2.193441938535722002e+00
2.173191320535905025e+00
2.173191320535905025e+00
2.154065736869411385e+00
2.154065736869411385e+00
2.263944090090640238e+00
2.263944090090640238e+00
2.327133518478957885e+00
2.327133518478957885e+00
2.325070955534531691e+00
2.325070955534531691e+00
2.325070955534531691e+00
2.386385326700643628e+00
2.386385326700643628e+00
2.346634113589892490e+00
2.346634113589892490e+00
2.204129764702292160e+00
2.204129764702292160e+00
2.223817865535447247e+00
2.223817865535447247e+00
2.246693563646351421e+00
2.246693563646351421e+00
2.231693105868709726e+00
2.231693105868709726e+00
2.270131778923917043e+00
2.270131778923917043e+00
2.225880428479872997e+00
2.225880428479872997e+00
2.225880428479872997e+00
2.209567430646687480e+00
2.209567430646687480e+00
2.213880062257759462e+00
2.213880062257759462e+00
2.260006469924008776e+00
2.260006469924008776e+00
2.307070406201360946e+00
2.307070406201360946e+00
2.366884731589709023e+00
2.366884731589709023e+00
2.416011230811487387e+00
2.416011230811487387e+00
2.435511825922421991e+00
2.435511825922421991e+00
2.382822717978454019e+00
2.382822717978454019e+00
2.382822717978454019e+00
2.359572008423108880e+00
2.359572008423108880e+00
2.420511368144779851e+00
2.420511368144779851e+00
2.389760429700613198e+00
2.389760429700613198e+00
2.356946928312021239e+00
2.356946928312021239e+00
2.245193517868587563e+00
2.245193517868587563e+00
2.142252876369517889e+00
2.142252876369517889e+00
2.118627155369731785e+00
2.118627155369731785e+00
2.118627155369731785e+00
2.187066743980223826e+00
2.187066743980223826e+00
2.269006744590594149e+00
2.269006744590594149e+00
2.343446516312143402e+00
2.343446516312143402e+00
2.389760429700613198e+00
2.389760429700613198e+00
2.433261757255775315e+00
2.433261757255775315e+00
2.408886013367107282e+00
2.408886013367107282e+00
2.314758140812402942e+00
2.314758140812402942e+00
2.279319559312723342e+00
2.279319559312723342e+00
2.250631183812982439e+00
2.250631183812982439e+00
2.250631183812982439e+00
2.122939786980803767e+00
2.122939786980803767e+00
2.095563951536606684e+00
2.095563951536606684e+00
2.125939878536332373e+00
2.125939878536332373e+00
2.132502578814050587e+00
2.132502578814050587e+00
2.159878414258247670e+00
2.159878414258247670e+00
2.107189306314279698e+00
2.107189306314279698e+00
2.102876674703207716e+00
2.102876674703207716e+00
2.076250862147892562e+00
2.076250862147892562e+00
2.076250862147892562e+00
2.101564134647663895e+00
2.101564134647663895e+00
2.319070772423474924e+00
2.319070772423474924e+00
2.461200109866634289e+00
2.461200109866634289e+00
2.468512833033234433e+00
2.468512833033234433e+00
2.442262031922361132e+00
2.442262031922361132e+00
2.335196264534440402e+00
2.335196264534440402e+00
2.283069673757133433e+00
2.283069673757133433e+00
2.307820429090243319e+00
2.307820429090243319e+00
2.307820429090243319e+00
2.279507065034943825e+00
2.279507065034943825e+00
2.227942991424298746e+00
2.227942991424298746e+00
2.193254432813501520e+00
2.193254432813501520e+00
2.168691183202612560e+00
2.168691183202612560e+00
2.180129032258064647e+00
2.180129032258064647e+00
2.216505142368846659e+00
2.216505142368846659e+00
2.312508072145756710e+00
2.312508072145756710e+00
2.404760887478255782e+00
2.404760887478255782e+00
2.404760887478255782e+00
2.298070131534776017e+00
2.298070131534776017e+00
2.075500839259010633e+00
2.075500839259010633e+00
2.051125095370342155e+00
2.051125095370342155e+00
1.960372325815607386e+00
1.960372325815607386e+00
2.039499740592669585e+00
2.039499740592669585e+00
2.152753196813867564e+00
2.152753196813867564e+00
2.147503036591693171e+00
2.147503036591693171e+00
2.198504593035676358e+00
2.198504593035676358e+00
2.198504593035676358e+00
2.250818689535202921e+00
2.250818689535202921e+00
2.197754570146794428e+00
2.197754570146794428e+00
2.268819238868374111e+00
2.268819238868374111e+00
2.318695760979033516e+00
2.318695760979033516e+00
2.347384136478774419e+00
2.347384136478774419e+00
2.419386333811456957e+00
2.419386333811456957e+00
2.432511734366893830e+00
2.432511734366893830e+00
2.458012512588885201e+00
2.458012512588885201e+00
2.458012512588885201e+00
2.443199560533463544e+00
2.443199560533463544e+00
2.391635486922818910e+00
2.391635486922818910e+00
2.414698690755943566e+00
2.414698690755943566e+00
2.341758964812158617e+00
2.341758964812158617e+00
2.196817041535691573e+00
2.196817041535691573e+00
2.109251869258705447e+00
2.109251869258705447e+00
2.109251869258705447e+00
2.109251869258705447e+00
2.185941709646900932e+00
2.185941709646900932e+00
2.398010681478316641e+00
2.398010681478316641e+00
2.398010681478316641e+00
2.493638599810785283e+00
2.493638599810785283e+00
2.637830500198370398e+00
2.637830500198370398e+00
2.548577776421399932e+00
2.548577776421399932e+00
2.358821985534226506e+00
2.358821985534226506e+00
2.334633747367778511e+00
2.334633747367778511e+00
2.176378917813653668e+00
2.176378917813653668e+00
2.071938230536820580e+00
2.071938230536820580e+00
2.072313241981261545e+00
2.072313241981261545e+00
2.072313241981261545e+00
2.006123722037415735e+00
2.006123722037415735e+00
1.938434156315805401e+00
1.938434156315805401e+00
1.984560563982054937e+00
1.984560563982054937e+00
1.972372692037720920e+00
1.972372692037720920e+00
2.084876125370036970e+00
2.084876125370036970e+00
2.278194524979400004e+00
2.278194524979400004e+00
2.310445509201330516e+00
2.310445509201330516e+00
2.506764000366222156e+00
2.506764000366222156e+00
2.506764000366222156e+00
2.544640156254768470e+00
2.544640156254768470e+00
2.336133793145542814e+00
2.336133793145542814e+00
2.151253151036103706e+00
2.151253151036103706e+00
2.111501937925351680e+00
2.111501937925351680e+00
2.010623859370708644e+00
2.010623859370708644e+00
1.947996948149052443e+00
1.947996948149052443e+00
2.128377452925199087e+00
2.128377452925199087e+00
2.348696676534318240e+00
2.348696676534318240e+00
2.448074709311197417e+00
2.448074709311197417e+00
2.448074709311197417e+00
2.405510910367137711e+00
2.405510910367137711e+00
2.290007385479293500e+00
2.290007385479293500e+00
2.268631733146153184e+00
2.268631733146153184e+00
2.252131229590746742e+00
2.252131229590746742e+00
2.253443769646290562e+00
2.253443769646290562e+00
2.226255439924313961e+00
2.226255439924313961e+00
2.259818964201788294e+00
2.259818964201788294e+00
2.246506057924130939e+00
2.246506057924130939e+00
2.127627430036317158e+00
2.127627430036317158e+00
2.127627430036317158e+00
2.044562395092623941e+00
2.044562395092623941e+00
2.067063081759087151e+00
2.067063081759087151e+00
2.037437177648243392e+00
2.037437177648243392e+00
2.220067751091036712e+00
2.220067751091036712e+00
2.308382946256904766e+00
2.308382946256904766e+00
2.182004089480269915e+00
2.182004089480269915e+00
2.098189031647694325e+00
2.098189031647694325e+00
2.161565965758232455e+00
2.161565965758232455e+00
2.161565965758232455e+00
2.231318094424268317e+00
2.231318094424268317e+00
2.269756767479476078e+00
2.269756767479476078e+00
2.319258278145695407e+00
2.319258278145695407e+00
2.306507889034699499e+00
2.306507889034699499e+00
2.428574114200262368e+00
2.428574114200262368e+00
2.542015076143681274e+00
2.542015076143681274e+00
2.478825647755364070e+00
2.478825647755364070e+00
2.232630634479812137e+00
2.232630634479812137e+00
2.232630634479812137e+00
2.195316995757927270e+00
2.195316995757927270e+00
2.127252418591876193e+00
2.127252418591876193e+00
1.965059968871120333e+00
1.965059968871120333e+00
1.950997039704580827e+00
1.950997039704580827e+00
2.077750907925656865e+00
2.077750907925656865e+00
2.119377178258613714e+00
2.119377178258613714e+00
2.315320657979064389e+00
2.315320657979064389e+00
2.462325144199957183e+00
2.462325144199957183e+00
2.462325144199957183e+00
2.586641438032166285e+00
2.586641438032166285e+00
2.584766380809961461e+00
2.584766380809961461e+00
2.575953611865596571e+00
2.575953611865596571e+00
2.481263222144230340e+00
2.481263222144230340e+00
2.324695944090090727e+00
2.324695944090090727e+00
2.213505050813318054e+00
2.213505050813318054e+00
2.056750267036957958e+00
2.056750267036957958e+00
2.056750267036957958e+00
1.993373332926419828e+00
1.993373332926419828e+00
1.922683675649281332e+00
1.922683675649281332e+00
1.860056764427625353e+00
1.860056764427625353e+00
1.877682302316354912e+00
1.877682302316354912e+00
1.928683858760338099e+00
1.928683858760338099e+00
2.118814661091952267e+00
2.118814661091952267e+00
2.179191503646961792e+00
2.179191503646961792e+00
2.140190313425092139e+00
2.140190313425092139e+00
2.140190313425092139e+00
2.154628254036072832e+00
2.154628254036072832e+00
2.184629169591357556e+00
2.184629169591357556e+00
2.127814935758537640e+00
2.127814935758537640e+00
2.252693746757408633e+00
2.252693746757408633e+00
2.350384228034303025e+00
2.350384228034303025e+00
2.472637958922086376e+00
2.472637958922086376e+00
2.343071504867702437e+00
2.343071504867702437e+00
2.155565782647175688e+00
2.155565782647175688e+00
2.115627063814203623e+00
2.115627063814203623e+00
2.128939970091860534e+00
2.128939970091860534e+00
2.119564683980834197e+00
2.119564683980834197e+00
2.119564683980834197e+00
2.417136265144810281e+00
2.417136265144810281e+00
2.750521439252906930e+00
2.750521439252906930e+00
2.885525559251686190e+00
2.885525559251686190e+00
2.951715079195531999e+00
2.951715079195531999e+00
2.602391918698690798e+00
2.602391918698690798e+00
2.040249763481551515e+00
2.040249763481551515e+00
1.716614886928922390e+00
1.716614886928922390e+00
1.803805047761467328e+00
1.803805047761467328e+00
1.803805047761467328e+00
1.690926602984710314e+00
1.690926602984710314e+00
1.691489120151371761e+00
1.691489120151371761e+00
1.980810449537644624e+00
1.980810449537644624e+00
2.330133610034486047e+00
2.330133610034486047e+00
2.533202307199316383e+00
2.533202307199316383e+00
2.642143131809442824e+00
2.642143131809442824e+00
2.778459791863765460e+00
2.778459791863765460e+00
2.680394299142429659e+00
2.680394299142429659e+00
2.680394299142429659e+00
2.581016266365550926e+00
2.581016266365550926e+00
2.528514664143802992e+00
2.528514664143802992e+00
2.487263405255287552e+00
2.487263405255287552e+00
2.349634205145421095e+00
2.349634205145421095e+00
2.169066194647053525e+00
2.169066194647053525e+00
2.049437543870357370e+00
2.049437543870357370e+00
1.761803765984069292e+00
1.761803765984069292e+00
1.384542252876369561e+00
1.384542252876369561e+00
1.384542252876369561e+00
1.261538499099704058e+00
1.261538499099704058e+00
1.307852412488174076e+00
1.307852412488174076e+00
1.455794427320169726e+00
1.455794427320169726e+00
1.737053010650959850e+00
1.737053010650959850e+00
2.235068208868678852e+00
2.235068208868678852e+00
2.829648854029969574e+00
2.829648854029969574e+00
2.974403271584215691e+00
2.974403271584215691e+00
2.542765099032563203e+00
2.542765099032563203e+00
2.542765099032563203e+00
2.634080385753959863e+00
2.634080385753959863e+00
2.870337595751823567e+00
2.870337595751823567e+00
2.552515396588030505e+00
2.552515396588030505e+00
2.200379650257881181e+00
2.200379650257881181e+00
1.797054841761528188e+00
1.797054841761528188e+00
1.662800744651631080e+00
1.662800744651631080e+00
2.083563585314493150e+00
2.083563585314493150e+00
2.476575579088717394e+00
2.476575579088717394e+00
2.476575579088717394e+00
2.220067751091036712e+00
2.220067751091036712e+00
2.172441297647023095e+00
2.172441297647023095e+00
2.467012787255470574e+00
2.467012787255470574e+00
2.703269997253333834e+00
2.703269997253333834e+00
2.881962950529496137e+00
2.881962950529496137e+00
2.601641895809808869e+00
2.601641895809808869e+00
2.038187200537125765e+00
2.038187200537125765e+00
2.014186468092898252e+00
2.014186468092898252e+00
2.014186468092898252e+00
1.916120975371562896e+00
1.916120975371562896e+00
1.912933378093814030e+00
1.912933378093814030e+00
2.286632282479323930e+00
2.286632282479323930e+00
2.391260475478377501e+00
2.391260475478377501e+00
1.932433973204748634e+00
1.932433973204748634e+00
1.877119785149693465e+00
1.877119785149693465e+00
2.071000701925717724e+00
2.071000701925717724e+00
2.167566148869289222e+00
2.167566148869289222e+00
1.994123355815301979e+00
1.994123355815301979e+00
1.994123355815301979e+00
2.110376903592028786e+00
2.110376903592028786e+00
2.210317453535568966e+00
2.210317453535568966e+00
2.272194341868343237e+00
2.272194341868343237e+00
2.350009216589862060e+00
2.350009216589862060e+00
2.260381481368449741e+00
2.260381481368449741e+00
2.103814203314310571e+00
2.103814203314310571e+00
2.361259559923093665e+00
2.361259559923093665e+00
2.201692190313425002e+00
2.201692190313425002e+00
2.201692190313425002e+00
2.039124729148228621e+00
2.039124729148228621e+00
2.122377269814142320e+00
2.122377269814142320e+00
2.251568712424085295e+00
2.251568712424085295e+00
2.137377727591784460e+00
2.137377727591784460e+00
1.955684682760093995e+00
1.955684682760093995e+00
1.887432599871822214e+00
1.887432599871822214e+00
2.085813653981139382e+00
2.085813653981139382e+00
2.585141392254402426e+00
2.585141392254402426e+00
2.585141392254402426e+00
2.748458876308481180e+00
2.748458876308481180e+00
2.315133152256843907e+00
2.315133152256843907e+00
1.521608935819574571e+00
1.521608935819574571e+00
1.389604907376323695e+00
1.389604907376323695e+00
1.693739188818018215e+00
1.693739188818018215e+00
2.149940610980559885e+00
2.149940610980559885e+00
2.276131962034974254e+00
2.276131962034974254e+00
2.543515121921445576e+00
2.543515121921445576e+00
2.789710135196997065e+00
2.789710135196997065e+00
2.789710135196997065e+00
2.827961302529984788e+00
2.827961302529984788e+00
2.882525467696157584e+00
2.882525467696157584e+00
3.083906613361003579e+00
3.083906613361003579e+00
3.018467116306039699e+00
3.018467116306039699e+00
2.854774620807519980e+00
2.854774620807519980e+00
2.630892788476211219e+00
2.630892788476211219e+00
2.405510910367137711e+00
2.405510910367137711e+00
2.200942167424543072e+00
2.200942167424543072e+00
2.200942167424543072e+00
1.942371776482436641e+00
1.942371776482436641e+00
1.587235938596758933e+00
1.587235938596758933e+00
1.648737815485091796e+00
1.648737815485091796e+00
1.710427198095644918e+00
1.710427198095644918e+00
1.940309213538010891e+00
1.940309213538010891e+00
2.226817957090975852e+00
2.226817957090975852e+00
2.293382488479262626e+00
2.293382488479262626e+00
2.392198004089480357e+00
2.392198004089480357e+00
2.392198004089480357e+00
2.428011597033600921e+00
2.428011597033600921e+00
2.497576219977416301e+00
2.497576219977416301e+00
2.620579973754082026e+00
2.620579973754082026e+00
2.552515396588030505e+00
2.552515396588030505e+00
2.464012695699941968e+00
2.464012695699941968e+00
2.631455305642872666e+00
2.631455305642872666e+00
2.452762352366710363e+00
2.452762352366710363e+00
2.117127109591967482e+00
2.117127109591967482e+00
1.772304086428418968e+00
1.772304086428418968e+00
1.772304086428418968e+00
1.718677449873348362e+00
1.718677449873348362e+00
2.053750175481429796e+00
2.053750175481429796e+00
2.007061250648518591e+00
2.007061250648518591e+00
1.920621112704855360e+00
1.920621112704855360e+00
2.085438642536698417e+00
2.085438642536698417e+00
2.465512741477706271e+00
2.465512741477706271e+00
2.480138187810907002e+00
2.480138187810907002e+00
2.797960386974700064e+00
2.797960386974700064e+00
2.797960386974700064e+00
2.528702169866023475e+00
2.528702169866023475e+00
2.560203131199072502e+00
2.560203131199072502e+00
2.656206060975981664e+00
2.656206060975981664e+00
2.241255897701956545e+00
2.241255897701956545e+00
1.602048890652180591e+00
1.602048890652180591e+00
1.539984496597186059e+00
1.539984496597186059e+00
1.904308114871669622e+00
1.904308114871669622e+00
2.369509811700796664e+00
2.369509811700796664e+00
2.369509811700796664e+00
2.469075350199895880e+00
2.469075350199895880e+00
2.339321390423291458e+00
2.339321390423291458e+00
1.998248481704153479e+00
1.998248481704153479e+00
1.941621753593554489e+00
1.941621753593554489e+00
1.912370860927152361e+00
1.912370860927152361e+00
2.044374889370403459e+00
2.044374889370403459e+00
2.417698782311472172e+00
2.417698782311472172e+00
2.482950773644215126e+00
2.482950773644215126e+00
2.482950773644215126e+00
2.028061891537217498e+00
2.028061891537217498e+00
2.153128208258308529e+00
2.153128208258308529e+00
2.493638599810785283e+00
2.493638599810785283e+00
2.362197088534196077e+00
2.362197088534196077e+00
2.023561754203924590e+00
2.023561754203924590e+00
1.875244727927487975e+00
1.875244727927487975e+00
1.966935026093325822e+00
1.966935026093325822e+00
1.923621204260383966e+00
1.923621204260383966e+00
1.923621204260383966e+00
1.830993377483443707e+00
1.830993377483443707e+00
2.359572008423108880e+00
2.359572008423108880e+00
2.924714255195776325e+00
2.924714255195776325e+00
3.126095400860621876e+00
3.126095400860621876e+00
3.064406018250068975e+00
3.064406018250068975e+00
2.899963499862666882e+00
2.899963499862666882e+00
2.841274208807642143e+00
2.841274208807642143e+00
2.703082491531113352e+00
2.703082491531113352e+00
2.703082491531113352e+00
2.688832056642353585e+00
2.688832056642353585e+00
2.653580980864894912e+00
2.653580980864894912e+00
2.299382671590319838e+00
2.299382671590319838e+00
1.954747154148991584e+00
1.954747154148991584e+00
2.224942899868770141e+00
2.224942899868770141e+00
2.172441297647023095e+00
2.172441297647023095e+00
2.244818506424146598e+00
2.244818506424146598e+00
2.222317819757682944e+00
2.222317819757682944e+00
2.222317819757682944e+00
2.054125186925870761e+00
2.054125186925870761e+00
1.709864680928983471e+00
1.709864680928983471e+00
1.533984313486129292e+00
1.533984313486129292e+00
1.839243629261146928e+00
1.839243629261146928e+00
2.047749992370372585e+00
2.047749992370372585e+00
2.160628437147130043e+00
2.160628437147130043e+00
2.217442670979949515e+00
2.217442670979949515e+00
2.408323496200445835e+00
2.408323496200445835e+00
2.203004730368968822e+00
2.203004730368968822e+00
2.186504226813562823e+00
2.186504226813562823e+00
2.369134800256355700e+00
2.369134800256355700e+00
2.369134800256355700e+00
2.700832422864467564e+00
2.700832422864467564e+00
2.769459517197180087e+00
2.769459517197180087e+00
2.519139378032776655e+00
2.519139378032776655e+00
2.232255623035371173e+00
2.232255623035371173e+00
2.123127292703024249e+00
2.123127292703024249e+00
2.147690542313913653e+00
2.147690542313913653e+00
2.203004730368968822e+00
2.203004730368968822e+00
2.282507156590471986e+00
2.282507156590471986e+00
2.282507156590471986e+00
2.085813653981139382e+00
2.085813653981139382e+00
2.218005188146610962e+00
2.218005188146610962e+00
2.266569170201727434e+00
2.266569170201727434e+00
2.280819605090487201e+00
2.280819605090487201e+00
2.424823999755851833e+00
2.424823999755851833e+00
2.398760704367198571e+00
2.398760704367198571e+00
2.199442121646778769e+00
2.199442121646778769e+00
2.386010315256203107e+00
2.386010315256203107e+00
2.425949034089175171e+00
2.425949034089175171e+00
2.425949034089175171e+00
2.872400158696249317e+00
2.872400158696249317e+00
2.620767479476302064e+00
2.620767479476302064e+00
2.037249671926022909e+00
2.037249671926022909e+00
2.076813379314554453e+00
2.076813379314554453e+00
2.222317819757682944e+00
2.222317819757682944e+00
2.291132419812616394e+00
2.291132419812616394e+00
2.360884548478652700e+00
2.360884548478652700e+00
2.220255256813257638e+00
2.220255256813257638e+00
2.185754203924680450e+00
2.185754203924680450e+00
2.185754203924680450e+00
1.972372692037720920e+00
1.972372692037720920e+00
1.908808252204962308e+00
1.908808252204962308e+00
1.940496719260231373e+00
1.940496719260231373e+00
1.698239326151310680e+00
1.698239326151310680e+00
1.409480513931699708e+00
1.409480513931699708e+00
1.596423718985564788e+00
1.596423718985564788e+00
2.243880977813043742e+00
2.243880977813043742e+00
3.102844691305276736e+00
3.102844691305276736e+00
3.553420941801202382e+00
3.553420941801202382e+00
3.254161809137241512e+00
3.254161809137241512e+00
3.254161809137241512e+00
2.575016083254493715e+00
2.575016083254493715e+00
2.310633014923550999e+00
2.310633014923550999e+00
2.213505050813318054e+00
2.213505050813318054e+00
2.209379924924466998e+00
2.209379924924466998e+00
2.307070406201360946e+00
2.307070406201360946e+00
2.261506515701773079e+00
2.261506515701773079e+00
2.511264137699515064e+00
2.511264137699515064e+00
2.511264137699515064e+00
2.852712057863094230e+00
2.852712057863094230e+00
2.866212469862972068e+00
2.866212469862972068e+00
2.570140934476760286e+00
2.570140934476760286e+00
2.247068575090792386e+00
2.247068575090792386e+00
2.002936124759666647e+00
2.002936124759666647e+00
2.103064180425428198e+00
2.103064180425428198e+00
2.325820978423414065e+00
2.325820978423414065e+00
2.371947386089663379e+00
2.371947386089663379e+00
2.180316537980285130e+00
2.180316537980285130e+00
2.180316537980285130e+00
2.375322489089632505e+00
2.375322489089632505e+00
2.617579882198553420e+00
2.617579882198553420e+00
2.401573290200506694e+00
2.401573290200506694e+00
1.954747154148991584e+00
1.954747154148991584e+00
1.671988525040437157e+00
1.671988525040437157e+00
2.039499740592669585e+00
2.039499740592669585e+00
2.273319376201666131e+00
2.273319376201666131e+00
2.156128299813837135e+00
2.156128299813837135e+00
2.156128299813837135e+00
1.955497177037873513e+00
1.955497177037873513e+00
2.072500747703482027e+00
2.072500747703482027e+00
2.316820703756828248e+00
2.316820703756828248e+00
2.341383953367717208e+00
2.341383953367717208e+00
2.552890408032471470e+00
2.552890408032471470e+00
2.415261207922605013e+00
2.415261207922605013e+00
2.202254707480086449e+00
2.202254707480086449e+00
2.067625598925748598e+00
2.067625598925748598e+00
2.067625598925748598e+00
1.997310953093050845e+00
1.997310953093050845e+00
2.037062166203802427e+00
2.037062166203802427e+00
2.405135898922696747e+00
2.405135898922696747e+00
2.358446974089785542e+00
2.358446974089785542e+00
2.229630542924283532e+00
2.229630542924283532e+00
2.294507522812585520e+00
2.294507522812585520e+00
2.091251319925535146e+00
2.091251319925535146e+00
2.060312875759148010e+00
2.060312875759148010e+00
2.396698141422773265e+00
2.396698141422773265e+00
2.396698141422773265e+00
2.460825098422192880e+00
2.460825098422192880e+00
2.632955351420636525e+00
2.632955351420636525e+00
2.765709402752769552e+00
2.765709402752769552e+00
2.911963866084780417e+00
2.911963866084780417e+00
2.863399884029663944e+00
2.863399884029663944e+00
2.399698232978301426e+00
2.399698232978301426e+00
2.100626606036561483e+00
2.100626606036561483e+00
2.131002533036286284e+00
2.131002533036286284e+00
1.950059511093478193e+00
1.950059511093478193e+00
1.950059511093478193e+00
1.663738273262733935e+00
1.663738273262733935e+00
1.586298409985656299e+00
1.586298409985656299e+00
1.627362163151951702e+00
1.627362163151951702e+00
1.946684408093508845e+00
1.946684408093508845e+00
2.251193700979644330e+00
2.251193700979644330e+00
2.412073610644855925e+00
2.412073610644855925e+00
2.538077455977050256e+00
2.538077455977050256e+00
2.637455488753929433e+00
2.637455488753929433e+00
2.602204412976470316e+00
2.602204412976470316e+00
2.602204412976470316e+00
2.743208716086306342e+00
2.743208716086306342e+00
2.505451460310678335e+00
2.505451460310678335e+00
2.557578051087984861e+00
2.557578051087984861e+00
2.738708578753013434e+00
2.738708578753013434e+00
2.561328165532395840e+00
2.561328165532395840e+00
2.417511276589251690e+00
2.417511276589251690e+00
2.388447889645069822e+00
2.388447889645069822e+00
2.388447889645069822e+00
2.436261848811303921e+00
2.436261848811303921e+00
2.215942625202185212e+00
2.215942625202185212e+00
2.098001525925473842e+00
2.098001525925473842e+00
2.202442213202307375e+00
2.202442213202307375e+00
2.376447523422955843e+00
2.376447523422955843e+00
2.306320383312479017e+00
2.306320383312479017e+00
2.013623950926236805e+00
2.013623950926236805e+00
1.646300241096224859e+00
1.646300241096224859e+00
1.750740928373058169e+00
1.750740928373058169e+00
1.750740928373058169e+00
2.218380199591051927e+00
2.218380199591051927e+00
2.423511459700308013e+00
2.423511459700308013e+00
2.491201025421918569e+00
2.491201025421918569e+00
2.391822992645039392e+00
2.391822992645039392e+00
2.502638874477370656e+00
2.502638874477370656e+00
2.462887661366619074e+00
2.462887661366619074e+00
2.191941892757957699e+00
2.191941892757957699e+00
2.267694204535050773e+00
2.267694204535050773e+00
2.267694204535050773e+00
2.602016907254249833e+00
2.602016907254249833e+00
2.812585833307901240e+00
2.812585833307901240e+00
2.646268257698293880e+00
2.646268257698293880e+00
2.478450636310922661e+00
2.478450636310922661e+00
2.417886288033692654e+00
2.417886288033692654e+00
2.299570177312540320e+00
2.299570177312540320e+00
2.388635395367290304e+00
2.388635395367290304e+00
2.404948393200476264e+00
2.404948393200476264e+00
2.404948393200476264e+00
2.211442487868892304e+00
2.211442487868892304e+00
2.160253425702688634e+00
2.160253425702688634e+00
2.233568163090914993e+00
2.233568163090914993e+00
2.176753929258095077e+00
2.176753929258095077e+00
2.016811548203985893e+00
2.016811548203985893e+00
1.944434339426862390e+00
1.944434339426862390e+00
2.065750541703543330e+00
2.065750541703543330e+00
2.299757683034760802e+00
2.299757683034760802e+00
2.299757683034760802e+00
2.389197912533951751e+00
2.389197912533951751e+00
2.342133976256599581e+00
2.342133976256599581e+00
2.289819879757073018e+00
2.289819879757073018e+00
2.449574755088961275e+00
2.449574755088961275e+00
2.311945554979094819e+00
2.311945554979094819e+00
1.846743858149967998e+00
1.846743858149967998e+00
1.861744315927610138e+00
1.861744315927610138e+00
2.292632465590380253e+00
2.292632465590380253e+00
2.292632465590380253e+00
2.633517868587297972e+00
2.633517868587297972e+00
2.725958189642017970e+00
2.725958189642017970e+00
2.267131687368389326e+00
2.267131687368389326e+00
2.255693838312936794e+00
2.255693838312936794e+00
2.497951231421857266e+00
2.497951231421857266e+00
2.457637501144443792e+00
2.457637501144443792e+00
2.126502395702994264e+00
2.126502395702994264e+00
1.936184087649159391e+00
1.936184087649159391e+00
1.936184087649159391e+00
2.342883999145481511e+00
2.342883999145481511e+00
2.437386883144627259e+00
2.437386883144627259e+00
2.486138370921964214e+00
2.486138370921964214e+00
2.234318185979796478e+00
2.234318185979796478e+00
1.871119602038636476e+00
1.871119602038636476e+00
1.767428937650685317e+00
1.767428937650685317e+00
2.040999786370433888e+00
2.040999786370433888e+00
2.314383129367961978e+00
2.314383129367961978e+00
2.409261024811548246e+00
2.409261024811548246e+00
2.699707388531144225e+00
2.699707388531144225e+00
2.699707388531144225e+00
2.667831415753654234e+00
2.667831415753654234e+00
2.707020111697744813e+00
2.707020111697744813e+00
2.642705648976104271e+00
2.642705648976104271e+00
2.170753746147038310e+00
2.170753746147038310e+00
1.956247199926755442e+00
1.956247199926755442e+00
1.993560838648640532e+00
1.993560838648640532e+00
2.038187200537125765e+00
2.038187200537125765e+00
1.976685323648793124e+00
1.976685323648793124e+00
1.976685323648793124e+00
2.109814386425366894e+00
2.109814386425366894e+00
2.320758323923459709e+00
2.320758323923459709e+00
2.576328623310037536e+00
2.576328623310037536e+00
2.644768211920529577e+00
2.644768211920529577e+00
2.490826013977477604e+00
2.490826013977477604e+00
2.521576952421643814e+00
2.521576952421643814e+00
2.517076815088350905e+00
2.517076815088350905e+00
2.281382122257148648e+00
2.281382122257148648e+00
2.281382122257148648e+00
2.354509353923154524e+00
2.354509353923154524e+00
2.358821985534226506e+00
2.358821985534226506e+00
2.468700338755454915e+00
2.468700338755454915e+00
2.501326334421826836e+00
2.501326334421826836e+00
2.321883358256782603e+00
2.321883358256782603e+00
2.199254615924558287e+00
2.199254615924558287e+00
2.148065553758354618e+00
2.148065553758354618e+00
2.278007019257179522e+00
2.278007019257179522e+00
2.278007019257179522e+00
2.180129032258064647e+00
2.180129032258064647e+00
1.979122898037659839e+00
1.979122898037659839e+00
1.918183538315988645e+00
1.918183538315988645e+00
2.083376079592272667e+00
2.083376079592272667e+00
2.110001892147587377e+00
2.110001892147587377e+00
2.224192876979888212e+00
2.224192876979888212e+00
2.362197088534196077e+00
2.362197088534196077e+00
2.463825189977721486e+00
2.463825189977721486e+00
2.463825189977721486e+00
2.713020294808801580e+00
2.713020294808801580e+00
2.604641987365337030e+00
2.604641987365337030e+00
2.631642811365093149e+00
2.631642811365093149e+00
2.561515671254616322e+00
2.561515671254616322e+00
2.193254432813501520e+00
2.193254432813501520e+00
2.053937681203650278e+00
2.053937681203650278e+00
2.231505600146489243e+00
2.231505600146489243e+00
2.275381939146092325e+00
2.275381939146092325e+00
2.447324686422315043e+00
2.447324686422315043e+00
2.447324686422315043e+00
2.576328623310037536e+00
2.576328623310037536e+00
2.344946562089907705e+00
2.344946562089907705e+00
2.231880611590930208e+00
2.231880611590930208e+00
2.251568712424085295e+00
2.251568712424085295e+00
2.218567705313272853e+00
2.218567705313272853e+00
2.213505050813318054e+00
2.213505050813318054e+00
2.155003265480513797e+00
2.155003265480513797e+00
2.312320566423536228e+00
2.312320566423536228e+00
2.312320566423536228e+00
2.328258552812280335e+00
2.328258552812280335e+00
2.176191412091433186e+00
2.176191412091433186e+00
2.083376079592272667e+00
2.083376079592272667e+00
2.256256355479598685e+00
2.256256355479598685e+00
2.384322763756218322e+00
2.384322763756218322e+00
2.411698599200414961e+00
2.411698599200414961e+00
2.054125186925870761e+00
2.054125186925870761e+00
2.049625049592577852e+00
2.049625049592577852e+00
2.049625049592577852e+00
2.381697683645130681e+00
2.381697683645130681e+00
2.641018097476119486e+00
2.641018097476119486e+00
2.469450361644337288e+00
2.469450361644337288e+00
2.436824365977965812e+00
2.436824365977965812e+00
2.559078096865749163e+00
2.559078096865749163e+00
2.535077364421521651e+00
2.535077364421521651e+00
2.535827387310404024e+00
2.535827387310404024e+00
2.287569811090426342e+00
2.287569811090426342e+00
2.287569811090426342e+00
2.128377452925199087e+00
2.128377452925199087e+00
2.156878322702719064e+00
2.156878322702719064e+00
2.125752372814111890e+00
2.125752372814111890e+00
2.273319376201666131e+00
2.273319376201666131e+00
2.394448072756126589e+00
2.394448072756126589e+00
2.403073335978270997e+00
2.403073335978270997e+00
2.442637043366802097e+00
2.442637043366802097e+00
2.583641346476638123e+00
2.583641346476638123e+00
2.583641346476638123e+00
2.630142765587328846e+00
2.630142765587328846e+00
2.653393475142674429e+00
2.653393475142674429e+00
2.515764275032807085e+00
2.515764275032807085e+00
2.497201208532975336e+00
2.497201208532975336e+00
2.358259468367565059e+00
2.358259468367565059e+00
2.192316904202398664e+00
2.192316904202398664e+00
2.019811639759514499e+00
2.019811639759514499e+00
1.921558641315958216e+00
1.921558641315958216e+00
1.885745048371837429e+00
1.885745048371837429e+00
1.962809900204474101e+00
1.962809900204474101e+00
1.979310403759880321e+00
1.979310403759880321e+00
1.979310403759880321e+00
2.140190313425092139e+00
2.140190313425092139e+00
2.462512649922177665e+00
2.462512649922177665e+00
2.595079195532090210e+00
2.595079195532090210e+00
2.664456312753685108e+00
2.664456312753685108e+00
2.610454664754173315e+00
2.610454664754173315e+00
2.452199835200048916e+00
2.452199835200048916e+00
2.523264503921628599e+00
2.523264503921628599e+00
2.510326609088412209e+00
2.510326609088412209e+00
2.395573107089449927e+00
2.395573107089449927e+00
2.395573107089449927e+00
2.463637684255501004e+00
2.463637684255501004e+00
2.517639332255012796e+00
2.517639332255012796e+00
2.397823175756096159e+00
2.397823175756096159e+00
2.287944822534867306e+00
2.287944822534867306e+00
2.502451368755150174e+00
2.502451368755150174e+00
2.536202398754844989e+00
2.536202398754844989e+00
2.472825464644306859e+00
2.472825464644306859e+00
2.376822534867396808e+00
2.376822534867396808e+00
2.376822534867396808e+00
2.342508987701040546e+00
2.342508987701040546e+00
2.150128116702780368e+00
2.150128116702780368e+00
2.099689077425458628e+00
2.099689077425458628e+00
2.059562852870265637e+00
2.059562852870265637e+00
1.987935666982024729e+00
1.987935666982024729e+00
1.952309579760124647e+00
1.952309579760124647e+00
2.266006653035065987e+00
2.266006653035065987e+00
2.500951322977385871e+00
2.500951322977385871e+00
2.500951322977385871e+00
2.602391918698690798e+00
2.602391918698690798e+00
2.618892422254097241e+00
2.618892422254097241e+00
2.468700338755454915e+00
2.468700338755454915e+00
2.396510635700552783e+00
2.396510635700552783e+00
2.305195348979155678e+00
2.305195348979155678e+00
2.405135898922696747e+00
2.405135898922696747e+00
2.481263222144230340e+00
2.481263222144230340e+00
2.380010132145145896e+00
2.380010132145145896e+00
2.226255439924313961e+00
2.226255439924313961e+00
2.226255439924313961e+00
2.010623859370708644e+00
2.010623859370708644e+00
2.044562395092623941e+00
2.044562395092623941e+00
2.213505050813318054e+00
2.213505050813318054e+00
2.350196722312082542e+00
2.350196722312082542e+00
2.305382854701376161e+00
2.305382854701376161e+00
2.215755119479964730e+00
2.215755119479964730e+00
2.260381481368449741e+00
2.260381481368449741e+00
2.469637867366557771e+00
2.469637867366557771e+00
2.469637867366557771e+00
2.439261940366832526e+00
2.439261940366832526e+00
2.480700704977568893e+00
2.480700704977568893e+00
2.583453840754417641e+00
2.583453840754417641e+00
2.484450819421979428e+00
2.484450819421979428e+00
2.436636860255744885e+00
2.436636860255744885e+00
2.360134525589770327e+00
2.360134525589770327e+00
2.164566057313760616e+00
2.164566057313760616e+00
2.108501846369823074e+00
2.108501846369823074e+00
2.108501846369823074e+00
2.287944822534867306e+00
2.287944822534867306e+00
2.330696127201147494e+00
2.330696127201147494e+00
2.338758873256630455e+00
2.338758873256630455e+00
2.335946287423322332e+00
2.335946287423322332e+00
2.335946287423322332e+00
2.335946287423322332e+00
2.378322580645161111e+00
2.378322580645161111e+00
2.240880886257515137e+00
2.240880886257515137e+00
2.117314615314187964e+00
2.117314615314187964e+00
2.075500839259010633e+00
2.075500839259010633e+00
2.075500839259010633e+00
2.131190038758506766e+00
2.131190038758506766e+00
2.333508713034455617e+00
2.333508713034455617e+00
2.502263863032929692e+00
2.502263863032929692e+00
2.497576219977416301e+00
2.497576219977416301e+00
2.442449537644581614e+00
2.442449537644581614e+00
2.461012604144413807e+00
2.461012604144413807e+00
2.552140385143589540e+00
2.552140385143589540e+00
2.695019745475630835e+00
2.695019745475630835e+00
2.695019745475630835e+00
2.694644734031189870e+00
2.694644734031189870e+00
2.507514023255104085e+00
2.507514023255104085e+00
2.273131870479445649e+00
2.273131870479445649e+00
2.120502212591937052e+00
2.120502212591937052e+00
2.140002807702871657e+00
2.140002807702871657e+00
2.154815759758293314e+00
2.154815759758293314e+00
2.109064363536484965e+00
2.109064363536484965e+00
2.038374706259346247e+00
2.038374706259346247e+00
2.230380565813165905e+00
2.230380565813165905e+00
2.230380565813165905e+00
2.319633289590136371e+00
2.319633289590136371e+00
2.487825922421948999e+00
2.487825922421948999e+00
2.556453016754661967e+00
2.556453016754661967e+00
2.611392193365276171e+00
2.611392193365276171e+00
2.576141117587817053e+00
2.576141117587817053e+00
2.427449079866939474e+00
2.427449079866939474e+00
2.373259926145207199e+00
2.373259926145207199e+00
2.458950041199987613e+00
2.458950041199987613e+00
2.408323496200445835e+00
2.408323496200445835e+00
2.408323496200445835e+00
2.504888943144016888e+00
2.504888943144016888e+00
2.505638966032898818e+00
2.505638966032898818e+00
2.333696218756676100e+00
2.333696218756676100e+00
2.244255989257484707e+00
2.244255989257484707e+00
2.147503036591693171e+00
2.147503036591693171e+00
2.087876216925565576e+00
2.087876216925565576e+00
2.068938138981292418e+00
2.068938138981292418e+00
2.113752006591998356e+00
2.113752006591998356e+00
2.113752006591998356e+00
2.242755943479720404e+00
2.242755943479720404e+00
2.377572557756279181e+00
2.377572557756279181e+00
2.464575212866603859e+00
2.464575212866603859e+00
2.418636310922574584e+00
2.418636310922574584e+00
2.438886928922391562e+00
2.438886928922391562e+00
2.424261482589190386e+00
2.424261482589190386e+00
2.507701528977324568e+00
2.507701528977324568e+00
2.539765007477034597e+00
2.539765007477034597e+00
2.539765007477034597e+00
2.280257087923826198e+00
2.280257087923826198e+00
2.069875667592394830e+00
2.069875667592394830e+00
2.064250495925779028e+00
2.064250495925779028e+00
2.176566423535874595e+00
2.176566423535874595e+00
2.313633106479079604e+00
2.313633106479079604e+00
2.366697225867488541e+00
2.366697225867488541e+00
2.388072878200628413e+00
2.388072878200628413e+00
2.408135990478225352e+00
2.408135990478225352e+00
2.408135990478225352e+00
2.376260017700735361e+00
2.376260017700735361e+00
2.351509262367625919e+00
2.351509262367625919e+00
2.288882351145970162e+00
2.288882351145970162e+00
2.311195532090212890e+00
2.311195532090212890e+00
2.455199926755577522e+00
2.455199926755577522e+00
2.375134983367412023e+00
2.375134983367412023e+00
2.203942258980071234e+00
2.203942258980071234e+00
2.093501388592180934e+00
2.093501388592180934e+00
2.093501388592180934e+00
2.068563127536851454e+00
2.068563127536851454e+00
2.181629078035828950e+00
2.181629078035828950e+00
2.362197088534196077e+00
2.362197088534196077e+00
2.531139744254890633e+00
2.531139744254890633e+00
2.530014709921567295e+00
2.530014709921567295e+00
2.419761345255897922e+00
2.419761345255897922e+00
2.409073519089327764e+00
2.409073519089327764e+00
2.414136173589282119e+00
2.414136173589282119e+00
2.359759514145329362e+00
2.359759514145329362e+00
2.359759514145329362e+00
2.356759422589800756e+00
2.356759422589800756e+00
2.351884273812066883e+00
2.351884273812066883e+00
2.175253883480330774e+00
2.175253883480330774e+00
2.136252693258461566e+00
2.136252693258461566e+00
2.170378734702597345e+00
2.170378734702597345e+00
2.184254158146916147e+00
2.184254158146916147e+00
2.248568620868556689e+00
2.248568620868556689e+00
2.285507248146000592e+00
2.285507248146000592e+00
2.322633381145664977e+00
2.322633381145664977e+00
2.322633381145664977e+00
2.395010589922788480e+00
2.395010589922788480e+00
2.516889309366130423e+00
2.516889309366130423e+00
2.518014343699453761e+00
2.518014343699453761e+00
2.460825098422192880e+00
2.460825098422192880e+00
2.424261482589190386e+00
2.424261482589190386e+00
2.444699606311227846e+00
2.444699606311227846e+00
2.371197363200781449e+00
2.371197363200781449e+00
2.311383037812433372e+00
2.311383037812433372e+00
2.311383037812433372e+00
2.215380108035523765e+00
2.215380108035523765e+00
2.123689809869686140e+00
2.123689809869686140e+00
2.168128666035950669e+00
2.168128666035950669e+00
2.254006286812952009e+00
2.254006286812952009e+00
2.229630542924283532e+00
2.229630542924283532e+00
2.338196356089969008e+00
2.338196356089969008e+00
2.461950132755516218e+00
2.461950132755516218e+00
2.409823541978209693e+00
2.409823541978209693e+00
2.409823541978209693e+00
2.453324869533372254e+00
2.453324869533372254e+00
2.515764275032807085e+00
2.515764275032807085e+00
2.432511734366893830e+00
2.432511734366893830e+00
2.358259468367565059e+00
2.358259468367565059e+00
2.275194433423871843e+00
2.275194433423871843e+00
2.193441938535722002e+00
2.193441938535722002e+00
2.214067567979979945e+00
2.214067567979979945e+00
2.237505783257545566e+00
2.237505783257545566e+00
2.237505783257545566e+00
2.274631916257209951e+00
2.284944730979339145e+00
2.284944730979339145e+00
2.284944730979339145e+00
2.218755211035493335e+00
2.218755211035493335e+00
2.249506149479659545e+00
2.249506149479659545e+00
2.288882351145970162e+00
2.288882351145970162e+00
2.347009125034333454e+00
2.347009125034333454e+00
2.439636951811273491e+00
2.439636951811273491e+00
2.435886837366862956e+00
2.435886837366862956e+00
2.448262215033417899e+00
2.448262215033417899e+00
2.456512466811120898e+00
2.456512466811120898e+00
2.295445051423688376e+00
2.295445051423688376e+00
2.295445051423688376e+00
2.173378826258125951e+00
2.173378826258125951e+00
2.101189123203222930e+00
2.101189123203222930e+00
2.089938779869991325e+00
2.089938779869991325e+00
2.133627613147373925e+00
2.133627613147373925e+00
2.193254432813501520e+00
2.193254432813501520e+00
2.257756401257362544e+00
2.257756401257362544e+00
2.286069765312662039e+00
2.286069765312662039e+00
2.315883175145725836e+00
2.315883175145725836e+00
2.315883175145725836e+00
2.377385052034058699e+00
2.377385052034058699e+00
2.508826563310647906e+00
2.508826563310647906e+00
2.547640247810297076e+00
2.547640247810297076e+00
2.553640430921353843e+00
2.553640430921353843e+00
2.549515305032502344e+00
2.549515305032502344e+00
2.410198553422650658e+00
2.410198553422650658e+00
2.384697775200659287e+00
2.384697775200659287e+00
2.230193060090945423e+00
2.230193060090945423e+00
2.230193060090945423e+00
2.062562944425794242e+00
2.062562944425794242e+00
2.040062257759331033e+00
2.040062257759331033e+00
2.169253700369274007e+00
2.169253700369274007e+00
2.334446241645558029e+00
2.334446241645558029e+00
2.419761345255897922e+00
2.419761345255897922e+00
2.364447157200842309e+00
2.364447157200842309e+00
2.350384228034303025e+00
2.350384228034303025e+00
2.312695577867977192e+00
2.312695577867977192e+00
2.312695577867977192e+00
2.374384960478530537e+00
2.374384960478530537e+00
2.551952879421369058e+00
2.551952879421369058e+00
2.498138737144077748e+00
2.498138737144077748e+00
2.339133884701071420e+00
2.339133884701071420e+00
2.242943449201941331e+00
2.242943449201941331e+00
2.128002441480758122e+00
2.128002441480758122e+00
2.095938962981048093e+00
2.095938962981048093e+00
2.167753654591509704e+00
2.167753654591509704e+00
2.279132053590502860e+00
2.279132053590502860e+00
2.279132053590502860e+00
2.399323221533860018e+00
2.399323221533860018e+00
2.349821710867641578e+00
2.349821710867641578e+00
2.220817773979919085e+00
2.220817773979919085e+00
2.268256721701712220e+00
2.268256721701712220e+00
2.343634022034363884e+00
2.343634022034363884e+00
2.364634662923062791e+00
2.364634662923062791e+00
2.474700521866512126e+00
2.474700521866512126e+00
2.416761253700369316e+00
2.416761253700369316e+00
2.416761253700369316e+00
2.324695944090090727e+00
2.324695944090090727e+00
2.283257179479354360e+00
2.283257179479354360e+00
2.242380932035279439e+00
2.242380932035279439e+00
2.246506057924130939e+00
2.246506057924130939e+00
2.272194341868343237e+00
2.272194341868343237e+00
2.317383220923490139e+00
2.317383220923490139e+00
2.419761345255897922e+00
2.419761345255897922e+00
2.403073335978270997e+00
2.403073335978270997e+00
2.403073335978270997e+00
2.355259376812036454e+00
2.355259376812036454e+00
2.436074343089083438e+00
2.436074343089083438e+00
2.367072237311929506e+00
2.367072237311929506e+00
2.350759239478743989e+00
2.350759239478743989e+00
2.397823175756096159e+00
2.397823175756096159e+00
2.372697408978545752e+00
2.372697408978545752e+00
2.309507980590228104e+00
2.309507980590228104e+00
2.185566698202459968e+00
2.185566698202459968e+00
2.185566698202459968e+00
2.138315256202887316e+00
2.138315256202887316e+00
2.164003540147099169e+00
2.164003540147099169e+00
2.178441480758079862e+00
2.178441480758079862e+00
2.222880336924344391e+00
2.222880336924344391e+00
2.250443678090761956e+00
2.250443678090761956e+00
2.246131046479689974e+00
2.246131046479689974e+00
2.366322214423047576e+00
2.366322214423047576e+00
2.460825098422192880e+00
2.460825098422192880e+00
2.460825098422192880e+00
2.537327433088168327e+00
2.537327433088168327e+00
2.594891689809869728e+00
2.594891689809869728e+00
2.439074434644612044e+00
2.439074434644612044e+00
2.183504135258034218e+00
2.183504135258034218e+00
2.106814294869838289e+00
2.106814294869838289e+00
2.230568071535386387e+00
2.230568071535386387e+00
2.326946012756737403e+00
2.326946012756737403e+00
2.376635029145176325e+00
2.376635029145176325e+00
2.358259468367565059e+00
2.358259468367565059e+00
2.358259468367565059e+00
2.341946470534379099e+00
2.341946470534379099e+00
2.397260658589434712e+00
2.397260658589434712e+00
2.386010315256203107e+00
2.386010315256203107e+00
2.384885280922879769e+00
2.384885280922879769e+00
2.384510269478438804e+00
2.384510269478438804e+00
2.370259834589678594e+00
2.370259834589678594e+00
2.395385601367229444e+00
2.395385601367229444e+00
2.328258552812280335e+00
2.328258552812280335e+00
2.328258552812280335e+00
2.311008026367992407e+00
2.311008026367992407e+00
2.278382030701620931e+00
2.278382030701620931e+00
2.179566515091402756e+00
2.179566515091402756e+00
2.200942167424543072e+00
2.200942167424543072e+00
2.242943449201941331e+00
2.242943449201941331e+00
2.227567979979857782e+00
2.227567979979857782e+00
2.248943632312997654e+00
2.248943632312997654e+00
2.284944730979339145e+00
2.284944730979339145e+00
2.284944730979339145e+00
2.313633106479079604e+00
2.313633106479079604e+00
2.383760246589556875e+00
2.383760246589556875e+00
2.368759788811914291e+00
2.368759788811914291e+00
2.367822260200811879e+00
2.367822260200811879e+00
2.412823633533738299e+00
2.412823633533738299e+00
2.383947752311777357e+00
2.383947752311777357e+00
2.322070863979003530e+00
2.322070863979003530e+00
2.145065462202826012e+00
2.145065462202826012e+00
2.145065462202826012e+00
2.098939054536576698e+00
2.098939054536576698e+00
2.204504776146733125e+00
2.204504776146733125e+00
2.251756218146305777e+00
2.251756218146305777e+00
2.268631733146153184e+00
2.268631733146153184e+00
2.307445417645802355e+00
2.307445417645802355e+00
2.383760246589556875e+00
2.383760246589556875e+00
2.448637226477858864e+00
2.448637226477858864e+00
2.504326425977354997e+00
2.504326425977354997e+00
2.481450727866450823e+00
2.481450727866450823e+00
2.481450727866450823e+00
2.507701528977324568e+00
2.507701528977324568e+00
2.533389812921536866e+00
2.533389812921536866e+00
2.416011230811487387e+00
2.416011230811487387e+00
2.311195532090212890e+00
2.311195532090212890e+00
2.190254341257972914e+00
2.190254341257972914e+00
2.095376445814386202e+00
2.095376445814386202e+00
2.152565691091647082e+00
2.152565691091647082e+00
2.138502761925107798e+00
2.138502761925107798e+00
2.138502761925107798e+00
2.222692831202123909e+00
2.222692831202123909e+00
2.397260658589434712e+00
2.397260658589434712e+00
2.478450636310922661e+00
2.478450636310922661e+00
2.495326151310770069e+00
2.495326151310770069e+00
2.418073793755913137e+00
2.418073793755913137e+00
2.335758781701101849e+00
2.335758781701101849e+00
2.380572649311807787e+00
2.380572649311807787e+00
2.324883449812311209e+00
2.324883449812311209e+00
2.324883449812311209e+00
2.244255989257484707e+00
2.244255989257484707e+00
2.229068025757622085e+00
2.229068025757622085e+00
2.180879055146946577e+00
2.180879055146946577e+00
2.177878963591417971e+00
2.177878963591417971e+00
2.211442487868892304e+00
2.211442487868892304e+00
2.232443128757591655e+00
2.232443128757591655e+00
2.313070589312418157e+00
2.313070589312418157e+00
2.362947111423078006e+00
2.362947111423078006e+00
2.362947111423078006e+00
2.373259926145207199e+00
2.373259926145207199e+00
2.432136722922452865e+00
2.432136722922452865e+00
2.400073244422742391e+00
2.400073244422742391e+00
2.332571184423352761e+00
2.332571184423352761e+00
2.366509720145268059e+00
2.366509720145268059e+00
2.301070223090304623e+00
2.301070223090304623e+00
2.278382030701620931e+00
2.278382030701620931e+00
2.281194616534928166e+00
2.281194616534928166e+00
2.281194616534928166e+00
2.233380657368694511e+00
2.233380657368694511e+00
2.230380565813165905e+00
2.230380565813165905e+00
2.265819147312845505e+00
2.265819147312845505e+00
2.279132053590502860e+00
2.279132053590502860e+00
2.319820795312356854e+00
2.319820795312356854e+00
2.320008301034577336e+00
2.320008301034577336e+00
2.354696859645375007e+00
2.354696859645375007e+00
2.431949217200232383e+00
2.431949217200232383e+00
2.431949217200232383e+00
2.442824549089022579e+00
2.442824549089022579e+00
2.456137455366679934e+00
2.456137455366679934e+00
2.441136997589037794e+00
2.441136997589037794e+00
2.349259193700979687e+00
2.349259193700979687e+00
2.296195074312570750e+00
2.296195074312570750e+00
2.246881069368571904e+00
2.246881069368571904e+00
2.179754020813623683e+00
2.179754020813623683e+00
2.218942716757713818e+00
2.218942716757713818e+00
2.259443952757347329e+00
2.259443952757347329e+00
2.259443952757347329e+00
2.309882992034669069e+00
2.309882992034669069e+00
2.399135715811639535e+00
2.399135715811639535e+00
2.419948850978118404e+00
2.419948850978118404e+00
2.407385967589342979e+00
2.407385967589342979e+00
2.409823541978209693e+00
2.409823541978209693e+00
2.353384319589831186e+00
2.353384319589831186e+00
2.376635029145176325e+00
2.376635029145176325e+00
2.312883083590197675e+00
2.312883083590197675e+00
2.312883083590197675e+00
2.225317911313211550e+00
2.225317911313211550e+00
2.194379467146824858e+00
2.194379467146824858e+00
2.124439832758568070e+00
2.124439832758568070e+00
2.147128025147251762e+00
2.147128025147251762e+00
2.211629993591112786e+00
2.211629993591112786e+00
2.243693472090823260e+00
2.243693472090823260e+00
2.304445326090273749e+00
2.304445326090273749e+00
2.375134983367412023e+00
2.375134983367412023e+00
2.375134983367412023e+00
2.383760246589556875e+00
2.383760246589556875e+00
2.448637226477858864e+00
2.448637226477858864e+00
2.462325144199957183e+00
2.462325144199957183e+00
2.425199011200292798e+00
2.425199011200292798e+00
2.449012237922299828e+00
2.449012237922299828e+00
2.352071779534287366e+00
2.352071779534287366e+00
2.243130954924161813e+00
2.243130954924161813e+00
2.208067384868923178e+00
2.208067384868923178e+00
2.208067384868923178e+00
2.156690816980498582e+00
2.156690816980498582e+00
2.154628254036072832e+00
2.154628254036072832e+00
2.177691457869197489e+00
2.177691457869197489e+00
2.215005096591082356e+00
2.215005096591082356e+00
2.317008209479048730e+00
2.317008209479048730e+00
2.374947477645191540e+00
2.374947477645191540e+00
2.384885280922879769e+00
2.384885280922879769e+00
2.428199102755821404e+00
2.428199102755821404e+00
2.428199102755821404e+00
2.405698416089358194e+00
2.405698416089358194e+00
2.384885280922879769e+00
2.384885280922879769e+00
2.420698873867000778e+00
2.420698873867000778e+00
2.327696035645618888e+00
2.327696035645618888e+00
2.270131778923917043e+00
2.270131778923917043e+00
2.264131595812860720e+00
2.264131595812860720e+00
2.263194067201757864e+00
2.263194067201757864e+00
2.287944822534867306e+00
2.287944822534867306e+00
2.272194341868343237e+00
2.272194341868343237e+00
2.272194341868343237e+00
2.266944181646168399e+00
2.266944181646168399e+00
2.309132969145787140e+00
2.309132969145787140e+00
2.337633838923307117e+00
2.337633838923307117e+00
2.379822626422925413e+00
2.379822626422925413e+00
2.418448805200354101e+00
2.418448805200354101e+00
2.374384960478530537e+00
2.374384960478530537e+00
2.373822443311869090e+00
2.373822443311869090e+00
2.366884731589709023e+00
2.366884731589709023e+00
2.366884731589709023e+00
2.276881984923856628e+00
2.276881984923856628e+00
2.230005554368724940e+00
2.230005554368724940e+00
2.191191869869075770e+00
2.191191869869075770e+00
2.183316629535813735e+00
2.183316629535813735e+00
2.221942808313242423e+00
2.221942808313242423e+00
2.243693472090823260e+00
2.243693472090823260e+00
2.279507065034943825e+00
2.279507065034943825e+00
2.324320932645649762e+00
2.324320932645649762e+00
2.324320932645649762e+00
2.338571367534409973e+00
2.338571367534409973e+00
2.401573290200506694e+00
2.401573290200506694e+00
2.431386700033570492e+00
2.431386700033570492e+00
2.394073061311685624e+00
2.394073061311685624e+00
2.416948759422589799e+00
2.416948759422589799e+00
2.346821619312112972e+00
2.346821619312112972e+00
2.267131687368389326e+00
2.267131687368389326e+00
2.272006836146122755e+00
2.272006836146122755e+00
2.272006836146122755e+00
2.208442396313364142e+00
2.208442396313364142e+00
2.190254341257972914e+00
2.190254341257972914e+00
2.216505142368846659e+00
2.216505142368846659e+00
2.236755760368663637e+00
2.236755760368663637e+00
2.286444776757103448e+00
2.286444776757103448e+00
2.331071138645588459e+00
2.331071138645588459e+00
2.365197180089724238e+00
2.365197180089724238e+00
2.428949125644703777e+00
2.428949125644703777e+00
2.419761345255897922e+00
2.419761345255897922e+00
2.419761345255897922e+00
2.395948118533890892e+00
2.395948118533890892e+00
2.442637043366802097e+00
2.442637043366802097e+00
2.367634754478591397e+00
2.367634754478591397e+00
2.318320749534592551e+00
2.318320749534592551e+00
2.240318369090853690e+00
2.240318369090853690e+00
2.142815393536179780e+00
2.142815393536179780e+00
2.149565599536118921e+00
2.149565599536118921e+00
2.208067384868923178e+00
2.208067384868923178e+00
2.245193517868587563e+00
2.245193517868587563e+00
2.316820703756828248e+00
2.316820703756828248e+00
2.316820703756828248e+00
2.355821893978697901e+00
2.355821893978697901e+00
2.380572649311807787e+00
2.380572649311807787e+00
2.427636585589159957e+00
2.427636585589159957e+00
2.388447889645069822e+00
2.388447889645069822e+00
2.369509811700796664e+00
2.369509811700796664e+00
2.381510177922910199e+00
2.381510177922910199e+00
2.297320108645893644e+00
2.297320108645893644e+00
2.258131412701803509e+00
2.258131412701803509e+00
2.258131412701803509e+00
2.220067751091036712e+00
2.220067751091036712e+00
2.190254341257972914e+00
2.190254341257972914e+00
2.224380382702108694e+00
2.224380382702108694e+00
2.235443220313119816e+00
2.235443220313119816e+00
2.269569261757255596e+00
2.269569261757255596e+00
2.327321024201178368e+00
2.327321024201178368e+00
2.345321573534348669e+00
2.345321573534348669e+00
2.397823175756096159e+00
2.397823175756096159e+00
2.397823175756096159e+00
2.421073885311441742e+00
2.421073885311441742e+00
2.370634846034120002e+00
2.370634846034120002e+00
2.375885006256294396e+00
2.375885006256294396e+00
2.355259376812036454e+00
2.355259376812036454e+00
2.284007202368236289e+00
2.284007202368236289e+00
2.263944090090640238e+00
2.263944090090640238e+00
2.217255165257729033e+00
2.217255165257729033e+00
2.195692007202368234e+00
2.195692007202368234e+00
2.195692007202368234e+00
2.225317911313211550e+00
2.225317911313211550e+00
2.234505691702016961e+00
2.234505691702016961e+00
2.290007385479293500e+00
2.290007385479293500e+00
2.345884090701010116e+00
2.345884090701010116e+00
2.346634113589892490e+00
2.346634113589892490e+00
2.389947935422834124e+00
2.389947935422834124e+00
2.393510544145024177e+00
2.393510544145024177e+00
2.352071779534287366e+00
2.352071779534287366e+00
2.352071779534287366e+00
2.378135074922940628e+00
2.378135074922940628e+00
2.329008575701162709e+00
2.329008575701162709e+00
2.262819055757316900e+00
2.262819055757316900e+00
2.246131046479689974e+00
2.246131046479689974e+00
2.202067201757865966e+00
2.202067201757865966e+00
2.215942625202185212e+00
2.215942625202185212e+00
2.243130954924161813e+00
2.243130954924161813e+00
2.246881069368571904e+00
2.246881069368571904e+00
2.304445326090273749e+00
2.304445326090273749e+00
2.304445326090273749e+00
2.337446333201086635e+00
2.337446333201086635e+00
2.350571733756523507e+00
2.350571733756523507e+00
2.400448255867183356e+00
2.400448255867183356e+00
2.381322672200689716e+00
2.381322672200689716e+00
2.371759880367442896e+00
2.371759880367442896e+00
2.395573107089449927e+00
2.395573107089449927e+00
2.306320383312479017e+00
2.306320383312479017e+00
2.264506607257301685e+00
2.264506607257301685e+00
2.264506607257301685e+00
2.238255806146427940e+00
2.238255806146427940e+00
2.189879329813531950e+00
2.189879329813531950e+00
2.202067201757865966e+00
2.202067201757865966e+00
2.221755302591021497e+00
2.221755302591021497e+00
2.251193700979644330e+00
2.251193700979644330e+00
2.311570543534653854e+00
2.311570543534653854e+00
2.332196172978911797e+00
2.332196172978911797e+00
2.377760063478499664e+00
2.377760063478499664e+00
2.425761528366954689e+00
2.425761528366954689e+00
2.425761528366954689e+00
2.388635395367290304e+00
2.388635395367290304e+00
2.391635486922818910e+00
2.391635486922818910e+00
2.383010223700674501e+00
2.383010223700674501e+00
2.284569719534897736e+00
2.284569719534897736e+00
2.257193884090700653e+00
2.257193884090700653e+00
2.221755302591021497e+00
2.221755302591021497e+00
2.194004455702383449e+00
2.194004455702383449e+00
2.224755394146549659e+00
2.224755394146549659e+00
2.224755394146549659e+00
2.235255714590899334e+00
2.235255714590899334e+00
2.274819421979430434e+00
2.274819421979430434e+00
2.327508529923398850e+00
2.327508529923398850e+00
2.340071413312173831e+00
2.340071413312173831e+00
2.391260475478377501e+00
2.391260475478377501e+00
2.413386150700399746e+00
2.413386150700399746e+00
2.367822260200811879e+00
2.367822260200811879e+00
2.387322855311746483e+00
2.387322855311746483e+00
2.351696768089846401e+00
2.351696768089846401e+00
2.351696768089846401e+00
2.286444776757103448e+00
2.286444776757103448e+00
2.261694021423993561e+00
2.261694021423993561e+00
2.200379650257881181e+00
2.200379650257881181e+00
2.190441846980193397e+00
2.190441846980193397e+00
2.227755485702078264e+00
2.227755485702078264e+00
2.235630726035340299e+00
2.235630726035340299e+00
2.292069948423719250e+00
2.292069948423719250e+00
2.341008941923276243e+00
2.341008941923276243e+00
2.357321939756462204e+00
2.357321939756462204e+00
2.412073610644855925e+00
2.412073610644855925e+00
2.412073610644855925e+00
2.402510818811609106e+00
2.402510818811609106e+00
2.364634662923062791e+00
2.364634662923062791e+00
2.399323221533860018e+00
2.399323221533860018e+00
2.317008209479048730e+00
2.317008209479048730e+00
2.258881435590685438e+00
2.258881435590685438e+00
2.235068208868678852e+00
2.235068208868678852e+00
2.189879329813531950e+00
2.189879329813531950e+00
2.198879604480116878e+00
2.198879604480116878e+00
2.198879604480116878e+00
2.224567888424329176e+00
2.224567888424329176e+00
2.249318643757439062e+00
2.249318643757439062e+00
2.304632831812494231e+00
2.304632831812494231e+00
2.337446333201086635e+00
2.337446333201086635e+00
2.354134342478713116e+00
2.354134342478713116e+00
2.403635853144932444e+00
2.403635853144932444e+00
2.379260109256263966e+00
2.379260109256263966e+00
2.374384960478530537e+00
2.374384960478530537e+00
2.374384960478530537e+00
2.383760246589556875e+00
2.383760246589556875e+00
2.294507522812585520e+00
2.294507522812585520e+00
2.256818872646260132e+00
2.256818872646260132e+00
2.228693014313181120e+00
2.228693014313181120e+00
2.190254341257972914e+00
2.190254341257972914e+00
2.209567430646687480e+00
2.209567430646687480e+00
2.227567979979857782e+00
2.227567979979857782e+00
2.265256630146183614e+00
2.265256630146183614e+00
2.265256630146183614e+00
2.317758232367931104e+00
2.317758232367931104e+00
2.335946287423322332e+00
2.335946287423322332e+00
2.377010040589617734e+00
2.377010040589617734e+00
2.407948484756004870e+00
2.407948484756004870e+00
2.367822260200811879e+00
2.367822260200811879e+00
2.378697592089602519e+00
2.378697592089602519e+00
2.357696951200903612e+00
2.357696951200903612e+00
2.278007019257179522e+00
2.278007019257179522e+00
2.256256355479598685e+00
2.256256355479598685e+00
2.256256355479598685e+00
2.215567613757744247e+00
2.215567613757744247e+00
2.185754203924680450e+00
2.185754203924680450e+00
2.217817682424390480e+00
2.217817682424390480e+00
2.236755760368663637e+00
2.236755760368663637e+00
2.289444868312631609e+00
2.289444868312631609e+00
2.349071687978759204e+00
2.349071687978759204e+00
2.355071871089815971e+00
2.355071871089815971e+00
2.398198187200537124e+00
2.398198187200537124e+00
2.399698232978301426e+00
2.399698232978301426e+00
2.399698232978301426e+00
2.363509628589739453e+00
2.363509628589739453e+00
2.398948210089419053e+00
2.398948210089419053e+00
2.341758964812158617e+00
2.341758964812158617e+00
2.268069215979491737e+00
2.268069215979491737e+00
2.245193517868587563e+00
2.245193517868587563e+00
2.201129673146763555e+00
2.201129673146763555e+00
2.200192144535660699e+00
2.200192144535660699e+00
2.225317911313211550e+00
2.225317911313211550e+00
2.225317911313211550e+00
2.238443311868648422e+00
2.238443311868648422e+00
2.301070223090304623e+00
2.301070223090304623e+00
2.350384228034303025e+00
2.350384228034303025e+00
2.367259743034150432e+00
2.367259743034150432e+00
2.416761253700369316e+00
2.416761253700369316e+00
2.395760612811670409e+00
2.395760612811670409e+00
2.367259743034150432e+00
2.367259743034150432e+00
2.401010773033844803e+00
2.401010773033844803e+00
2.401010773033844803e+00
2.312883083590197675e+00
2.312883083590197675e+00
2.261881527146214044e+00
2.261881527146214044e+00
2.238255806146427940e+00
2.238255806146427940e+00
2.196817041535691573e+00
2.196817041535691573e+00
2.214255073702200427e+00
2.214255073702200427e+00
2.239005829035309869e+00
2.239005829035309869e+00
2.261131504257332114e+00
2.261131504257332114e+00
2.329008575701162709e+00
2.329008575701162709e+00
2.329008575701162709e+00
2.352821802423169739e+00
2.352821802423169739e+00
2.379260109256263966e+00
2.379260109256263966e+00
2.413198644978179264e+00
2.413198644978179264e+00
2.376635029145176325e+00
2.376635029145176325e+00
2.379072603534043484e+00
2.379072603534043484e+00
2.375322489089632505e+00
2.375322489089632505e+00
2.279132053590502860e+00
2.279132053590502860e+00
2.247443586535233351e+00
2.247443586535233351e+00
2.204692281868953607e+00
2.204692281868953607e+00
2.175441389202551257e+00
2.175441389202551257e+00
2.175441389202551257e+00
2.201317178868984037e+00
2.201317178868984037e+00
2.216317636646626177e+00
2.216317636646626177e+00
2.268069215979491737e+00
2.268069215979491737e+00
2.325445966978973100e+00
2.325445966978973100e+00
2.341571459089938134e+00
2.341571459089938134e+00
2.384697775200659287e+00
2.384697775200659287e+00
2.402698324533829588e+00
2.402698324533829588e+00
2.363134617145298488e+00
2.363134617145298488e+00
2.396885647144993747e+00
2.396885647144993747e+00
2.356196905423139309e+00
2.356196905423139309e+00
2.356196905423139309e+00
2.274256904812768987e+00
2.274256904812768987e+00
2.250631183812982439e+00
2.250631183812982439e+00
2.203754753257850751e+00
2.203754753257850751e+00
2.192691915646840073e+00
2.192691915646840073e+00
2.218567705313272853e+00
2.218567705313272853e+00
2.229818048646504014e+00
2.229818048646504014e+00
2.289257362590411127e+00
2.289257362590411127e+00
2.339696401867732423e+00
2.339696401867732423e+00
2.339696401867732423e+00
2.349634205145421095e+00
2.349634205145421095e+00
2.400073244422742391e+00
2.400073244422742391e+00
2.390510452589495571e+00
2.390510452589495571e+00
2.362759605700857524e+00
2.362759605700857524e+00
2.395010589922788480e+00
2.395010589922788480e+00
2.318695760979033516e+00
2.318695760979033516e+00
2.264131595812860720e+00
2.264131595812860720e+00
2.242380932035279439e+00
2.242380932035279439e+00
2.242380932035279439e+00
2.194566972869045340e+00
2.194566972869045340e+00
2.199254615924558287e+00
2.199254615924558287e+00
2.228505508590960638e+00
2.228505508590960638e+00
2.243693472090823260e+00
2.243693472090823260e+00
2.308195440534684284e+00
2.308195440534684284e+00
2.346071596423230599e+00
2.346071596423230599e+00
2.371759880367442896e+00
2.371759880367442896e+00
2.417886288033692654e+00
2.417886288033692654e+00
2.387135349589526001e+00
2.387135349589526001e+00
2.387135349589526001e+00
2.374197454756310055e+00
2.374197454756310055e+00
2.389947935422834124e+00
2.389947935422834124e+00
2.292632465590380253e+00
2.292632465590380253e+00
2.255506332590716312e+00
2.255506332590716312e+00
2.224380382702108694e+00
2.224380382702108694e+00
2.185379192480239485e+00
2.185379192480239485e+00
2.203942258980071234e+00
2.203942258980071234e+00
2.219317728202154782e+00
2.219317728202154782e+00
2.219317728202154782e+00
2.256631366924039650e+00
2.256631366924039650e+00
2.320570818201239227e+00
2.320570818201239227e+00
2.342696493423261028e+00
2.342696493423261028e+00
2.382447706534013054e+00
2.382447706534013054e+00
2.409636036255989211e+00
2.409636036255989211e+00
2.375885006256294396e+00
2.375885006256294396e+00
2.392573015533921321e+00
2.392573015533921321e+00
2.367822260200811879e+00
2.367822260200811879e+00
2.367822260200811879e+00
2.274631916257209951e+00
2.274631916257209951e+00
2.258131412701803509e+00
2.258131412701803509e+00
2.216130130924405695e+00
2.216130130924405695e+00
2.207504867702261730e+00
2.207504867702261730e+00
2.241818414868617992e+00
2.241818414868617992e+00
2.239755851924192243e+00
2.239755851924192243e+00
2.282882168034912951e+00
2.282882168034912951e+00
2.333508713034455617e+00
2.333508713034455617e+00
2.333508713034455617e+00
2.344946562089907705e+00
2.344946562089907705e+00
2.392573015533921321e+00
2.392573015533921321e+00
2.399510727256080500e+00
2.399510727256080500e+00
2.357696951200903612e+00
2.357696951200903612e+00
2.391072969756157018e+00
2.391072969756157018e+00
2.335571275978881367e+00
2.335571275978881367e+00
2.261881527146214044e+00
2.261881527146214044e+00
2.242943449201941331e+00
2.242943449201941331e+00
2.242943449201941331e+00
2.200004638813440216e+00
2.200004638813440216e+00
2.196442030091250608e+00
2.196442030091250608e+00
2.229068025757622085e+00
2.229068025757622085e+00
2.240505874813074172e+00
2.240505874813074172e+00
2.303132786034730373e+00
2.303132786034730373e+00
2.350384228034303025e+00
2.350384228034303025e+00
2.363322122867518971e+00
2.363322122867518971e+00
2.414511185033723084e+00
2.414511185033723084e+00
2.414511185033723084e+00
2.402885830256050514e+00
2.402885830256050514e+00
2.379447614978484449e+00
2.379447614978484449e+00
2.404948393200476264e+00
2.404948393200476264e+00
2.316445692312387283e+00
2.316445692312387283e+00
2.264131595812860720e+00
2.264131595812860720e+00
2.235630726035340299e+00
2.235630726035340299e+00
2.189879329813531950e+00
2.189879329813531950e+00
2.202629718924527857e+00
2.202629718924527857e+00
2.202629718924527857e+00
2.221192785424360050e+00
2.221192785424360050e+00
2.248381115146336207e+00
2.248381115146336207e+00
2.312883083590197675e+00
2.312883083590197675e+00
2.339696401867732423e+00
2.339696401867732423e+00
2.370822351756340485e+00
2.370822351756340485e+00
2.417323770867030763e+00
2.417323770867030763e+00
2.379635120700704931e+00
2.379635120700704931e+00
2.378885097811823002e+00
2.378885097811823002e+00
2.382635212256233537e+00
2.382635212256233537e+00
2.382635212256233537e+00
2.289444868312631609e+00
2.289444868312631609e+00
2.253818781090731527e+00
2.253818781090731527e+00
2.217630176702169997e+00
2.217630176702169997e+00
2.185754203924680450e+00
2.185754203924680450e+00
2.215942625202185212e+00
2.215942625202185212e+00
2.229443037202063049e+00
2.229443037202063049e+00
2.275944456312753772e+00
2.275944456312753772e+00
2.327133518478957885e+00
2.327133518478957885e+00
2.345134067812128187e+00
2.345134067812128187e+00
2.345134067812128187e+00
2.387885372478407930e+00
2.387885372478407930e+00
2.403823358867152926e+00
2.403823358867152926e+00
2.360884548478652700e+00
2.360884548478652700e+00
2.389197912533951751e+00
2.389197912533951751e+00
2.360134525589770327e+00
2.360134525589770327e+00
2.276506973479415219e+00
2.276506973479415219e+00
2.251756218146305777e+00
2.251756218146305777e+00
2.204692281868953607e+00
2.204692281868953607e+00
2.204692281868953607e+00
2.197004547257912055e+00
2.197004547257912055e+00
2.236005737479781263e+00
2.236005737479781263e+00
2.245568529313028083e+00
2.245568529313028083e+00
2.300507705923642732e+00
2.300507705923642732e+00
2.344196539201025331e+00
2.344196539201025331e+00
2.353946836756492633e+00
2.353946836756492633e+00
2.404010864589373409e+00
2.404010864589373409e+00
2.401010773033844803e+00
2.401010773033844803e+00
2.401010773033844803e+00
2.366134708700827094e+00
2.366134708700827094e+00
2.397448164311655194e+00
2.397448164311655194e+00
2.326195989867855030e+00
2.326195989867855030e+00
2.258693929868464956e+00
2.258693929868464956e+00
2.237693288979766049e+00
2.237693288979766049e+00
2.193441938535722002e+00
2.193441938535722002e+00
2.200379650257881181e+00
2.200379650257881181e+00
2.228130497146519229e+00
2.228130497146519229e+00
2.228130497146519229e+00
2.246881069368571904e+00
2.246881069368571904e+00
2.306695394756919981e+00
2.306695394756919981e+00
2.343071504867702437e+00
2.343071504867702437e+00
2.367072237311929506e+00
2.367072237311929506e+00
2.412636127811517817e+00
2.412636127811517817e+00
2.385447798089541660e+00
2.385447798089541660e+00
2.371759880367442896e+00
2.371759880367442896e+00
2.390697958311716054e+00
2.390697958311716054e+00
2.390697958311716054e+00
2.303507797479171337e+00
2.303507797479171337e+00
2.257943906979583026e+00
2.257943906979583026e+00
2.229255531479842567e+00
2.229255531479842567e+00
2.191004364146854844e+00
2.191004364146854844e+00
2.207504867702261730e+00
2.207504867702261730e+00
2.228318002868740155e+00
2.228318002868740155e+00
2.260381481368449741e+00
2.260381481368449741e+00
2.321320841090121156e+00
2.321320841090121156e+00
2.321320841090121156e+00
2.339696401867732423e+00
2.339696401867732423e+00
2.373634937589648164e+00
2.373634937589648164e+00
2.399885738700521909e+00
2.399885738700521909e+00
2.371572374645222414e+00
2.371572374645222414e+00
2.389010406811731269e+00
2.389010406811731269e+00
2.374947477645191540e+00
2.374947477645191540e+00
2.279319559312723342e+00
2.279319559312723342e+00
2.255318826868495830e+00
2.255318826868495830e+00
2.255318826868495830e+00
2.215567613757744247e+00
2.215567613757744247e+00
2.200004638813440216e+00
2.200004638813440216e+00
2.223442854091006282e+00
2.223442854091006282e+00
2.239568346201971760e+00
2.239568346201971760e+00
2.278007019257179522e+00
2.278007019257179522e+00
2.329008575701162709e+00
2.329008575701162709e+00
2.345509079256569152e+00
2.345509079256569152e+00
2.398760704367198571e+00
2.398760704367198571e+00
2.408135990478225352e+00
2.408135990478225352e+00
2.408135990478225352e+00
2.372697408978545752e+00
2.372697408978545752e+00
2.405510910367137711e+00
2.405510910367137711e+00
2.350946745200964472e+00
2.350946745200964472e+00
2.266569170201727434e+00
2.266569170201727434e+00
2.248943632312997654e+00
2.248943632312997654e+00
2.197004547257912055e+00
2.197004547257912055e+00
2.195129490035706787e+00
2.195129490035706787e+00
2.227755485702078264e+00
2.227755485702078264e+00
2.227755485702078264e+00
2.248006103701895242e+00
2.248006103701895242e+00
2.305570360423596643e+00
2.305570360423596643e+00
2.346821619312112972e+00
2.346821619312112972e+00
2.363509628589739453e+00
2.363509628589739453e+00
2.410386059144871140e+00
2.410386059144871140e+00
2.393698049867244659e+00
2.393698049867244659e+00
2.366697225867488541e+00
2.366697225867488541e+00
2.393323038422803695e+00
2.393323038422803695e+00
2.312883083590197675e+00
2.312883083590197675e+00
2.256631366924039650e+00
2.256631366924039650e+00
2.230755577257606870e+00
2.230755577257606870e+00
2.230755577257606870e+00
2.185379192480239485e+00
2.185379192480239485e+00
2.196442030091250608e+00
2.196442030091250608e+00
2.228505508590960638e+00
2.228505508590960638e+00
2.254943815424054865e+00
