2.251381206701864812e+00
2.332383678701132279e+00
2.332383678701132279e+00
2.332383678701132279e+00
2.368384777367473326e+00
2.368384777367473326e+00
2.368384777367473326e+00
2.368384777367473326e+00
2.401198278756065729e+00
2.401198278756065729e+00
2.401198278756065729e+00
2.440761986144596829e+00
2.440761986144596829e+00
2.440761986144596829e+00
2.391822992645039392e+00
2.391822992645039392e+00
2.391822992645039392e+00
2.391822992645039392e+00
2.395948118533890892e+00
2.395948118533890892e+00
2.395948118533890892e+00
2.410573564867091623e+00
2.410573564867091623e+00
2.410573564867091623e+00
2.291319925534837321e+00
2.291319925534837321e+00
2.291319925534837321e+00
2.291319925534837321e+00
2.254193792535172935e+00
2.254193792535172935e+00
2.254193792535172935e+00
2.205442304757835537e+00
2.205442304757835537e+00
2.205442304757835537e+00
2.205442304757835537e+00
2.158190862758262885e+00
2.158190862758262885e+00
2.158190862758262885e+00
2.187441755424664791e+00
2.187441755424664791e+00
2.187441755424664791e+00
2.209942442091128445e+00
2.209942442091128445e+00
2.209942442091128445e+00
2.209942442091128445e+00
2.269006744590594149e+00
2.269006744590594149e+00
2.269006744590594149e+00
2.337071321756645670e+00
2.337071321756645670e+00
2.337071321756645670e+00
2.354134342478713116e+00
2.354134342478713116e+00
2.354134342478713116e+00
2.354134342478713116e+00
2.405323404644917229e+00
2.405323404644917229e+00
2.405323404644917229e+00
2.428199102755821404e+00
2.428199102755821404e+00
2.428199102755821404e+00
2.428199102755821404e+00
2.376447523422955843e+00
2.376447523422955843e+00
2.376447523422955843e+00
2.416011230811487387e+00
2.416011230811487387e+00
2.416011230811487387e+00
2.375697500534073914e+00
2.375697500534073914e+00
2.375697500534073914e+00
2.375697500534073914e+00
2.262256538590655452e+00
2.262256538590655452e+00
2.262256538590655452e+00
2.234880703146458369e+00
2.234880703146458369e+00
2.234880703146458369e+00
2.171128757591479275e+00
2.171128757591479275e+00
2.171128757591479275e+00
2.171128757591479275e+00
2.147878048036134135e+00
2.147878048036134135e+00
2.147878048036134135e+00
2.195692007202368234e+00
2.195692007202368234e+00
2.195692007202368234e+00
2.216130130924405695e+00
2.216130130924405695e+00
2.293194982757042144e+00
2.293194982757042144e+00
2.293194982757042144e+00
2.353196813867610704e+00
2.353196813867610704e+00
2.353196813867610704e+00
2.353196813867610704e+00
2.371947386089663379e+00
2.371947386089663379e+00
2.371947386089663379e+00
2.427824091311380439e+00
2.427824091311380439e+00
2.427824091311380439e+00
2.427824091311380439e+00
2.418073793755913137e+00
2.418073793755913137e+00
2.418073793755913137e+00
2.368384777367473326e+00
2.368384777367473326e+00
2.368384777367473326e+00
2.425949034089175171e+00
2.425949034089175171e+00
2.425949034089175171e+00
2.425949034089175171e+00
2.332008667256691314e+00
2.332008667256691314e+00
2.332008667256691314e+00
2.245568529313028083e+00
2.245568529313028083e+00
2.245568529313028083e+00
2.218005188146610962e+00
2.218005188146610962e+00
2.218005188146610962e+00
2.218005188146610962e+00
2.162503494369335311e+00
2.162503494369335311e+00
2.162503494369335311e+00
2.167753654591509704e+00
2.167753654591509704e+00
2.167753654591509704e+00
2.205442304757835537e+00
2.205442304757835537e+00
2.205442304757835537e+00
2.242005920590838475e+00
2.242005920590838475e+00
2.242005920590838475e+00
2.309132969145787140e+00
2.309132969145787140e+00
2.309132969145787140e+00
2.309132969145787140e+00
2.349259193700979687e+00
2.349259193700979687e+00
2.349259193700979687e+00
2.365572191534165203e+00
2.365572191534165203e+00
2.365572191534165203e+00
2.428199102755821404e+00
2.428199102755821404e+00
2.428199102755821404e+00
2.393323038422803695e+00
2.393323038422803695e+00
2.393323038422803695e+00
2.393323038422803695e+00
2.375885006256294396e+00
2.375885006256294396e+00
2.375885006256294396e+00
2.413948667867061193e+00
2.413948667867061193e+00
2.413948667867061193e+00
2.413948667867061193e+00
2.293945005645924073e+00
2.293945005645924073e+00
2.293945005645924073e+00
2.248943632312997654e+00
2.248943632312997654e+00
2.248943632312997654e+00
2.215192602313302839e+00
2.215192602313302839e+00
2.215192602313302839e+00
2.215192602313302839e+00
2.161940977202673420e+00
2.161940977202673420e+00
2.161940977202673420e+00
2.194191961424603932e+00
2.194191961424603932e+00
2.194191961424603932e+00
2.223067842646564873e+00
2.223067842646564873e+00
2.223067842646564873e+00
2.223067842646564873e+00
2.272381847590563719e+00
2.272381847590563719e+00
2.272381847590563719e+00
2.343071504867702437e+00
2.343071504867702437e+00
2.343071504867702437e+00
2.355821893978697901e+00
2.355821893978697901e+00
2.355821893978697901e+00
2.386947843867305519e+00
2.386947843867305519e+00
2.386947843867305519e+00
2.386947843867305519e+00
2.438136906033509188e+00
2.438136906033509188e+00
2.438136906033509188e+00
2.377010040589617734e+00
2.377010040589617734e+00
2.377010040589617734e+00
2.377010040589617734e+00
2.402323313089388623e+00
2.402323313089388623e+00
2.402323313089388623e+00
2.391072969756157018e+00
2.391072969756157018e+00
2.391072969756157018e+00
2.269756767479476078e+00
2.269756767479476078e+00
2.269756767479476078e+00
2.269756767479476078e+00
2.201317178868984037e+00
2.201317178868984037e+00
2.201317178868984037e+00
2.188191778313547164e+00
2.188191778313547164e+00
2.188191778313547164e+00
2.160628437147130043e+00
2.160628437147130043e+00
2.160628437147130043e+00
2.160628437147130043e+00
2.203379741813409787e+00
2.203379741813409787e+00
2.203379741813409787e+00
2.217630176702169997e+00
2.217630176702169997e+00
2.217630176702169997e+00
2.279882076479384789e+00
2.279882076479384789e+00
2.279882076479384789e+00
2.279882076479384789e+00
2.344384044923245813e+00
2.344384044923245813e+00
2.344384044923245813e+00
2.365009674367503756e+00
2.365009674367503756e+00
2.365009674367503756e+00
2.424823999755851833e+00
2.424823999755851833e+00
2.424823999755851833e+00
2.424823999755851833e+00
2.428199102755821404e+00
2.428199102755821404e+00
2.428199102755821404e+00
2.374572466200750576e+00
2.374572466200750576e+00
2.374572466200750576e+00
2.424261482589190386e+00
2.424261482589190386e+00
2.424261482589190386e+00
2.424261482589190386e+00
2.357134434034241721e+00
2.357134434034241721e+00
2.357134434034241721e+00
2.255318826868495830e+00
2.255318826868495830e+00
2.255318826868495830e+00
2.223067842646564873e+00
2.223067842646564873e+00
2.223067842646564873e+00
2.223067842646564873e+00
2.155940794091616652e+00
2.155940794091616652e+00
2.155940794091616652e+00
2.151253151036103706e+00
2.151253151036103706e+00
2.151253151036103706e+00
2.216317636646626177e+00
2.216317636646626177e+00
2.216317636646626177e+00
2.216317636646626177e+00
2.250443678090761956e+00
2.250443678090761956e+00
2.250443678090761956e+00
2.318320749534592551e+00
2.318320749534592551e+00
2.318320749534592551e+00
2.355821893978697901e+00
2.355821893978697901e+00
2.355821893978697901e+00
2.355821893978697901e+00
2.372134891811884305e+00
2.372134891811884305e+00
2.372134891811884305e+00
2.432886745811334794e+00
2.432886745811334794e+00
2.432886745811334794e+00
2.405885921811578676e+00
2.405885921811578676e+00
2.405885921811578676e+00
2.405885921811578676e+00
2.368384777367473326e+00
2.368384777367473326e+00
2.368384777367473326e+00
2.421448896755882263e+00
2.421448896755882263e+00
2.421448896755882263e+00
2.310258003479110034e+00
2.310258003479110034e+00
2.310258003479110034e+00
2.310258003479110034e+00
2.240505874813074172e+00
2.240505874813074172e+00
2.240505874813074172e+00
2.212942533646656607e+00
2.212942533646656607e+00
2.212942533646656607e+00
2.160815942869350526e+00
2.160815942869350526e+00
2.160815942869350526e+00
2.160815942869350526e+00
2.182566606646931362e+00
2.182566606646931362e+00
2.182566606646931362e+00
2.215755119479964730e+00
2.215755119479964730e+00
2.215755119479964730e+00
2.215755119479964730e+00
2.253256263924070080e+00
2.253256263924070080e+00
2.253256263924070080e+00
2.320758323923459709e+00
2.320758323923459709e+00
2.320758323923459709e+00
2.347759147923215384e+00
2.347759147923215384e+00
2.347759147923215384e+00
2.347759147923215384e+00
2.381697683645130681e+00
2.381697683645130681e+00
2.381697683645130681e+00
2.427636585589159957e+00
2.427636585589159957e+00
2.427636585589159957e+00
2.373259926145207199e+00
2.373259926145207199e+00
2.373259926145207199e+00
2.373259926145207199e+00
2.373822443311869090e+00
2.373822443311869090e+00
2.373822443311869090e+00
2.400260750144962874e+00
2.400260750144962874e+00
2.400260750144962874e+00
2.287007293923764895e+00
2.287007293923764895e+00
2.287007293923764895e+00
2.287007293923764895e+00
2.247443586535233351e+00
2.247443586535233351e+00
2.247443586535233351e+00
2.193816949980162967e+00
2.193816949980162967e+00
2.193816949980162967e+00
2.152190679647205673e+00
2.152190679647205673e+00
2.152190679647205673e+00
2.152190679647205673e+00
2.195692007202368234e+00
2.195692007202368234e+00
2.195692007202368234e+00
2.214442579424420909e+00
2.214442579424420909e+00
2.214442579424420909e+00
2.264131595812860720e+00
2.264131595812860720e+00
2.264131595812860720e+00
2.264131595812860720e+00
2.330883632923367976e+00
2.330883632923367976e+00
2.330883632923367976e+00
2.349259193700979687e+00
2.349259193700979687e+00
2.349259193700979687e+00
2.404760887478255782e+00
2.404760887478255782e+00
2.404760887478255782e+00
2.404760887478255782e+00
2.427449079866939474e+00
2.427449079866939474e+00
2.427449079866939474e+00
2.376447523422955843e+00
2.376447523422955843e+00
2.376447523422955843e+00
2.417886288033692654e+00
2.417886288033692654e+00
2.417886288033692654e+00
2.417886288033692654e+00
2.379447614978484449e+00
2.379447614978484449e+00
2.379447614978484449e+00
2.269944273201696561e+00
2.269944273201696561e+00
2.269944273201696561e+00
2.269944273201696561e+00
2.236380748924222672e+00
2.236380748924222672e+00
2.236380748924222672e+00
2.176378917813653668e+00
2.176378917813653668e+00
2.176378917813653668e+00
2.163816034424878687e+00
2.163816034424878687e+00
2.163816034424878687e+00
2.163816034424878687e+00
2.213692556535538980e+00
2.213692556535538980e+00
2.213692556535538980e+00
2.237880794701986531e+00
2.237880794701986531e+00
2.237880794701986531e+00
2.303507797479171337e+00
2.303507797479171337e+00
2.303507797479171337e+00
2.356946928312021239e+00
2.356946928312021239e+00
2.356946928312021239e+00
2.356946928312021239e+00
2.370634846034120002e+00
2.370634846034120002e+00
2.370634846034120002e+00
2.434761803033539618e+00
2.434761803033539618e+00
2.434761803033539618e+00
2.424261482589190386e+00
2.424261482589190386e+00
2.424261482589190386e+00
2.424261482589190386e+00
2.373634937589648164e+00
2.373634937589648164e+00
2.373634937589648164e+00
2.427824091311380439e+00
2.427824091311380439e+00
2.427824091311380439e+00
2.335383770256660885e+00
2.335383770256660885e+00
2.335383770256660885e+00
2.335383770256660885e+00
2.250256172368541474e+00
2.250256172368541474e+00
2.250256172368541474e+00
2.221005279702139568e+00
2.221005279702139568e+00
2.221005279702139568e+00
2.221005279702139568e+00
2.165503585924863472e+00
2.165503585924863472e+00
2.165503585924863472e+00
2.168691183202612560e+00
2.168691183202612560e+00
2.168691183202612560e+00
2.206567339091158875e+00
2.206567339091158875e+00
2.206567339091158875e+00
2.206567339091158875e+00
2.239755851924192243e+00
2.239755851924192243e+00
2.239755851924192243e+00
2.319633289590136371e+00
2.319633289590136371e+00
2.319633289590136371e+00
2.361634571367534630e+00
2.361634571367534630e+00
2.361634571367534630e+00
2.361634571367534630e+00
2.384697775200659287e+00
2.384697775200659287e+00
2.384697775200659287e+00
2.435886837366862956e+00
2.435886837366862956e+00
2.435886837366862956e+00
2.393698049867244659e+00
2.393698049867244659e+00
2.393698049867244659e+00
2.393698049867244659e+00
2.371759880367442896e+00
2.371759880367442896e+00
2.371759880367442896e+00
2.407573473311563461e+00
2.407573473311563461e+00
2.407573473311563461e+00
2.283444685201574842e+00
2.283444685201574842e+00
2.283444685201574842e+00
2.283444685201574842e+00
2.226067934202093479e+00
2.226067934202093479e+00
2.226067934202093479e+00
2.188754295480208611e+00
2.188754295480208611e+00
2.188754295480208611e+00
2.144502945036164565e+00
2.144502945036164565e+00
2.144502945036164565e+00
2.144502945036164565e+00
2.170941251869258792e+00
2.170941251869258792e+00
2.170941251869258792e+00
2.202254707480086449e+00
2.202254707480086449e+00
2.202254707480086449e+00
2.263194067201757864e+00
2.263194067201757864e+00
2.263194067201757864e+00
2.263194067201757864e+00
2.339321390423291458e+00
2.339321390423291458e+00
2.339321390423291458e+00
2.357509445478682686e+00
2.357509445478682686e+00
2.357509445478682686e+00
2.357509445478682686e+00
2.395198095645008962e+00
2.395198095645008962e+00
2.395198095645008962e+00
2.432511734366893830e+00
2.432511734366893830e+00
2.432511734366893830e+00
2.385635303811762142e+00
2.385635303811762142e+00
2.385635303811762142e+00
2.385635303811762142e+00
2.407198461867122496e+00
2.407198461867122496e+00
2.407198461867122496e+00
2.400823267311624321e+00
2.400823267311624321e+00
2.400823267311624321e+00
2.276881984923856628e+00
2.276881984923856628e+00
2.276881984923856628e+00
2.276881984923856628e+00
2.236568254646443155e+00
2.236568254646443155e+00
2.236568254646443155e+00
2.178816492202520827e+00
2.178816492202520827e+00
2.178816492202520827e+00
2.149378093813898438e+00
2.149378093813898438e+00
2.149378093813898438e+00
2.149378093813898438e+00
2.194754478591265823e+00
2.194754478591265823e+00
2.194754478591265823e+00
2.213130039368877089e+00
2.213130039368877089e+00
2.213130039368877089e+00
2.272006836146122755e+00
2.272006836146122755e+00
2.272006836146122755e+00
2.272006836146122755e+00
2.330883632923367976e+00
2.330883632923367976e+00
2.330883632923367976e+00
2.349634205145421095e+00
2.349634205145421095e+00
2.349634205145421095e+00
2.349634205145421095e+00
2.415261207922605013e+00
2.415261207922605013e+00
2.415261207922605013e+00
2.419948850978118404e+00
2.419948850978118404e+00
2.419948850978118404e+00
2.368572283089693808e+00
2.368572283089693808e+00
2.368572283089693808e+00
2.368572283089693808e+00
2.426699056978057101e+00
2.426699056978057101e+00
2.426699056978057101e+00
2.364634662923062791e+00
2.364634662923062791e+00
2.364634662923062791e+00
2.258131412701803509e+00
2.258131412701803509e+00
2.258131412701803509e+00
2.258131412701803509e+00
2.227567979979857782e+00
2.227567979979857782e+00
2.227567979979857782e+00
2.163441022980437278e+00
2.163441022980437278e+00
2.163441022980437278e+00
2.155753288369396170e+00
2.155753288369396170e+00
2.155753288369396170e+00
2.155753288369396170e+00
2.201129673146763555e+00
2.201129673146763555e+00
2.201129673146763555e+00
2.223255348368785356e+00
2.223255348368785356e+00
2.223255348368785356e+00
2.302195257423627517e+00
2.302195257423627517e+00
2.302195257423627517e+00
2.302195257423627517e+00
2.355071871089815971e+00
2.355071871089815971e+00
2.355071871089815971e+00
2.376260017700735361e+00
2.376260017700735361e+00
2.376260017700735361e+00
2.436824365977965812e+00
2.436824365977965812e+00
2.436824365977965812e+00
2.436824365977965812e+00
2.407010956144902014e+00
2.407010956144902014e+00
2.407010956144902014e+00
2.370634846034120002e+00
2.370634846034120002e+00
2.370634846034120002e+00
2.370634846034120002e+00
2.428761619922483295e+00
2.428761619922483295e+00
2.428761619922483295e+00
2.327133518478957885e+00
2.327133518478957885e+00
2.327133518478957885e+00
2.255693838312936794e+00
2.255693838312936794e+00
2.255693838312936794e+00
2.255693838312936794e+00
2.219317728202154782e+00
2.219317728202154782e+00
2.219317728202154782e+00
2.159690908536027187e+00
2.159690908536027187e+00
2.159690908536027187e+00
2.172253791924802613e+00
2.172253791924802613e+00
2.172253791924802613e+00
2.172253791924802613e+00
2.203754753257850751e+00
2.203754753257850751e+00
2.203754753257850751e+00
2.239380840479750834e+00
2.239380840479750834e+00
2.239380840479750834e+00
2.316258186590166801e+00
2.316258186590166801e+00
2.316258186590166801e+00
2.316258186590166801e+00
2.347946653645436310e+00
2.347946653645436310e+00
2.347946653645436310e+00
2.382635212256233537e+00
2.382635212256233537e+00
2.382635212256233537e+00
2.432136722922452865e+00
2.432136722922452865e+00
2.432136722922452865e+00
2.432136722922452865e+00
2.378697592089602519e+00
2.378697592089602519e+00
2.378697592089602519e+00
2.382447706534013054e+00
2.382447706534013054e+00
2.382447706534013054e+00
2.420511368144779851e+00
2.420511368144779851e+00
2.420511368144779851e+00
2.420511368144779851e+00
2.301820245979186552e+00
2.301820245979186552e+00
2.301820245979186552e+00
2.250818689535202921e+00
2.250818689535202921e+00
2.250818689535202921e+00
2.194191961424603932e+00
2.194191961424603932e+00
2.194191961424603932e+00
2.194191961424603932e+00
2.145252967925046494e+00
2.145252967925046494e+00
2.145252967925046494e+00
2.182004089480269915e+00
2.182004089480269915e+00
2.182004089480269915e+00
2.212942533646656607e+00
2.212942533646656607e+00
2.212942533646656607e+00
2.212942533646656607e+00
2.267319193090609808e+00
2.267319193090609808e+00
2.267319193090609808e+00
2.337633838923307117e+00
2.337633838923307117e+00
2.337633838923307117e+00
2.356759422589800756e+00
2.356759422589800756e+00
2.356759422589800756e+00
2.356759422589800756e+00
2.418448805200354101e+00
2.418448805200354101e+00
2.418448805200354101e+00
2.442074526200140649e+00
2.442074526200140649e+00
2.442074526200140649e+00
2.376635029145176325e+00
2.376635029145176325e+00
2.376635029145176325e+00
2.376635029145176325e+00
2.401760795922727176e+00
2.401760795922727176e+00
2.401760795922727176e+00
2.365947202978606612e+00
2.365947202978606612e+00
2.365947202978606612e+00
2.253818781090731527e+00
2.253818781090731527e+00
2.253818781090731527e+00
2.253818781090731527e+00
2.227942991424298746e+00
2.227942991424298746e+00
2.227942991424298746e+00
2.163441022980437278e+00
2.163441022980437278e+00
2.163441022980437278e+00
2.146940519425031280e+00
2.146940519425031280e+00
2.146940519425031280e+00
2.146940519425031280e+00
2.199254615924558287e+00
2.199254615924558287e+00
2.199254615924558287e+00
2.227005462813196335e+00
2.227005462813196335e+00
2.227005462813196335e+00
2.297132602923673161e+00
2.297132602923673161e+00
2.297132602923673161e+00
2.297132602923673161e+00
2.366697225867488541e+00
2.366697225867488541e+00
2.366697225867488541e+00
2.378885097811823002e+00
2.378885097811823002e+00
2.378885097811823002e+00
2.429699148533585706e+00
2.429699148533585706e+00
2.429699148533585706e+00
2.429699148533585706e+00
2.421261391033662225e+00
2.421261391033662225e+00
2.421261391033662225e+00
2.367447248756370914e+00
2.367447248756370914e+00
2.367447248756370914e+00
2.367447248756370914e+00
2.422573931089205601e+00
2.422573931089205601e+00
2.422573931089205601e+00
2.336696310312204705e+00
2.336696310312204705e+00
2.336696310312204705e+00
2.253631275368511044e+00
2.253631275368511044e+00
2.253631275368511044e+00
2.253631275368511044e+00
2.227755485702078264e+00
2.227755485702078264e+00
2.227755485702078264e+00
2.169628711813714972e+00
2.169628711813714972e+00
2.169628711813714972e+00
2.164941068758201581e+00
2.164941068758201581e+00
2.164941068758201581e+00
2.164941068758201581e+00
2.205817316202276945e+00
2.205817316202276945e+00
2.205817316202276945e+00
2.235630726035340299e+00
2.235630726035340299e+00
2.235630726035340299e+00
2.308570451979125249e+00
2.308570451979125249e+00
2.308570451979125249e+00
2.308570451979125249e+00
2.348696676534318240e+00
2.348696676534318240e+00
2.348696676534318240e+00
2.372697408978545752e+00
2.372697408978545752e+00
2.372697408978545752e+00
2.423136448255867048e+00
2.423136448255867048e+00
2.423136448255867048e+00
2.423136448255867048e+00
2.391072969756157018e+00
2.391072969756157018e+00
2.391072969756157018e+00
2.377760063478499664e+00
2.377760063478499664e+00
2.377760063478499664e+00
2.423698965422528495e+00
2.423698965422528495e+00
2.423698965422528495e+00
2.423698965422528495e+00
2.305570360423596643e+00
2.305570360423596643e+00
2.305570360423596643e+00
2.242755943479720404e+00
2.242755943479720404e+00
2.242755943479720404e+00
2.207879879146702695e+00
2.207879879146702695e+00
2.207879879146702695e+00
2.207879879146702695e+00
2.160065919980468152e+00
2.160065919980468152e+00
2.160065919980468152e+00
2.179754020813623683e+00
2.179754020813623683e+00
2.179754020813623683e+00
2.205817316202276945e+00
2.205817316202276945e+00
2.205817316202276945e+00
2.205817316202276945e+00
2.249318643757439062e+00
2.249318643757439062e+00
2.249318643757439062e+00
2.316258186590166801e+00
2.316258186590166801e+00
2.316258186590166801e+00
2.341758964812158617e+00
2.341758964812158617e+00
2.341758964812158617e+00
2.341758964812158617e+00
2.383760246589556875e+00
2.383760246589556875e+00
2.383760246589556875e+00
2.431574205755790974e+00
2.431574205755790974e+00
2.431574205755790974e+00
2.379072603534043484e+00
2.379072603534043484e+00
2.379072603534043484e+00
2.379072603534043484e+00
2.401385784478286212e+00
2.401385784478286212e+00
2.401385784478286212e+00
2.400448255867183356e+00
2.400448255867183356e+00
2.400448255867183356e+00
2.400448255867183356e+00
2.275381939146092325e+00
2.275381939146092325e+00
2.275381939146092325e+00
2.249693655201880027e+00
2.249693655201880027e+00
2.249693655201880027e+00
2.213317545091097571e+00
2.213317545091097571e+00
2.213317545091097571e+00
2.213317545091097571e+00
2.172441297647023095e+00
2.172441297647023095e+00
2.172441297647023095e+00
2.196629535813471090e+00
2.196629535813471090e+00
2.196629535813471090e+00
2.215192602313302839e+00
2.215192602313302839e+00
2.215192602313302839e+00
2.215192602313302839e+00
2.279319559312723342e+00
2.279319559312723342e+00
2.279319559312723342e+00
2.347384136478774419e+00
2.347384136478774419e+00
2.347384136478774419e+00
2.358259468367565059e+00
2.358259468367565059e+00
2.358259468367565059e+00
2.358259468367565059e+00
2.416573747978148834e+00
2.416573747978148834e+00
2.416573747978148834e+00
2.427074068422498510e+00
2.427074068422498510e+00
2.427074068422498510e+00
2.375134983367412023e+00
2.375134983367412023e+00
2.375134983367412023e+00
2.375134983367412023e+00
2.422011413922543710e+00
2.422011413922543710e+00
2.422011413922543710e+00
2.362572099978637485e+00
2.362572099978637485e+00
2.362572099978637485e+00
2.259443952757347329e+00
2.259443952757347329e+00
2.259443952757347329e+00
2.259443952757347329e+00
2.229630542924283532e+00
2.229630542924283532e+00
2.229630542924283532e+00
2.166253608813745402e+00
2.166253608813745402e+00
2.166253608813745402e+00
2.154065736869411385e+00
2.154065736869411385e+00
2.154065736869411385e+00
2.154065736869411385e+00
2.197567064424573946e+00
2.197567064424573946e+00
2.197567064424573946e+00
2.222130314035462462e+00
2.222130314035462462e+00
2.222130314035462462e+00
2.222130314035462462e+00
2.292257454145939732e+00
2.292257454145939732e+00
2.292257454145939732e+00
2.338196356089969008e+00
2.338196356089969008e+00
2.338196356089969008e+00
2.362197088534196077e+00
2.362197088534196077e+00
2.362197088534196077e+00
2.362197088534196077e+00
2.427449079866939474e+00
2.427449079866939474e+00
2.427449079866939474e+00
2.404010864589373409e+00
2.404010864589373409e+00
2.404010864589373409e+00
2.371009857478560967e+00
2.371009857478560967e+00
2.371009857478560967e+00
2.419011322367015993e+00
2.419011322367015993e+00
2.419011322367015993e+00
2.419011322367015993e+00
2.332946195867793726e+00
2.332946195867793726e+00
2.332946195867793726e+00
2.265256630146183614e+00
2.265256630146183614e+00
2.265256630146183614e+00
2.226442945646534444e+00
2.226442945646534444e+00
2.226442945646534444e+00
2.226442945646534444e+00
2.160253425702688634e+00
2.160253425702688634e+00
2.160253425702688634e+00
2.173191320535905025e+00
2.173191320535905025e+00
2.173191320535905025e+00
2.209379924924466998e+00
2.209379924924466998e+00
2.209379924924466998e+00
2.209379924924466998e+00
2.247256080813012868e+00
2.247256080813012868e+00
2.247256080813012868e+00
2.317383220923490139e+00
2.317383220923490139e+00
2.317383220923490139e+00
2.348509170812097757e+00
2.348509170812097757e+00
2.348509170812097757e+00
2.348509170812097757e+00
2.380760155034028269e+00
2.380760155034028269e+00
2.380760155034028269e+00
2.434574297311319135e+00
2.434574297311319135e+00
2.434574297311319135e+00
2.389197912533951751e+00
2.389197912533951751e+00
2.389197912533951751e+00
2.389197912533951751e+00
2.387510361033966966e+00
2.387510361033966966e+00
2.387510361033966966e+00
2.415261207922605013e+00
2.415261207922605013e+00
2.415261207922605013e+00
2.296570085757011714e+00
2.296570085757011714e+00
2.296570085757011714e+00
2.296570085757011714e+00
2.248381115146336207e+00
2.248381115146336207e+00
2.248381115146336207e+00
2.202254707480086449e+00
2.202254707480086449e+00
2.202254707480086449e+00
2.153878231147190458e+00
2.153878231147190458e+00
2.153878231147190458e+00
2.153878231147190458e+00
2.181629078035828950e+00
2.181629078035828950e+00
2.181629078035828950e+00
2.201504684591204519e+00
2.201504684591204519e+00
2.201504684591204519e+00
2.256443861201819168e+00
2.256443861201819168e+00
2.256443861201819168e+00
2.256443861201819168e+00
2.325820978423414065e+00
2.325820978423414065e+00
2.325820978423414065e+00
2.341758964812158617e+00
2.341758964812158617e+00
2.341758964812158617e+00
2.393135532700583212e+00
2.393135532700583212e+00
2.393135532700583212e+00
2.393135532700583212e+00
2.426136539811395654e+00
2.426136539811395654e+00
2.426136539811395654e+00
2.375322489089632505e+00
2.375322489089632505e+00
2.375322489089632505e+00
2.416011230811487387e+00
2.416011230811487387e+00
2.416011230811487387e+00
2.416011230811487387e+00
2.385447798089541660e+00
2.385447798089541660e+00
2.385447798089541660e+00
2.268819238868374111e+00
2.268819238868374111e+00
2.268819238868374111e+00
2.268819238868374111e+00
2.239943357646412725e+00
2.239943357646412725e+00
2.239943357646412725e+00
2.183691640980254700e+00
2.183691640980254700e+00
2.183691640980254700e+00
2.160253425702688634e+00
2.160253425702688634e+00
2.160253425702688634e+00
2.160253425702688634e+00
2.199629627368999252e+00
2.199629627368999252e+00
2.199629627368999252e+00
2.218380199591051927e+00
2.218380199591051927e+00
2.218380199591051927e+00
2.292069948423719250e+00
2.292069948423719250e+00
2.292069948423719250e+00
2.292069948423719250e+00
2.346821619312112972e+00
2.346821619312112972e+00
2.346821619312112972e+00
2.359384502700888397e+00
2.359384502700888397e+00
2.359384502700888397e+00
2.422761436811426083e+00
2.422761436811426083e+00
2.422761436811426083e+00
2.422761436811426083e+00
2.425386516922513280e+00
2.425386516922513280e+00
2.425386516922513280e+00
2.371009857478560967e+00
2.371009857478560967e+00
2.371009857478560967e+00
2.431761711478011456e+00
2.431761711478011456e+00
2.431761711478011456e+00
2.431761711478011456e+00
2.342508987701040546e+00
2.342508987701040546e+00
2.342508987701040546e+00
2.250068666646320992e+00
2.250068666646320992e+00
2.250068666646320992e+00
2.226442945646534444e+00
2.226442945646534444e+00
2.226442945646534444e+00
2.226442945646534444e+00
2.162315988647114828e+00
2.162315988647114828e+00
2.162315988647114828e+00
2.157815851313821920e+00
2.157815851313821920e+00
2.157815851313821920e+00
2.157815851313821920e+00
2.199817133091219734e+00
2.199817133091219734e+00
2.199817133091219734e+00
2.230568071535386387e+00
2.230568071535386387e+00
2.230568071535386387e+00
2.299570177312540320e+00
2.299570177312540320e+00
2.299570177312540320e+00
2.299570177312540320e+00
2.346634113589892490e+00
2.346634113589892490e+00
2.346634113589892490e+00
2.366134708700827094e+00
2.366134708700827094e+00
2.366134708700827094e+00
2.427261574144718992e+00
2.427261574144718992e+00
2.427261574144718992e+00
2.427261574144718992e+00
2.393510544145024177e+00
2.393510544145024177e+00
2.393510544145024177e+00
2.364822168645283273e+00
2.364822168645283273e+00
2.364822168645283273e+00
2.408698507644886799e+00
2.408698507644886799e+00
2.408698507644886799e+00
2.408698507644886799e+00
2.304070314645832784e+00
2.304070314645832784e+00
2.304070314645832784e+00
2.251568712424085295e+00
2.251568712424085295e+00
2.251568712424085295e+00
2.223067842646564873e+00
2.223067842646564873e+00
2.223067842646564873e+00
2.223067842646564873e+00
2.169066194647053525e+00
2.169066194647053525e+00
2.169066194647053525e+00
2.193441938535722002e+00
2.193441938535722002e+00
2.193441938535722002e+00
2.220067751091036712e+00
2.220067751091036712e+00
2.220067751091036712e+00
2.220067751091036712e+00
2.260381481368449741e+00
2.260381481368449741e+00
2.260381481368449741e+00
2.330133610034486047e+00
2.330133610034486047e+00
2.330133610034486047e+00
2.354696859645375007e+00
2.354696859645375007e+00
2.354696859645375007e+00
2.354696859645375007e+00
2.390885464033936536e+00
2.390885464033936536e+00
2.390885464033936536e+00
2.431199194311350009e+00
2.431199194311350009e+00
2.431199194311350009e+00
2.431199194311350009e+00
2.377385052034058699e+00
2.377385052034058699e+00
2.377385052034058699e+00
2.395573107089449927e+00
2.395573107089449927e+00
2.395573107089449927e+00
2.398385692922757606e+00
2.398385692922757606e+00
2.398385692922757606e+00
2.398385692922757606e+00
2.271819330423901828e+00
2.271819330423901828e+00
2.271819330423901828e+00
2.237318277535325084e+00
2.237318277535325084e+00
2.237318277535325084e+00
2.184629169591357556e+00
2.184629169591357556e+00
2.184629169591357556e+00
2.184629169591357556e+00
2.145440473647266977e+00
2.145440473647266977e+00
2.145440473647266977e+00
2.186316721091342341e+00
2.186316721091342341e+00
2.186316721091342341e+00
2.216130130924405695e+00
2.216130130924405695e+00
2.216130130924405695e+00
2.216130130924405695e+00
2.275569444868312807e+00
2.275569444868312807e+00
2.275569444868312807e+00
2.343634022034363884e+00
2.343634022034363884e+00
2.343634022034363884e+00
2.361072054200873183e+00
2.361072054200873183e+00
2.361072054200873183e+00
2.361072054200873183e+00
2.415073702200384531e+00
2.415073702200384531e+00
2.415073702200384531e+00
2.427636585589159957e+00
2.427636585589159957e+00
2.427636585589159957e+00
2.377760063478499664e+00
2.377760063478499664e+00
2.377760063478499664e+00
2.377760063478499664e+00
2.425011505478072316e+00
2.425011505478072316e+00
2.425011505478072316e+00
2.370822351756340485e+00
2.370822351756340485e+00
2.370822351756340485e+00
2.370822351756340485e+00
2.264506607257301685e+00
2.264506607257301685e+00
2.264506607257301685e+00
2.234130680257575996e+00
2.234130680257575996e+00
2.234130680257575996e+00
2.167378643147068740e+00
2.167378643147068740e+00
2.167378643147068740e+00
2.167378643147068740e+00
2.153690725424969976e+00
2.153690725424969976e+00
2.153690725424969976e+00
2.196629535813471090e+00
2.196629535813471090e+00
2.196629535813471090e+00
2.217817682424390480e+00
2.217817682424390480e+00
2.217817682424390480e+00
2.217817682424390480e+00
2.292444959868159771e+00
2.292444959868159771e+00
2.292444959868159771e+00
2.348134159367656792e+00
2.348134159367656792e+00
2.348134159367656792e+00
2.366697225867488541e+00
2.366697225867488541e+00
2.366697225867488541e+00
2.422948942533646566e+00
2.422948942533646566e+00
2.422948942533646566e+00
2.422948942533646566e+00
2.406635944700461049e+00
2.406635944700461049e+00
2.406635944700461049e+00
2.371197363200781449e+00
2.371197363200781449e+00
2.371197363200781449e+00
2.371197363200781449e+00
2.433636768700216724e+00
2.433636768700216724e+00
2.433636768700216724e+00
2.327321024201178368e+00
2.327321024201178368e+00
2.327321024201178368e+00
2.243880977813043742e+00
2.243880977813043742e+00
2.243880977813043742e+00
2.243880977813043742e+00
2.209754936368907963e+00
2.209754936368907963e+00
2.209754936368907963e+00
2.149378093813898438e+00
2.149378093813898438e+00
2.149378093813898438e+00
2.163628528702658205e+00
2.163628528702658205e+00
2.163628528702658205e+00
2.163628528702658205e+00
2.202817224646748340e+00
2.202817224646748340e+00
2.202817224646748340e+00
2.236943266090884119e+00
2.236943266090884119e+00
2.236943266090884119e+00
2.316820703756828248e+00
2.316820703756828248e+00
2.316820703756828248e+00
2.316820703756828248e+00
2.362197088534196077e+00
2.362197088534196077e+00
2.362197088534196077e+00
2.394823084200567997e+00
2.394823084200567997e+00
2.394823084200567997e+00
2.441512009033478758e+00
2.441512009033478758e+00
2.441512009033478758e+00
2.441512009033478758e+00
2.396698141422773265e+00
2.396698141422773265e+00
2.396698141422773265e+00
2.386760338145085036e+00
2.386760338145085036e+00
2.386760338145085036e+00
2.414136173589282119e+00
2.414136173589282119e+00
2.414136173589282119e+00
2.414136173589282119e+00
2.292632465590380253e+00
2.292632465590380253e+00
2.292632465590380253e+00
2.242943449201941331e+00
2.242943449201941331e+00
2.242943449201941331e+00
2.242943449201941331e+00
2.202817224646748340e+00
2.202817224646748340e+00
2.202817224646748340e+00
2.155003265480513797e+00
2.155003265480513797e+00
2.155003265480513797e+00
2.179191503646961792e+00
2.179191503646961792e+00
2.179191503646961792e+00
2.179191503646961792e+00
2.205442304757835537e+00
2.205442304757835537e+00
2.205442304757835537e+00
2.264319101535081202e+00
2.264319101535081202e+00
2.264319101535081202e+00
2.340258919034394314e+00
2.340258919034394314e+00
2.340258919034394314e+00
2.340258919034394314e+00
2.358446974089785542e+00
2.358446974089785542e+00
2.358446974089785542e+00
2.406073427533799602e+00
2.406073427533799602e+00
2.406073427533799602e+00
2.430824182866909045e+00
2.430824182866909045e+00
2.430824182866909045e+00
2.430824182866909045e+00
2.373822443311869090e+00
2.373822443311869090e+00
2.373822443311869090e+00
2.401198278756065729e+00
2.401198278756065729e+00
2.401198278756065729e+00
2.382447706534013054e+00
2.382447706534013054e+00
2.382447706534013054e+00
2.382447706534013054e+00
2.272944364757225166e+00
2.272944364757225166e+00
2.272944364757225166e+00
2.243505966368602778e+00
2.243505966368602778e+00
2.243505966368602778e+00
2.181441572313608468e+00
2.181441572313608468e+00
2.181441572313608468e+00
2.181441572313608468e+00
2.158003357036042402e+00
2.158003357036042402e+00
2.158003357036042402e+00
2.200379650257881181e+00
2.200379650257881181e+00
2.200379650257881181e+00
2.200379650257881181e+00
2.216130130924405695e+00
2.216130130924405695e+00
2.216130130924405695e+00
2.282132145146031021e+00
2.282132145146031021e+00
2.282132145146031021e+00
2.343071504867702437e+00
2.343071504867702437e+00
2.343071504867702437e+00
2.343071504867702437e+00
2.362947111423078006e+00
2.362947111423078006e+00
2.362947111423078006e+00
2.420886379589221260e+00
2.420886379589221260e+00
2.420886379589221260e+00
2.415448713644825496e+00
2.415448713644825496e+00
2.415448713644825496e+00
2.415448713644825496e+00
2.360697042756431774e+00
2.360697042756431774e+00
2.360697042756431774e+00
2.418636310922574584e+00
2.418636310922574584e+00
2.418636310922574584e+00
2.346259102145451525e+00
2.346259102145451525e+00
2.346259102145451525e+00
2.346259102145451525e+00
2.257568895535142062e+00
2.257568895535142062e+00
2.257568895535142062e+00
2.227755485702078264e+00
2.227755485702078264e+00
2.227755485702078264e+00
2.159128391369365740e+00
2.159128391369365740e+00
2.159128391369365740e+00
2.159128391369365740e+00
2.157065828424939546e+00
2.157065828424939546e+00
2.157065828424939546e+00
2.215942625202185212e+00
2.215942625202185212e+00
2.215942625202185212e+00
2.254381298257393418e+00
2.254381298257393418e+00
2.254381298257393418e+00
2.254381298257393418e+00
2.321695852534562121e+00
2.321695852534562121e+00
2.321695852534562121e+00
2.357696951200903612e+00
2.357696951200903612e+00
2.357696951200903612e+00
2.357696951200903612e+00
2.377010040589617734e+00
2.377010040589617734e+00
2.377010040589617734e+00
2.430449171422468080e+00
2.430449171422468080e+00
2.430449171422468080e+00
2.399323221533860018e+00
2.399323221533860018e+00
2.399323221533860018e+00
2.399323221533860018e+00
2.373822443311869090e+00
2.373822443311869090e+00
2.373822443311869090e+00
2.421448896755882263e+00
2.421448896755882263e+00
2.421448896755882263e+00
2.305570360423596643e+00
2.305570360423596643e+00
2.305570360423596643e+00
2.305570360423596643e+00
2.238818323313089387e+00
2.238818323313089387e+00
2.238818323313089387e+00
2.202817224646748340e+00
2.202817224646748340e+00
2.202817224646748340e+00
2.146753013702810797e+00
2.146753013702810797e+00
2.146753013702810797e+00
2.146753013702810797e+00
2.163816034424878687e+00
2.163816034424878687e+00
2.163816034424878687e+00
2.194191961424603932e+00
2.194191961424603932e+00
2.194191961424603932e+00
2.237318277535325084e+00
2.237318277535325084e+00
2.237318277535325084e+00
2.237318277535325084e+00
2.314758140812402942e+00
2.314758140812402942e+00
2.314758140812402942e+00
2.349446699423200169e+00
2.349446699423200169e+00
2.349446699423200169e+00
2.390885464033936536e+00
2.390885464033936536e+00
2.390885464033936536e+00
2.390885464033936536e+00
2.437574388866847741e+00
2.437574388866847741e+00
2.437574388866847741e+00
2.385822809533982625e+00
2.385822809533982625e+00
2.385822809533982625e+00
2.401010773033844803e+00
2.401010773033844803e+00
2.401010773033844803e+00
2.401010773033844803e+00
2.419761345255897922e+00
2.419761345255897922e+00
2.419761345255897922e+00
2.301820245979186552e+00
2.301820245979186552e+00
2.301820245979186552e+00
2.301820245979186552e+00
2.254193792535172935e+00
2.254193792535172935e+00
2.254193792535172935e+00
2.191004364146854844e+00
2.191004364146854844e+00
2.191004364146854844e+00
2.150503128147221332e+00
2.150503128147221332e+00
2.150503128147221332e+00
2.191004364146854844e+00
2.191004364146854844e+00
2.191004364146854844e+00
2.191004364146854844e+00
2.212755027924436124e+00
2.212755027924436124e+00
2.212755027924436124e+00
2.272944364757225166e+00
2.272944364757225166e+00
2.272944364757225166e+00
2.333508713034455617e+00
2.333508713034455617e+00
2.333508713034455617e+00
2.333508713034455617e+00
2.350946745200964472e+00
2.350946745200964472e+00
2.350946745200964472e+00
2.404948393200476264e+00
2.404948393200476264e+00
2.404948393200476264e+00
2.422573931089205601e+00
2.422573931089205601e+00
2.422573931089205601e+00
2.422573931089205601e+00
2.378697592089602519e+00
2.378697592089602519e+00
2.378697592089602519e+00
2.423886471144749422e+00
2.423886471144749422e+00
2.423886471144749422e+00
2.371572374645222414e+00
2.371572374645222414e+00
2.371572374645222414e+00
2.371572374645222414e+00
2.263569078646198829e+00
2.263569078646198829e+00
2.263569078646198829e+00
2.235255714590899334e+00
2.235255714590899334e+00
2.235255714590899334e+00
2.162691000091555793e+00
2.162691000091555793e+00
2.162691000091555793e+00
2.162691000091555793e+00
2.140377819147312621e+00
2.140377819147312621e+00
2.140377819147312621e+00
2.197379558702353020e+00
2.197379558702353020e+00
2.197379558702353020e+00
2.235630726035340299e+00
2.235630726035340299e+00
2.235630726035340299e+00
2.235630726035340299e+00
2.304257820368053267e+00
2.304257820368053267e+00
2.304257820368053267e+00
2.345134067812128187e+00
2.345134067812128187e+00
2.345134067812128187e+00
2.345134067812128187e+00
2.356009399700918827e+00
2.356009399700918827e+00
2.356009399700918827e+00
2.415823725089266905e+00
2.415823725089266905e+00
2.415823725089266905e+00
2.400635761589403838e+00
2.400635761589403838e+00
2.400635761589403838e+00
2.400635761589403838e+00
2.375885006256294396e+00
2.375885006256294396e+00
2.375885006256294396e+00
2.441699514755699685e+00
2.441699514755699685e+00
2.441699514755699685e+00
2.343446516312143402e+00
2.343446516312143402e+00
2.343446516312143402e+00
2.343446516312143402e+00
2.257943906979583026e+00
2.257943906979583026e+00
2.257943906979583026e+00
2.222505325479903426e+00
2.222505325479903426e+00
2.222505325479903426e+00
2.158190862758262885e+00
2.158190862758262885e+00
2.158190862758262885e+00
2.158190862758262885e+00
2.174503860591448845e+00
2.174503860591448845e+00
2.174503860591448845e+00
2.211817499313333268e+00
2.211817499313333268e+00
2.211817499313333268e+00
2.241818414868617992e+00
2.241818414868617992e+00
2.241818414868617992e+00
2.241818414868617992e+00
2.317383220923490139e+00
2.317383220923490139e+00
2.354134342478713116e+00
2.354134342478713116e+00
2.379260109256263966e+00
2.379260109256263966e+00
2.430824182866909045e+00
2.430824182866909045e+00
2.390135441145054607e+00
2.390135441145054607e+00
2.390135441145054607e+00
2.378322580645161111e+00
2.378322580645161111e+00
2.407198461867122496e+00
2.407198461867122496e+00
2.284944730979339145e+00
2.284944730979339145e+00
2.233568163090914993e+00
2.233568163090914993e+00
2.195129490035706787e+00
2.195129490035706787e+00
2.149940610980559885e+00
2.149940610980559885e+00
2.181816583758049433e+00
2.181816583758049433e+00
2.209192419202246516e+00
2.209192419202246516e+00
2.209192419202246516e+00
2.260943998535111632e+00
2.330133610034486047e+00
2.330133610034486047e+00
2.355634388256477418e+00
2.355634388256477418e+00
2.355634388256477418e+00
2.412448622089296890e+00
2.412448622089296890e+00
2.446012146366771223e+00
2.446012146366771223e+00
2.388635395367290304e+00
2.388635395367290304e+00
2.410011047700430176e+00
2.410011047700430176e+00
2.387510361033966966e+00
2.387510361033966966e+00
2.269381756035035114e+00
2.269381756035035114e+00
2.239380840479750834e+00
2.239380840479750834e+00
2.178253975035859380e+00
2.178253975035859380e+00
2.178253975035859380e+00
2.149003082369457029e+00
2.149003082369457029e+00
2.190441846980193397e+00
2.190441846980193397e+00
2.214442579424420909e+00
2.214442579424420909e+00
2.278007019257179522e+00
2.278007019257179522e+00
2.339696401867732423e+00
2.339696401867732423e+00
2.342508987701040546e+00
2.342508987701040546e+00
2.416948759422589799e+00
2.416948759422589799e+00
2.424261482589190386e+00
2.424261482589190386e+00
2.424261482589190386e+00
2.368009765923032361e+00
2.368009765923032361e+00
2.419573839533677440e+00
2.419573839533677440e+00
2.346446607867672007e+00
2.346446607867672007e+00
2.251943723868526259e+00
2.251943723868526259e+00
2.235630726035340299e+00
2.235630726035340299e+00
2.174503860591448845e+00
2.174503860591448845e+00
2.171128757591479275e+00
2.171128757591479275e+00
2.213692556535538980e+00
2.213692556535538980e+00
2.213692556535538980e+00
2.243318460646382295e+00
2.243318460646382295e+00
2.309507980590228104e+00
2.309507980590228104e+00
2.356946928312021239e+00
2.356946928312021239e+00
2.377197546311838217e+00
2.377197546311838217e+00
2.434011780144657688e+00
2.434011780144657688e+00
2.407573473311563461e+00
2.407573473311563461e+00
2.374759971922971058e+00
2.374759971922971058e+00
2.418823816644795066e+00
2.418823816644795066e+00
2.304445326090273749e+00
2.304445326090273749e+00
2.304445326090273749e+00
2.243130954924161813e+00
2.243130954924161813e+00
2.212005005035553751e+00
2.212005005035553751e+00
2.147315530869472244e+00
2.147315530869472244e+00
2.167941160313730187e+00
2.167941160313730187e+00
2.203754753257850751e+00
2.203754753257850751e+00
2.241630909146397510e+00
2.241630909146397510e+00
2.314383129367961978e+00
2.314383129367961978e+00
2.347384136478774419e+00
2.347384136478774419e+00
2.388260383922848895e+00
2.388260383922848895e+00
2.388260383922848895e+00
2.431574205755790974e+00
2.431574205755790974e+00
2.388635395367290304e+00
2.388635395367290304e+00
2.393135532700583212e+00
2.393135532700583212e+00
2.412636127811517817e+00
2.412636127811517817e+00
2.295632557145908859e+00
2.295632557145908859e+00
2.262069032868434526e+00
2.262069032868434526e+00
2.203942258980071234e+00
2.203942258980071234e+00
2.157815851313821920e+00
2.157815851313821920e+00
2.157815851313821920e+00
2.193629444257942485e+00
2.193629444257942485e+00
2.207879879146702695e+00
2.207879879146702695e+00
2.263006561479537382e+00
2.263006561479537382e+00
2.331446150090029423e+00
2.331446150090029423e+00
2.349071687978759204e+00
2.349071687978759204e+00
2.403260841700491479e+00
2.403260841700491479e+00
2.424823999755851833e+00
2.424823999755851833e+00
2.367447248756370914e+00
2.367447248756370914e+00
2.411511093478194478e+00
2.411511093478194478e+00
2.411511093478194478e+00
2.375697500534073914e+00
2.375697500534073914e+00
2.269569261757255596e+00
2.269569261757255596e+00
2.234880703146458369e+00
2.234880703146458369e+00
2.170941251869258792e+00
2.170941251869258792e+00
2.152565691091647082e+00
2.152565691091647082e+00
2.197942075869014911e+00
2.197942075869014911e+00
2.213130039368877089e+00
2.213130039368877089e+00
2.213130039368877089e+00
2.286819788201544412e+00
2.286819788201544412e+00
2.345321573534348669e+00
2.345321573534348669e+00
2.360884548478652700e+00
2.360884548478652700e+00
2.426511551255836618e+00
2.426511551255836618e+00
2.420698873867000778e+00
2.420698873867000778e+00
2.373822443311869090e+00
2.373822443311869090e+00
2.437386883144627259e+00
2.437386883144627259e+00
2.341946470534379099e+00
2.341946470534379099e+00
2.256818872646260132e+00
2.256818872646260132e+00
2.256818872646260132e+00
2.233943174535355514e+00
2.233943174535355514e+00
2.180691549424726094e+00
2.180691549424726094e+00
2.184066652424695665e+00
2.184066652424695665e+00
2.218192693868831444e+00
2.218192693868831444e+00
2.250068666646320992e+00
2.250068666646320992e+00
2.327508529923398850e+00
2.327508529923398850e+00
2.361259559923093665e+00
2.361259559923093665e+00
2.381135166478469234e+00
2.381135166478469234e+00
2.430261665700247153e+00
2.430261665700247153e+00
2.430261665700247153e+00
2.389947935422834124e+00
2.389947935422834124e+00
2.383947752311777357e+00
2.383947752311777357e+00
2.427074068422498510e+00
2.427074068422498510e+00
2.296945097201452679e+00
2.296945097201452679e+00
2.239005829035309869e+00
2.239005829035309869e+00
2.197004547257912055e+00
2.197004547257912055e+00
2.145065462202826012e+00
2.145065462202826012e+00
2.174691366313669327e+00
2.174691366313669327e+00
2.199254615924558287e+00
2.199254615924558287e+00
2.199254615924558287e+00
2.248568620868556689e+00
2.248568620868556689e+00
2.321320841090121156e+00
2.321320841090121156e+00
2.350759239478743989e+00
2.350759239478743989e+00
2.390885464033936536e+00
2.390885464033936536e+00
2.421823908200323228e+00
2.421823908200323228e+00
2.370634846034120002e+00
2.370634846034120002e+00
2.404760887478255782e+00
2.404760887478255782e+00
2.404760887478255782e+00
2.394823084200567997e+00
2.394823084200567997e+00
2.273506881923887057e+00
2.273506881923887057e+00
2.233943174535355514e+00
2.233943174535355514e+00
2.182004089480269915e+00
2.182004089480269915e+00
2.152190679647205673e+00
2.152190679647205673e+00
2.194191961424603932e+00
2.194191961424603932e+00
2.209379924924466998e+00
2.209379924924466998e+00
2.275944456312753772e+00
2.275944456312753772e+00
2.275944456312753772e+00
2.339696401867732423e+00
2.339696401867732423e+00
2.351321756645405436e+00
2.351321756645405436e+00
2.410573564867091623e+00
2.410573564867091623e+00
2.414323679311502602e+00
2.414323679311502602e+00
2.358634479812006024e+00
2.358634479812006024e+00
2.410573564867091623e+00
2.410573564867091623e+00
2.348509170812097757e+00
2.348509170812097757e+00
2.253818781090731527e+00
2.253818781090731527e+00
2.253818781090731527e+00
2.238443311868648422e+00
2.238443311868648422e+00
2.173753837702566916e+00
2.173753837702566916e+00
2.170191228980376863e+00
2.170191228980376863e+00
2.221192785424360050e+00
2.221192785424360050e+00
2.241255897701956545e+00
2.241255897701956545e+00
2.312883083590197675e+00
2.312883083590197675e+00
2.358259468367565059e+00
2.358259468367565059e+00
2.377385052034058699e+00
2.377385052034058699e+00
2.431386700033570492e+00
2.431386700033570492e+00
2.431386700033570492e+00
2.404010864589373409e+00
2.404010864589373409e+00
2.377385052034058699e+00
2.377385052034058699e+00
2.427636585589159957e+00
2.427636585589159957e+00
2.310070497756889552e+00
2.310070497756889552e+00
2.236755760368663637e+00
2.236755760368663637e+00
2.200192144535660699e+00
2.200192144535660699e+00
2.141690359202856442e+00
2.141690359202856442e+00
2.156315805536057617e+00
2.156315805536057617e+00
2.182754112369151844e+00
2.182754112369151844e+00
2.182754112369151844e+00
2.230568071535386387e+00
2.230568071535386387e+00
2.314945646534623425e+00
2.314945646534623425e+00
2.354134342478713116e+00
2.354134342478713116e+00
2.391072969756157018e+00
2.391072969756157018e+00
2.441887020477920167e+00
2.441887020477920167e+00
2.393885555589465142e+00
2.393885555589465142e+00
2.392948026978362286e+00
2.392948026978362286e+00
2.406260933256020085e+00
2.406260933256020085e+00
2.406260933256020085e+00
2.280632099368266719e+00
2.280632099368266719e+00
2.232068117313150690e+00
2.232068117313150690e+00
2.179379009369182274e+00
2.179379009369182274e+00
2.129127475814081016e+00
2.129127475814081016e+00
2.168316171758171151e+00
2.168316171758171151e+00
2.197004547257912055e+00
2.197004547257912055e+00
2.261131504257332114e+00
2.261131504257332114e+00
2.335383770256660885e+00
2.335383770256660885e+00
2.356946928312021239e+00
2.356946928312021239e+00
2.356946928312021239e+00
2.407385967589342979e+00
2.407385967589342979e+00
2.429324137089144742e+00
2.429324137089144742e+00
2.371572374645222414e+00
2.371572374645222414e+00
2.426511551255836618e+00
2.426511551255836618e+00
2.406260933256020085e+00
2.406260933256020085e+00
2.299945188756981285e+00
2.299945188756981285e+00
2.264881618701742649e+00
2.264881618701742649e+00
2.181629078035828950e+00
2.181629078035828950e+00
2.181629078035828950e+00
2.136252693258461566e+00
2.136252693258461566e+00
2.159878414258247670e+00
2.159878414258247670e+00
2.169628711813714972e+00
2.169628711813714972e+00
2.234318185979796478e+00
2.234318185979796478e+00
2.303882808923612302e+00
2.303882808923612302e+00
2.337071321756645670e+00
2.337071321756645670e+00
2.419761345255897922e+00
2.419761345255897922e+00
2.449199743644520311e+00
2.449199743644520311e+00
2.449387249366740793e+00
2.449387249366740793e+00
2.449387249366740793e+00
2.532827295754875419e+00
2.532827295754875419e+00
2.427636585589159957e+00
2.427636585589159957e+00
2.288694845423749680e+00
2.288694845423749680e+00
2.195316995757927270e+00
2.195316995757927270e+00
2.082063539536728847e+00
2.082063539536728847e+00
2.054687704092532208e+00
2.054687704092532208e+00
2.086001159703360308e+00
2.086001159703360308e+00
2.086001159703360308e+00
2.129689992980742907e+00
2.129689992980742907e+00
2.230943082979827352e+00
2.230943082979827352e+00
2.298070131534776017e+00
2.298070131534776017e+00
2.354884365367595489e+00
2.354884365367595489e+00
2.429511642811365224e+00
2.429511642811365224e+00
2.410011047700430176e+00
2.410011047700430176e+00
2.381322672200689716e+00
2.381322672200689716e+00
2.405698416089358194e+00
2.405698416089358194e+00
2.405698416089358194e+00
2.271631824701681346e+00
2.271631824701681346e+00
2.195692007202368234e+00
2.195692007202368234e+00
2.146940519425031280e+00
2.146940519425031280e+00
2.087501205481124167e+00
2.087501205481124167e+00
2.125002349925229961e+00
2.125002349925229961e+00
2.151065645313883223e+00
2.151065645313883223e+00
2.189504318369090985e+00
2.189504318369090985e+00
2.263194067201757864e+00
2.263194067201757864e+00
2.263194067201757864e+00
2.312320566423536228e+00
2.312320566423536228e+00
2.362759605700857524e+00
2.362759605700857524e+00
2.391260475478377501e+00
2.391260475478377501e+00
2.285694753868221074e+00
2.285694753868221074e+00
2.217255165257729033e+00
2.217255165257729033e+00
2.137002716147343495e+00
2.137002716147343495e+00
1.987748161259804025e+00
1.987748161259804025e+00
1.987748161259804025e+00
1.971247657704397804e+00
1.971247657704397804e+00
1.979310403759880321e+00
1.979310403759880321e+00
2.055437726981414581e+00
2.055437726981414581e+00
2.213317545091097571e+00
2.213317545091097571e+00
2.378322580645161111e+00
2.378322580645161111e+00
2.525327066866054349e+00
2.525327066866054349e+00
2.611392193365276171e+00
2.611392193365276171e+00
2.641393108920560451e+00
2.641393108920560451e+00
2.696519791253395137e+00
2.696519791253395137e+00
2.696519791253395137e+00
2.659768669698171717e+00
2.659768669698171717e+00
2.559078096865749163e+00
2.559078096865749163e+00
2.561890682699057287e+00
2.561890682699057287e+00
2.402698324533829588e+00
2.402698324533829588e+00
2.183504135258034218e+00
2.183504135258034218e+00
2.084688619647816488e+00
2.084688619647816488e+00
2.018874111148411643e+00
2.018874111148411643e+00
2.072125736259041062e+00
2.072125736259041062e+00
2.072125736259041062e+00
2.153315713980529011e+00
2.153315713980529011e+00
2.163066011535996758e+00
2.163066011535996758e+00
2.218942716757713818e+00
2.218942716757713818e+00
2.257943906979583026e+00
2.257943906979583026e+00
2.244631000701926116e+00
2.244631000701926116e+00
2.298445142979216982e+00
2.298445142979216982e+00
2.300132694479201767e+00
2.300132694479201767e+00
2.227005462813196335e+00
2.227005462813196335e+00
2.227005462813196335e+00
2.279694570757164307e+00
2.279694570757164307e+00
2.234130680257575996e+00
2.234130680257575996e+00
2.237693288979766049e+00
2.237693288979766049e+00
2.250068666646320992e+00
2.250068666646320992e+00
2.243505966368602778e+00
2.243505966368602778e+00
2.320195806756797818e+00
2.320195806756797818e+00
2.409823541978209693e+00
2.409823541978209693e+00
2.504888943144016888e+00
2.504888943144016888e+00
2.504888943144016888e+00
2.631455305642872666e+00
2.631455305642872666e+00
2.670644001586962357e+00
2.670644001586962357e+00
2.611767204809717136e+00
2.611767204809717136e+00
2.526264595477157204e+00
2.526264595477157204e+00
2.314945646534623425e+00
2.314945646534623425e+00
2.140377819147312621e+00
2.140377819147312621e+00
2.114689535203100768e+00
2.114689535203100768e+00
2.022999237037263143e+00
2.022999237037263143e+00
2.022999237037263143e+00
2.042499832148198191e+00
2.042499832148198191e+00
2.078313425092318756e+00
2.078313425092318756e+00
2.129689992980742907e+00
2.129689992980742907e+00
2.230568071535386387e+00
2.230568071535386387e+00
2.291694936979278285e+00
2.291694936979278285e+00
2.406448438978240567e+00
2.406448438978240567e+00
2.543890133365886541e+00
2.543890133365886541e+00
2.557015533921323414e+00
2.557015533921323414e+00
2.557015533921323414e+00
2.516701803643909940e+00
2.516701803643909940e+00
2.463450178533280521e+00
2.463450178533280521e+00
2.317945738090151586e+00
2.317945738090151586e+00
2.275006927701650916e+00
2.275006927701650916e+00
2.243318460646382295e+00
2.243318460646382295e+00
2.146378002258369833e+00
2.146378002258369833e+00
2.169441206091494490e+00
2.169441206091494490e+00
2.245381023590808045e+00
2.245381023590808045e+00
2.245381023590808045e+00
2.370634846034120002e+00
2.370634846034120002e+00
2.433074251533554833e+00
2.433074251533554833e+00
2.333883724478896582e+00
2.333883724478896582e+00
2.265631641590625023e+00
2.265631641590625023e+00
2.277444502090518075e+00
2.277444502090518075e+00
2.225692922757652514e+00
2.225692922757652514e+00
2.237880794701986531e+00
2.237880794701986531e+00
2.237880794701986531e+00
2.248006103701895242e+00
2.248006103701895242e+00
2.217442670979949515e+00
2.217442670979949515e+00
2.302757774590289408e+00
2.302757774590289408e+00
2.230005554368724940e+00
2.230005554368724940e+00
2.198317087313455875e+00
2.198317087313455875e+00
2.231693105868709726e+00
2.231693105868709726e+00
2.224192876979888212e+00
2.224192876979888212e+00
2.256818872646260132e+00
2.256818872646260132e+00
2.250068666646320992e+00
2.250068666646320992e+00
2.250068666646320992e+00
2.236005737479781263e+00
2.236005737479781263e+00
2.280069582201605716e+00
2.280069582201605716e+00
2.287569811090426342e+00
2.287569811090426342e+00
2.332008667256691314e+00
2.332008667256691314e+00
2.377572557756279181e+00
2.377572557756279181e+00
2.349634205145421095e+00
2.349634205145421095e+00
2.364822168645283273e+00
2.364822168645283273e+00
2.364822168645283273e+00
2.470200384533219218e+00
2.470200384533219218e+00
2.383572740867336393e+00
2.383572740867336393e+00
2.338758873256630455e+00
2.338758873256630455e+00
2.398010681478316641e+00
2.398010681478316641e+00
2.399698232978301426e+00
2.399698232978301426e+00
2.404573381756035300e+00
2.404573381756035300e+00
2.430824182866909045e+00
2.430824182866909045e+00
2.441887020477920167e+00
2.441887020477920167e+00
2.441887020477920167e+00
2.451824823755607952e+00
2.420511368144779851e+00
2.420511368144779851e+00
2.420511368144779851e+00
2.395010589922788480e+00
2.395010589922788480e+00
2.385822809533982625e+00
2.385822809533982625e+00
2.311008026367992407e+00
2.311008026367992407e+00
2.347571642200994901e+00
2.347571642200994901e+00
2.366322214423047576e+00
2.366322214423047576e+00
2.260006469924008776e+00
2.260006469924008776e+00
2.261694021423993561e+00
2.261694021423993561e+00
2.210879970702230857e+00
2.210879970702230857e+00
2.176753929258095077e+00
2.176753929258095077e+00
2.176753929258095077e+00
2.225317911313211550e+00
2.225317911313211550e+00
2.222317819757682944e+00
2.222317819757682944e+00
2.196629535813471090e+00
2.196629535813471090e+00
2.157253334147160473e+00
2.157253334147160473e+00
2.129314981536301499e+00
2.129314981536301499e+00
2.194566972869045340e+00
2.194566972869045340e+00
2.238818323313089387e+00
2.238818323313089387e+00
2.214255073702200427e+00
2.214255073702200427e+00
2.214255073702200427e+00
2.243130954924161813e+00
2.243130954924161813e+00
2.232255623035371173e+00
2.232255623035371173e+00
2.252318735312967224e+00
2.252318735312967224e+00
2.376260017700735361e+00
2.376260017700735361e+00
2.352634296700948813e+00
2.352634296700948813e+00
2.323008392590105942e+00
2.323008392590105942e+00
2.345509079256569152e+00
2.345509079256569152e+00
2.314758140812402942e+00
2.314758140812402942e+00
2.314758140812402942e+00
2.299007660145878429e+00
2.299007660145878429e+00
2.281382122257148648e+00
2.281382122257148648e+00
2.244255989257484707e+00
2.244255989257484707e+00
2.318133243812372069e+00
2.318133243812372069e+00
2.314570635090182460e+00
2.314570635090182460e+00
2.228693014313181120e+00
2.228693014313181120e+00
2.267506698812830290e+00
2.267506698812830290e+00
2.215380108035523765e+00
2.215380108035523765e+00
2.215380108035523765e+00
2.166066103091524919e+00
2.166066103091524919e+00
2.152565691091647082e+00
2.152565691091647082e+00
2.066313058870204777e+00
2.066313058870204777e+00
2.065000518814661401e+00
2.065000518814661401e+00
2.086188665425580790e+00
2.086188665425580790e+00
2.197379558702353020e+00
2.197379558702353020e+00
2.324133426923429280e+00
2.324133426923429280e+00
2.438136906033509188e+00
2.438136906033509188e+00
2.438136906033509188e+00
2.496076174199651998e+00
2.496076174199651998e+00
2.572766014587847927e+00
2.572766014587847927e+00
2.568640888698995983e+00
2.568640888698995983e+00
2.598079287087618372e+00
2.598079287087618372e+00
2.593766655476546834e+00
2.593766655476546834e+00
2.405698416089358194e+00
2.405698416089358194e+00
2.258506424146244473e+00
2.258506424146244473e+00
2.203379741813409787e+00
2.203379741813409787e+00
2.203379741813409787e+00
2.115439558091983141e+00
2.115439558091983141e+00
2.132127567369609622e+00
2.132127567369609622e+00
2.160628437147130043e+00
2.160628437147130043e+00
2.316820703756828248e+00
2.316820703756828248e+00
2.545202673421430362e+00
2.545202673421430362e+00
2.661456221198156946e+00
2.661456221198156946e+00
2.677581713309121980e+00
2.677581713309121980e+00
2.677581713309121980e+00
2.563203222754600663e+00
2.563203222754600663e+00
2.351884273812066883e+00
2.351884273812066883e+00
2.239943357646412725e+00
2.239943357646412725e+00
2.193816949980162967e+00
2.193816949980162967e+00
2.098001525925473842e+00
2.098001525925473842e+00
2.094438917203283790e+00
2.094438917203283790e+00
2.119002166814172750e+00
2.119002166814172750e+00
2.110751915036469750e+00
2.110751915036469750e+00
2.144502945036164565e+00
2.144502945036164565e+00
2.144502945036164565e+00
2.079813470870083059e+00
2.079813470870083059e+00
2.054312692648091243e+00
2.054312692648091243e+00
2.028061891537217498e+00
2.028061891537217498e+00
2.032937040314951371e+00
2.032937040314951371e+00
2.098376537369914807e+00
2.098376537369914807e+00
2.113001983703115982e+00
2.113001983703115982e+00
2.186879238258003344e+00
2.186879238258003344e+00
2.186879238258003344e+00
2.375885006256294396e+00
2.375885006256294396e+00
2.344009033478804849e+00
2.344009033478804849e+00
2.237880794701986531e+00
2.237880794701986531e+00
2.242380932035279439e+00
2.242380932035279439e+00
2.205067293313394572e+00
2.205067293313394572e+00
2.231880611590930208e+00
2.231880611590930208e+00
2.288882351145970162e+00
2.288882351145970162e+00
2.208629902035584625e+00
2.208629902035584625e+00
2.184066652424695665e+00
2.184066652424695665e+00
2.184066652424695665e+00
2.197192052980132537e+00
2.197192052980132537e+00
2.211254982146671821e+00
2.211254982146671821e+00
2.420511368144779851e+00
2.420511368144779851e+00
2.491388531144139051e+00
2.491388531144139051e+00
2.498701254310739639e+00
2.498701254310739639e+00
2.498701254310739639e+00
2.498701254310739639e+00
2.195692007202368234e+00
2.195692007202368234e+00
2.083001068147831703e+00
2.083001068147831703e+00
2.146565507980590315e+00
2.146565507980590315e+00
2.146565507980590315e+00
2.318695760979033516e+00
2.318695760979033516e+00
2.533389812921536866e+00
2.533389812921536866e+00
2.615704824976348153e+00
2.615704824976348153e+00
2.563203222754600663e+00
2.563203222754600663e+00
2.455949949644459451e+00
2.455949949644459451e+00
2.399510727256080500e+00
2.399510727256080500e+00
2.421448896755882263e+00
2.421448896755882263e+00
2.406448438978240567e+00
2.406448438978240567e+00
2.406448438978240567e+00
2.329008575701162709e+00
2.329008575701162709e+00
2.297507614368114126e+00
2.297507614368114126e+00
2.258506424146244473e+00
2.258506424146244473e+00
2.130252510147404355e+00
2.130252510147404355e+00
2.173566331980346433e+00
2.173566331980346433e+00
2.220067751091036712e+00
2.220067751091036712e+00
2.146565507980590315e+00
2.146565507980590315e+00
2.132127567369609622e+00
2.132127567369609622e+00
2.132127567369609622e+00
2.017561571092867823e+00
2.017561571092867823e+00
1.906745689260536558e+00
1.906745689260536558e+00
1.805680104983672596e+00
1.805680104983672596e+00
1.757678640095217792e+00
1.757678640095217792e+00
1.844681295205542026e+00
1.844681295205542026e+00
2.016249031037324002e+00
2.016249031037324002e+00
2.144690450758385047e+00
2.144690450758385047e+00
2.245568529313028083e+00
2.245568529313028083e+00
2.245568529313028083e+00
2.067438093203528116e+00
2.067438093203528116e+00
1.894182805871761355e+00
1.894182805871761355e+00
1.951934568315683460e+00
1.951934568315683460e+00
2.007811273537400520e+00
2.007811273537400520e+00
2.236005737479781263e+00
2.236005737479781263e+00
2.489325968199713301e+00
2.489325968199713301e+00
2.507139011810663121e+00
2.507139011810663121e+00
2.424073976866969904e+00
2.424073976866969904e+00
2.424073976866969904e+00
2.454074892422254184e+00
2.454074892422254184e+00
2.564890774254585448e+00
2.564890774254585448e+00
2.954152653584399157e+00
2.954152653584399157e+00
3.104719748527482004e+00
3.104719748527482004e+00
2.902026062807092632e+00
2.902026062807092632e+00
2.771709585863826764e+00
2.771709585863826764e+00
2.330696127201147494e+00
2.330696127201147494e+00
2.082626056703390294e+00
2.082626056703390294e+00
2.082626056703390294e+00
2.046999969481490211e+00
2.046999969481490211e+00
2.123127292703024249e+00
2.123127292703024249e+00
2.164191045869319652e+00
2.164191045869319652e+00
2.064438001647999510e+00
2.064438001647999510e+00
2.142252876369517889e+00
2.142252876369517889e+00
2.178066469313638454e+00
2.178066469313638454e+00
2.033687063203833301e+00
2.033687063203833301e+00
1.880682393871883296e+00
1.880682393871883296e+00
1.880682393871883296e+00
1.739678090762047269e+00
1.739678090762047269e+00
1.826305734427930538e+00
1.826305734427930538e+00
1.935809076204718204e+00
1.935809076204718204e+00
2.119752189703054679e+00
2.119752189703054679e+00
2.382635212256233537e+00
2.382635212256233537e+00
2.527952146977141545e+00
2.527952146977141545e+00
2.600891872920926495e+00
2.600891872920926495e+00
2.568078371532334536e+00
2.568078371532334536e+00
2.568078371532334536e+00
2.530014709921567295e+00
2.530014709921567295e+00
2.455012421033357040e+00
2.455012421033357040e+00
2.355259376812036454e+00
2.355259376812036454e+00
2.199442121646778769e+00
2.199442121646778769e+00
1.912183355204931878e+00
1.912183355204931878e+00
1.480920194097720133e+00
1.480920194097720133e+00
1.391479964598529184e+00
1.391479964598529184e+00
1.391479964598529184e+00
1.508858546708578885e+00
1.508858546708578885e+00
1.755241065706351078e+00
1.755241065706351078e+00
1.847681386761070632e+00
1.847681386761070632e+00
2.002936124759666647e+00
2.002936124759666647e+00
2.257943906979583026e+00
2.257943906979583026e+00
2.482763267921994643e+00
2.482763267921994643e+00
2.431199194311350009e+00
2.431199194311350009e+00
2.495513657032990551e+00
2.495513657032990551e+00
2.495513657032990551e+00
2.527014618366038690e+00
2.527014618366038690e+00
2.466450270088809127e+00
2.466450270088809127e+00
2.434949308755760100e+00
2.434949308755760100e+00
2.660518692587054090e+00
2.660518692587054090e+00
2.929401898251289271e+00
2.929401898251289271e+00
3.043217871639149141e+00
3.043217871639149141e+00
3.015842036194952502e+00
3.015842036194952502e+00
2.585516403698843391e+00
2.585516403698843391e+00
2.250818689535202921e+00
2.250818689535202921e+00
2.250818689535202921e+00
2.140002807702871657e+00
2.140002807702871657e+00
2.068000610370189563e+00
2.068000610370189563e+00
1.933559007538071750e+00
1.933559007538071750e+00
1.956622211371196629e+00
1.956622211371196629e+00
1.998810998870815148e+00
1.998810998870815148e+00
2.005373699148533806e+00
2.005373699148533806e+00
2.227380474257637299e+00
2.227380474257637299e+00
2.530202215643787778e+00
2.530202215643787778e+00
2.530202215643787778e+00
2.728395764030884685e+00
2.728395764030884685e+00
2.688082033753471656e+00
2.688082033753471656e+00
2.314758140812402942e+00
2.314758140812402942e+00
1.730677816095461896e+00
1.730677816095461896e+00
1.415668202764977179e+00
1.415668202764977179e+00
1.477732596819971267e+00
1.477732596819971267e+00
1.793679738761558839e+00
1.793679738761558839e+00
2.304257820368053267e+00
2.304257820368053267e+00
2.304257820368053267e+00
2.728020752586443720e+00
2.728020752586443720e+00
2.730270821253089952e+00
2.730270821253089952e+00
2.335946287423322332e+00
2.335946287423322332e+00
2.135127658925138228e+00
2.135127658925138228e+00
2.132690084536271069e+00
2.132690084536271069e+00
1.732177861873226199e+00
1.732177861873226199e+00
1.244662984099856651e+00
1.244662984099856651e+00
7.691484725486007479e-01
7.691484725486007479e-01
7.115842158268990136e-01
7.115842158268990136e-01
7.115842158268990136e-01
1.251225684377575087e+00
1.251225684377575087e+00
1.821055574205755700e+00
1.821055574205755700e+00
2.395198095645008962e+00
2.395198095645008962e+00
2.447699697866756008e+00
2.447699697866756008e+00
1.926996307260353314e+00
1.926996307260353314e+00
2.016811548203985893e+00
2.016811548203985893e+00
2.209754936368907963e+00
2.209754936368907963e+00
2.096501480147709540e+00
2.096501480147709540e+00
2.358821985534226506e+00
2.358821985534226506e+00
2.358821985534226506e+00
3.066843592638935245e+00
3.066843592638935245e+00
3.712988311410870601e+00
3.712988311410870601e+00
3.812553849909970705e+00
3.812553849909970705e+00
3.666861903744621287e+00
3.666861903744621287e+00
2.995216406750694560e+00
2.995216406750694560e+00
2.708895168919950081e+00
2.708895168919950081e+00
2.464200201422162451e+00
2.464200201422162451e+00
2.345134067812128187e+00
2.345134067812128187e+00
2.119002166814172750e+00
2.119002166814172750e+00
2.119002166814172750e+00
1.499108249153111361e+00
1.499108249153111361e+00
1.236225226599932947e+00
1.236225226599932947e+00
1.623049531540879498e+00
1.623049531540879498e+00
1.430293649098178133e+00
1.430293649098178133e+00
1.788617084261604706e+00
1.788617084261604706e+00
1.684551408429212360e+00
1.684551408429212360e+00
1.780366832483901485e+00
1.780366832483901485e+00
2.314383129367961978e+00
2.314383129367961978e+00
2.747708853419599251e+00
2.747708853419599251e+00
2.747708853419599251e+00
2.956402722251045390e+00
2.956402722251045390e+00
3.137720755638294445e+00
3.137720755638294445e+00
3.307788445692312340e+00
3.307788445692312340e+00
3.143533433027131174e+00
3.143533433027131174e+00
2.803023041474654420e+00
2.803023041474654420e+00
2.525889584032716240e+00
2.525889584032716240e+00
2.217067659535508550e+00
2.217067659535508550e+00
1.892120242927335383e+00
1.892120242927335383e+00
1.892120242927335383e+00
1.504358409375285976e+00
1.504358409375285976e+00
1.431606189153721731e+00
1.431606189153721731e+00
1.554797448652607939e+00
1.554797448652607939e+00
1.665988341929380168e+00
1.665988341929380168e+00
1.858931730094302237e+00
1.858931730094302237e+00
1.957934751426740450e+00
1.957934751426740450e+00
1.832868434705648975e+00
1.832868434705648975e+00
1.856494155705435301e+00
1.856494155705435301e+00
1.691864131595812726e+00
1.691864131595812726e+00
1.691864131595812726e+00
1.693551683095797511e+00
1.693551683095797511e+00
1.796117313150425776e+00
1.796117313150425776e+00
2.076438367870113488e+00
2.076438367870113488e+00
2.633705374309518454e+00
2.633705374309518454e+00
3.139220801416058748e+00
3.139220801416058748e+00
3.370415356913968541e+00
3.370415356913968541e+00
3.409041535691396785e+00
3.409041535691396785e+00
2.919651600695821969e+00
2.919651600695821969e+00
2.497763725699636783e+00
2.497763725699636783e+00
2.497763725699636783e+00
2.175441389202551257e+00
2.175441389202551257e+00
1.817492965483565870e+00
1.817492965483565870e+00
1.702551957762383106e+00
1.702551957762383106e+00
1.769679006317331549e+00
1.769679006317331549e+00
1.742115665150914205e+00
1.742115665150914205e+00
1.842431226538896016e+00
1.842431226538896016e+00
2.225692922757652514e+00
2.225692922757652514e+00
2.798710409863581994e+00
2.798710409863581994e+00
3.150846156193731318e+00
3.150846156193731318e+00
3.150846156193731318e+00
2.708145146031067707e+00
2.708145146031067707e+00
2.545202673421430362e+00
2.545202673421430362e+00
2.371384868923001932e+00
2.371384868923001932e+00
2.040249763481551515e+00
2.040249763481551515e+00
2.019999145481734981e+00
2.019999145481734981e+00
2.241443403424177028e+00
2.241443403424177028e+00
2.271819330423901828e+00
2.271819330423901828e+00
2.271819330423901828e+00
2.606892056031983707e+00
2.606892056031983707e+00
2.848961943418683695e+00
2.848961943418683695e+00
2.550827845088045720e+00
2.550827845088045720e+00
2.008186284981841485e+00
2.008186284981841485e+00
1.554234931485946269e+00
1.554234931485946269e+00
1.428418591875972643e+00
1.428418591875972643e+00
1.735177953428754583e+00
1.735177953428754583e+00
1.828555803094576770e+00
1.828555803094576770e+00
1.828555803094576770e+00
1.931496444593646222e+00
1.931496444593646222e+00
1.811305276650288398e+00
1.811305276650288398e+00
1.677988708151493924e+00
1.677988708151493924e+00
1.543172093874935147e+00
1.543172093874935147e+00
1.694864223151341331e+00
1.694864223151341331e+00
1.962997405926694583e+00
1.962997405926694583e+00
2.403260841700491479e+00
2.403260841700491479e+00
2.692769676808984602e+00
2.692769676808984602e+00
2.959027802362133031e+00
2.959027802362133031e+00
2.959027802362133031e+00
2.959215308084353513e+00
2.959215308084353513e+00
3.061780938138981334e+00
3.061780938138981334e+00
3.072656270027771974e+00
3.072656270027771974e+00
2.833211462752159182e+00
2.833211462752159182e+00
2.445074617755668811e+00
2.445074617755668811e+00
2.079813470870083059e+00
2.079813470870083059e+00
1.599611316263313654e+00
1.599611316263313654e+00
1.422793420209356841e+00
1.422793420209356841e+00
1.422793420209356841e+00
1.918933561204870797e+00
1.918933561204870797e+00
2.611017181920834762e+00
2.611017181920834762e+00
3.099844599749748575e+00
3.099844599749748575e+00
3.061593432416760852e+00
3.061593432416760852e+00
2.597891781365397890e+00
2.597891781365397890e+00
2.331446150090029423e+00
2.331446150090029423e+00
2.097251503036591469e+00
2.097251503036591469e+00
1.868307016205328575e+00
1.868307016205328575e+00
1.868307016205328575e+00
1.698614337595751866e+00
1.698614337595751866e+00
1.852931546983245470e+00
1.852931546983245470e+00
2.146190496536149350e+00
2.146190496536149350e+00
2.613642262031922403e+00
2.613642262031922403e+00
2.774522171697133999e+00
2.774522171697133999e+00
2.643455671864986201e+00
2.643455671864986201e+00
2.493826105533005766e+00
2.493826105533005766e+00
2.150690633869442259e+00
2.150690633869442259e+00
2.150690633869442259e+00
2.071750724814600098e+00
2.071750724814600098e+00
2.182004089480269915e+00
2.182004089480269915e+00
2.102126651814325342e+00
2.102126651814325342e+00
1.959997314371166199e+00
1.959997314371166199e+00
1.764991363261818380e+00
1.764991363261818380e+00
1.789929624317148527e+00
1.789929624317148527e+00
1.901495529038361942e+00
1.901495529038361942e+00
1.901495529038361942e+00
1.544297128208258485e+00
1.544297128208258485e+00
1.445106601153599790e+00
1.445106601153599790e+00
1.898870448927274301e+00
1.898870448927274301e+00
2.157815851313821920e+00
2.157815851313821920e+00
2.293945005645924073e+00
2.293945005645924073e+00
2.615329813531907188e+00
2.615329813531907188e+00
2.939527207251197982e+00
2.939527207251197982e+00
3.017342081972716805e+00
3.017342081972716805e+00
3.017342081972716805e+00
2.774897183141575407e+00
2.774897183141575407e+00
2.674206610309152410e+00
2.674206610309152410e+00
2.585703909421063873e+00
2.585703909421063873e+00
2.084313608203375079e+00
2.084313608203375079e+00
1.922683675649281332e+00
1.922683675649281332e+00
2.207692373424482213e+00
2.207692373424482213e+00
2.618517410809656276e+00
2.618517410809656276e+00
2.761584276863917609e+00
2.761584276863917609e+00
2.761584276863917609e+00
3.043217871639149141e+00
3.043217871639149141e+00
3.144658467360454068e+00
3.144658467360454068e+00
2.565828302865687860e+00
2.565828302865687860e+00
1.974060243537705706e+00
1.974060243537705706e+00
1.867744499038666905e+00
1.867744499038666905e+00
1.517296304208502367e+00
1.517296304208502367e+00
9.825299844355601664e-01
9.825299844355601664e-01
1.265101107821893889e+00
1.265101107821893889e+00
1.797617358928189857e+00
1.797617358928189857e+00
1.797617358928189857e+00
1.548422254097109985e+00
1.548422254097109985e+00
1.728990264595477111e+00
1.728990264595477111e+00
2.109814386425366894e+00
2.109814386425366894e+00
2.241255897701956545e+00
2.241255897701956545e+00
2.142252876369517889e+00
2.142252876369517889e+00
2.763646839808343803e+00
2.763646839808343803e+00
3.579671742912076571e+00
3.579671742912076571e+00
3.726488723410748438e+00
3.726488723410748438e+00
3.726488723410748438e+00
3.438104922635578653e+00
3.438104922635578653e+00
3.274974944303720381e+00
3.274974944303720381e+00
2.782959929197058369e+00
2.782959929197058369e+00
1.893245277260658721e+00
1.893245277260658721e+00
1.346478591265602542e+00
1.346478591265602542e+00
1.225349894711142307e+00
1.225349894711142307e+00
1.503420880764183565e+00
1.503420880764183565e+00
2.086188665425580790e+00
2.086188665425580790e+00
2.086188665425580790e+00
2.419573839533677440e+00
2.419573839533677440e+00
2.727645741142002311e+00
2.727645741142002311e+00
2.653018463698233020e+00
2.653018463698233020e+00
1.808117679372539532e+00
1.808117679372539532e+00
1.692426648762474395e+00
1.692426648762474395e+00
1.576173100985747810e+00
1.576173100985747810e+00
1.401792779320657933e+00
1.401792779320657933e+00
1.683613879818109726e+00
1.683613879818109726e+00
1.683613879818109726e+00
2.378510086367381593e+00
2.378510086367381593e+00
3.019592150639362593e+00
3.019592150639362593e+00
3.625610644856105402e+00
3.625610644856105402e+00
3.689550096133304979e+00
3.689550096133304979e+00
3.328414075136570283e+00
3.328414075136570283e+00
2.458387524033326166e+00
2.458387524033326166e+00
1.912558366649372843e+00
1.912558366649372843e+00
1.889870174260689151e+00
1.889870174260689151e+00
1.889870174260689151e+00
1.940684224982451855e+00
1.940684224982451855e+00
1.637487472151860191e+00
1.637487472151860191e+00
1.571485457930234642e+00
1.571485457930234642e+00
1.920058595538193913e+00
1.920058595538193913e+00
2.570515945921201251e+00
2.570515945921201251e+00
2.893775811029389189e+00
2.893775811029389189e+00
2.525139561143833866e+00
2.525139561143833866e+00
2.303695303201391820e+00
2.303695303201391820e+00
2.303695303201391820e+00
2.206754844813379357e+00
2.206754844813379357e+00
1.513358684041871349e+00
1.513358684041871349e+00
1.302789757988219943e+00
1.302789757988219943e+00
1.739678090762047269e+00
1.739678090762047269e+00
2.518014343699453761e+00
2.518014343699453761e+00
3.007591784417249503e+00
3.007591784417249503e+00
3.084094119083224061e+00
3.084094119083224061e+00
3.268974761192663170e+00
3.268974761192663170e+00
3.268974761192663170e+00
3.133033112582781499e+00
3.133033112582781499e+00
2.847086886196477984e+00
2.847086886196477984e+00
2.502076357310709209e+00
2.502076357310709209e+00
2.476200567644276429e+00
2.476200567644276429e+00
2.609329630420849977e+00
2.609329630420849977e+00
2.837149082918790199e+00
2.837149082918790199e+00
2.680206793420209177e+00
2.680206793420209177e+00
2.680206793420209177e+00
2.178441480758079862e+00
2.178441480758079862e+00
1.536984405041657897e+00
1.536984405041657897e+00
1.094283394878994065e+00
1.094283394878994065e+00
1.175473372600482236e+00
1.175473372600482236e+00
1.584423352763451032e+00
1.584423352763451032e+00
2.019249122592852608e+00
2.019249122592852608e+00
2.129502487258521981e+00
2.129502487258521981e+00
1.924746238593707082e+00
1.924746238593707082e+00
1.924746238593707082e+00
1.983248023926511561e+00
1.983248023926511561e+00
2.469825373088778253e+00
2.469825373088778253e+00
2.578953703421124732e+00
2.578953703421124732e+00
2.546515213476973738e+00
2.546515213476973738e+00
2.527014618366038690e+00
2.527014618366038690e+00
2.666518875698111302e+00
2.666518875698111302e+00
2.589454023865474408e+00
2.589454023865474408e+00
2.320570818201239227e+00
2.320570818201239227e+00
2.320570818201239227e+00
2.034437086092715230e+00
2.034437086092715230e+00
2.054312692648091243e+00
2.054312692648091243e+00
2.419386333811456957e+00
2.419386333811456957e+00
2.798522904141361511e+00
2.798522904141361511e+00
2.761771782586138535e+00
2.761771782586138535e+00
2.479013153477584552e+00
2.479013153477584552e+00
2.098001525925473842e+00
2.098001525925473842e+00
1.965997497482223189e+00
1.965997497482223189e+00
1.846556352427747516e+00
1.846556352427747516e+00
2.020186651203955464e+00
2.020186651203955464e+00
2.020186651203955464e+00
2.579516220587786623e+00
2.579516220587786623e+00
2.401760795922727176e+00
2.401760795922727176e+00
2.316258186590166801e+00
2.316258186590166801e+00
2.593016632587664461e+00
2.593016632587664461e+00
3.022029725028229752e+00
3.022029725028229752e+00
3.269912289803766026e+00
3.269912289803766026e+00
2.866774987029633959e+00
2.866774987029633959e+00
2.202629718924527857e+00
2.202629718924527857e+00
2.202629718924527857e+00
1.806242622150334265e+00
1.806242622150334265e+00
1.905808160649433924e+00
1.905808160649433924e+00
2.133627613147373925e+00
2.133627613147373925e+00
2.474325510422071162e+00
2.474325510422071162e+00
2.610267159031952833e+00
2.610267159031952833e+00
2.435699331644642474e+00
2.435699331644642474e+00
2.337821344645527599e+00
2.337821344645527599e+00
2.281194616534928166e+00
2.281194616534928166e+00
2.281194616534928166e+00
2.082251045258949329e+00
2.082251045258949329e+00
2.066125553147984295e+00
2.066125553147984295e+00
2.142815393536179780e+00
2.142815393536179780e+00
2.206754844813379357e+00
2.206754844813379357e+00
2.217817682424390480e+00
2.217817682424390480e+00
2.262256538590655452e+00
2.262256538590655452e+00
2.556265511032441040e+00
2.556265511032441040e+00
2.730270821253089952e+00
2.730270821253089952e+00
2.730270821253089952e+00
2.635392925809503240e+00
2.635392925809503240e+00
2.258318918424023991e+00
2.258318918424023991e+00
1.616111819818720097e+00
1.616111819818720097e+00
1.097095980712301966e+00
1.097095980712301966e+00
8.195875118259223768e-01
8.195875118259223768e-01
1.071595202490310372e+00
1.071595202490310372e+00
1.846556352427747516e+00
1.846556352427747516e+00
2.600891872920926495e+00
2.600891872920926495e+00
3.346414624469741028e+00
3.346414624469741028e+00
3.346414624469741028e+00
3.782365428632465498e+00
3.782365428632465498e+00
3.803366069521164849e+00
3.803366069521164849e+00
3.382415723136082519e+00
3.382415723136082519e+00
2.763646839808343803e+00
2.763646839808343803e+00
2.196817041535691573e+00
2.196817041535691573e+00
2.256443861201819168e+00
2.256443861201819168e+00
2.284569719534897736e+00
2.284569719534897736e+00
2.266194158757286470e+00
2.266194158757286470e+00
2.266194158757286470e+00
1.982873012482070374e+00
1.982873012482070374e+00
1.475482528153325035e+00
1.475482528153325035e+00
1.392792504654072561e+00
1.392792504654072561e+00
1.443419049653615005e+00
1.443419049653615005e+00
1.933746513260292454e+00
1.933746513260292454e+00
2.618517410809656276e+00
2.618517410809656276e+00
3.006279244361705683e+00
3.006279244361705683e+00
3.116907620471816021e+00
3.116907620471816021e+00
3.116907620471816021e+00
3.059905880916776066e+00
3.059905880916776066e+00
2.590391552476577264e+00
2.590391552476577264e+00
2.399510727256080500e+00
2.399510727256080500e+00
2.512201666310617476e+00
2.512201666310617476e+00
1.966935026093325822e+00
1.966935026093325822e+00
1.776991729483932136e+00
1.776991729483932136e+00
2.199254615924558287e+00
2.199254615924558287e+00
2.390885464033936536e+00
2.390885464033936536e+00
2.390885464033936536e+00
2.507889034699545494e+00
2.507889034699545494e+00
2.413011139255958781e+00
2.413011139255958781e+00
2.381322672200689716e+00
2.381322672200689716e+00
2.591891598254341122e+00
2.591891598254341122e+00
2.533014801477095901e+00
2.533014801477095901e+00
2.329383587145603673e+00
2.329383587145603673e+00
2.235443220313119816e+00
2.235443220313119816e+00
1.921933652760399180e+00
1.921933652760399180e+00
1.765553880428480049e+00
1.765553880428480049e+00
1.765553880428480049e+00
1.752428479873042955e+00
1.752428479873042955e+00
1.785054475539414875e+00
1.785054475539414875e+00
1.826493240150151021e+00
1.826493240150151021e+00
2.184066652424695665e+00
2.184066652424695665e+00
2.396510635700552783e+00
2.396510635700552783e+00
2.425574022644734207e+00
2.425574022644734207e+00
2.179754020813623683e+00
2.179754020813623683e+00
2.102314157536546269e+00
2.102314157536546269e+00
2.102314157536546269e+00
1.972372692037720920e+00
1.972372692037720920e+00
1.707802117984557722e+00
1.707802117984557722e+00
1.844493789483321544e+00
1.844493789483321544e+00
1.993560838648640532e+00
1.993560838648640532e+00
2.385635303811762142e+00
2.385635303811762142e+00
3.177284463026825989e+00
3.177284463026825989e+00
3.782365428632465498e+00
3.782365428632465498e+00
3.643986205633716668e+00
3.643986205633716668e+00
2.819711050752281345e+00
2.819711050752281345e+00
2.462512649922177665e+00
2.462512649922177665e+00
2.462512649922177665e+00
2.205442304757835537e+00
2.205442304757835537e+00
2.247631092257453833e+00
2.247631092257453833e+00
2.440761986144596829e+00
2.440761986144596829e+00
2.263569078646198829e+00
2.263569078646198829e+00
2.120502212591937052e+00
2.120502212591937052e+00
1.984935575426496124e+00
1.984935575426496124e+00
1.960372325815607386e+00
1.960372325815607386e+00
2.169816217535935454e+00
2.169816217535935454e+00
2.169816217535935454e+00
2.092938871425519931e+00
2.092938871425519931e+00
1.898682943205053819e+00
1.898682943205053819e+00
1.029593920712912336e+00
1.029593920712912336e+00
6.101436201055940867e-01
6.101436201055940867e-01
6.978962981048005831e-01
6.978962981048005831e-01
1.103658680990020624e+00
1.103658680990020624e+00
2.167191137424848257e+00
2.167191137424848257e+00
3.480106204412976467e+00
3.480106204412976467e+00
3.480106204412976467e+00
3.812553849909970705e+00
3.812553849909970705e+00
3.812553849909970705e+00
3.812553849909970705e+00
3.745614307077242522e+00
3.745614307077242522e+00
3.217785699026459945e+00
3.217785699026459945e+00
3.039092745750297642e+00
3.039092745750297642e+00
3.100032105471969057e+00
3.100032105471969057e+00
3.130220526749473819e+00
3.130220526749473819e+00
2.809960753196813599e+00
2.809960753196813599e+00
2.809960753196813599e+00
1.790304635761589491e+00
1.790304635761589491e+00
1.305977355265968809e+00
1.305977355265968809e+00
1.429356120487075499e+00
1.429356120487075499e+00
1.557985045930356804e+00
1.557985045930356804e+00
1.848993926816614453e+00
1.848993926816614453e+00
2.064250495925779028e+00
2.064250495925779028e+00
2.175253883480330774e+00
2.175253883480330774e+00
2.019999145481734981e+00
2.019999145481734981e+00
2.019999145481734981e+00
1.935996581926938687e+00
1.935996581926938687e+00
1.863431867427594923e+00
1.863431867427594923e+00
1.635237403485213736e+00
1.635237403485213736e+00
2.046437452314828764e+00
2.046437452314828764e+00
2.908963774529252255e+00
2.908963774529252255e+00
3.117095126194036503e+00
3.117095126194036503e+00
2.753896542252876500e+00
2.753896542252876500e+00
2.490826013977477604e+00
2.490826013977477604e+00
2.490826013977477604e+00
2.290382396923734465e+00
2.290382396923734465e+00
2.300695211645863214e+00
2.300695211645863214e+00
2.609704641865290942e+00
2.609704641865290942e+00
2.710207708975493901e+00
2.710207708975493901e+00
2.606329538865321815e+00
2.606329538865321815e+00
2.507701528977324568e+00
2.507701528977324568e+00
2.213317545091097571e+00
2.213317545091097571e+00
2.140002807702871657e+00
2.140002807702871657e+00
2.140002807702871657e+00
2.112439466536454535e+00
2.112439466536454535e+00
2.043249855037080120e+00
2.043249855037080120e+00
2.018499099703970678e+00
2.018499099703970678e+00
2.042124820703756782e+00
2.042124820703756782e+00
2.127814935758537640e+00
2.127814935758537640e+00
2.071375713370158689e+00
2.071375713370158689e+00
2.005561204870754288e+00
2.005561204870754288e+00
2.022811731315042216e+00
2.022811731315042216e+00
2.022811731315042216e+00
2.133065095980712478e+00
2.133065095980712478e+00
1.971997680593279956e+00
1.971997680593279956e+00
2.075313333536790150e+00
2.075313333536790150e+00
2.349446699423200169e+00
2.349446699423200169e+00
2.606892056031983707e+00
2.606892056031983707e+00
2.606329538865321815e+00
2.606329538865321815e+00
2.743958738975188716e+00
2.743958738975188716e+00
2.814835901974547472e+00
2.814835901974547472e+00
2.814835901974547472e+00
2.259443952757347329e+00
2.259443952757347329e+00
1.554984954374828421e+00
1.554984954374828421e+00
1.578798181096835229e+00
1.578798181096835229e+00
2.178628986480300345e+00
2.178628986480300345e+00
2.116939603869747000e+00
2.116939603869747000e+00
2.267881710257271255e+00
2.267881710257271255e+00
2.494951139866329104e+00
2.494951139866329104e+00
2.497388714255195818e+00
2.497388714255195818e+00
2.497388714255195818e+00
2.696144779808954173e+00
2.696144779808954173e+00
2.773959654530472552e+00
2.773959654530472552e+00
2.826086245307779077e+00
2.826086245307779077e+00
2.722958098086489809e+00
2.722958098086489809e+00
2.539389996032593633e+00
2.539389996032593633e+00
2.488388439588610446e+00
2.488388439588610446e+00
2.727833246864223238e+00
2.727833246864223238e+00
2.748271370586260698e+00
2.748271370586260698e+00
2.478825647755364070e+00
2.478825647755364070e+00
2.262444044312875935e+00
2.262444044312875935e+00
2.037812189092684800e+00
2.037812189092684800e+00
2.037812189092684800e+00
1.898307931760612854e+00
1.898307931760612854e+00
1.894370311593981837e+00
1.894370311593981837e+00
2.031999511703848516e+00
2.031999511703848516e+00
2.080563493758964988e+00
2.080563493758964988e+00
2.083563585314493150e+00
2.083563585314493150e+00
2.162128482924894346e+00
2.162128482924894346e+00
2.309882992034669069e+00
2.309882992034669069e+00
2.374384960478530537e+00
2.374384960478530537e+00
2.374384960478530537e+00
2.276694479201635701e+00
2.276694479201635701e+00
2.115252052369762659e+00
2.115252052369762659e+00
2.048125003814813549e+00
2.048125003814813549e+00
1.941809259315775193e+00
1.941809259315775193e+00
1.965809991760002484e+00
1.965809991760002484e+00
2.208817407757805107e+00
2.208817407757805107e+00
2.699332377086703261e+00
2.699332377086703261e+00
2.736458510086367646e+00
2.736458510086367646e+00
2.736458510086367646e+00
2.389947935422834124e+00
2.389947935422834124e+00
2.116752098147526517e+00
2.116752098147526517e+00
1.971060151982177322e+00
1.971060151982177322e+00
2.351134250923184954e+00
2.351134250923184954e+00
2.752584002197332680e+00
2.752584002197332680e+00
2.749021393475143071e+00
2.749021393475143071e+00
2.547077730643635629e+00
2.547077730643635629e+00
2.391072969756157018e+00
2.391072969756157018e+00
2.391072969756157018e+00
2.302757774590289408e+00
2.302757774590289408e+00
1.984560563982054937e+00
1.984560563982054937e+00
1.859681752983184388e+00
1.859681752983184388e+00
1.877119785149693465e+00
1.877119785149693465e+00
2.084313608203375079e+00
2.084313608203375079e+00
2.319258278145695407e+00
2.319258278145695407e+00
2.691269631031220300e+00
2.691269631031220300e+00
2.691269631031220300e+00
2.783522446363719816e+00
2.783522446363719816e+00
2.725770683919797488e+00
2.725770683919797488e+00
2.808460707419049296e+00
2.808460707419049296e+00
2.729145786919766614e+00
2.729145786919766614e+00
2.435886837366862956e+00
2.435886837366862956e+00
2.355259376812036454e+00
2.355259376812036454e+00
2.157628345591601438e+00
2.157628345591601438e+00
2.103064180425428198e+00
2.103064180425428198e+00
2.103064180425428198e+00
2.111689443647572162e+00
2.111689443647572162e+00
2.399698232978301426e+00
2.399698232978301426e+00
2.543140110477004168e+00
2.543140110477004168e+00
2.385260292367321178e+00
2.385260292367321178e+00
2.197754570146794428e+00
2.197754570146794428e+00
1.934871547593615571e+00
1.934871547593615571e+00
1.738740562150944413e+00
1.738740562150944413e+00
1.870369579149754324e+00
1.870369579149754324e+00
1.870369579149754324e+00
1.907495712149418710e+00
1.907495712149418710e+00
1.720177495651112443e+00
1.720177495651112443e+00
1.894370311593981837e+00
1.894370311593981837e+00
2.443012054811243061e+00
2.443012054811243061e+00
2.551952879421369058e+00
2.551952879421369058e+00
2.627142674031800240e+00
2.627142674031800240e+00
2.850837000640888963e+00
2.850837000640888963e+00
2.757834162419507518e+00
2.757834162419507518e+00
2.757834162419507518e+00
2.498138737144077748e+00
2.498138737144077748e+00
2.298070131534776017e+00
2.298070131534776017e+00
2.164191045869319652e+00
2.164191045869319652e+00
2.263944090090640238e+00
2.263944090090640238e+00
2.329196081423383191e+00
2.329196081423383191e+00
2.367822260200811879e+00
2.367822260200811879e+00
2.587578966643269140e+00
2.587578966643269140e+00
2.309320474868007622e+00
2.309320474868007622e+00
2.309320474868007622e+00
2.240693380535294654e+00
2.240693380535294654e+00
2.338196356089969008e+00
2.338196356089969008e+00
2.139440290536210654e+00
2.139440290536210654e+00
2.041749809259315818e+00
2.041749809259315818e+00
2.152190679647205673e+00
2.152190679647205673e+00
2.447699697866756008e+00
2.447699697866756008e+00
2.651518417920468718e+00
2.651518417920468718e+00
2.515951780755027567e+00
2.515951780755027567e+00
2.515951780755027567e+00
2.623580065309610188e+00
2.623580065309610188e+00
2.642518143253883789e+00
2.642518143253883789e+00
2.642893154698324754e+00
2.642893154698324754e+00
2.652830957976012538e+00
2.652830957976012538e+00
2.636705465865047060e+00
2.636705465865047060e+00
2.304820337534714714e+00
2.304820337534714714e+00
2.340821436201055761e+00
2.340821436201055761e+00
2.250068666646320992e+00
2.250068666646320992e+00
2.201129673146763555e+00
2.201129673146763555e+00
2.201129673146763555e+00
2.287007293923764895e+00
2.287007293923764895e+00
2.204879787591174090e+00
2.204879787591174090e+00
1.967497543259987047e+00
1.967497543259987047e+00
1.513546189764092054e+00
1.513546189764092054e+00
1.265851130710776040e+00
1.265851130710776040e+00
1.344978545487838462e+00
1.344978545487838462e+00
1.603923947874385858e+00
1.603923947874385858e+00
2.002373607593005200e+00
2.002373607593005200e+00
2.002373607593005200e+00
2.445074617755668811e+00
2.445074617755668811e+00
2.891900753807183921e+00
2.891900753807183921e+00
3.223785882137516268e+00
3.223785882137516268e+00
3.368352793969542791e+00
3.368352793969542791e+00
3.155533799249244709e+00
3.155533799249244709e+00
2.746396313364055430e+00
2.746396313364055430e+00
2.233193151646474028e+00
2.233193151646474028e+00
1.917433515427106494e+00
1.917433515427106494e+00
1.917433515427106494e+00
1.932433973204748634e+00
1.932433973204748634e+00
2.441887020477920167e+00
2.441887020477920167e+00
2.604641987365337030e+00
2.604641987365337030e+00
2.388072878200628413e+00
2.388072878200628413e+00
2.294507522812585520e+00
2.294507522812585520e+00
2.386385326700643628e+00
2.386385326700643628e+00
2.579703726310007106e+00
2.579703726310007106e+00
2.466637775811029609e+00
2.466637775811029609e+00
2.466637775811029609e+00
2.472450453199865894e+00
2.472450453199865894e+00
2.452387340922269399e+00
2.452387340922269399e+00
2.296945097201452679e+00
2.296945097201452679e+00
2.257381389812921579e+00
2.257381389812921579e+00
2.150690633869442259e+00
2.150690633869442259e+00
2.036687154759361462e+00
2.036687154759361462e+00
2.098376537369914807e+00
2.098376537369914807e+00
2.210317453535568966e+00
2.210317453535568966e+00
2.159503402813806705e+00
2.159503402813806705e+00
2.159503402813806705e+00
2.166253608813745402e+00
2.166253608813745402e+00
2.473575487533188788e+00
2.473575487533188788e+00
2.647205786309396736e+00
2.647205786309396736e+00
2.493263588366343875e+00
2.493263588366343875e+00
2.211254982146671821e+00
2.211254982146671821e+00
2.196817041535691573e+00
2.196817041535691573e+00
2.224005371257667729e+00
2.224005371257667729e+00
2.215005096591082356e+00
2.215005096591082356e+00
2.052250129703665493e+00
2.052250129703665493e+00
2.052250129703665493e+00
1.828368297372356288e+00
1.828368297372356288e+00
1.906370677816095593e+00
1.906370677816095593e+00
2.178816492202520827e+00
2.178816492202520827e+00
2.482013245033112270e+00
2.482013245033112270e+00
2.842211737418744555e+00
2.842211737418744555e+00
2.938589678640095126e+00
2.938589678640095126e+00
2.619267433698538206e+00
2.619267433698538206e+00
2.542202581865901756e+00
2.542202581865901756e+00
2.542202581865901756e+00
2.251193700979644330e+00
2.251193700979644330e+00
1.889495162816248186e+00
1.889495162816248186e+00
1.793867244483779544e+00
1.793867244483779544e+00
1.609736625263222143e+00
1.609736625263222143e+00
1.888932645649586517e+00
1.888932645649586517e+00
2.243505966368602778e+00
2.243505966368602778e+00
2.506576494644001674e+00
2.506576494644001674e+00
2.689957090975676923e+00
2.689957090975676923e+00
2.689957090975676923e+00
2.630330271309549328e+00
2.630330271309549328e+00
2.746771324808496395e+00
2.746771324808496395e+00
2.888150639362773830e+00
2.888150639362773830e+00
2.889088167973876242e+00
2.889088167973876242e+00
2.932589495529038359e+00
2.932589495529038359e+00
2.816710959196753183e+00
2.816710959196753183e+00
2.549890316476943308e+00
2.549890316476943308e+00
2.418073793755913137e+00
2.418073793755913137e+00
2.418073793755913137e+00
2.399135715811639535e+00
2.399135715811639535e+00
2.191379375591296252e+00
2.191379375591296252e+00
2.049062532425916405e+00
2.049062532425916405e+00
1.987748161259804025e+00
1.987748161259804025e+00
1.919683584093752948e+00
1.919683584093752948e+00
1.974810266426587635e+00
1.974810266426587635e+00
2.031436994537187068e+00
2.031436994537187068e+00
1.945371868037965024e+00
1.945371868037965024e+00
1.945371868037965024e+00
2.102126651814325342e+00
2.102126651814325342e+00
2.416011230811487387e+00
2.416011230811487387e+00
2.529077181310464884e+00
2.529077181310464884e+00
2.466637775811029609e+00
2.466637775811029609e+00
2.356196905423139309e+00
2.356196905423139309e+00
2.363884640034180418e+00
2.363884640034180418e+00
2.371009857478560967e+00
2.371009857478560967e+00
2.311195532090212890e+00
2.311195532090212890e+00
2.316820703756828248e+00
2.316820703756828248e+00
2.316820703756828248e+00
2.373822443311869090e+00
2.373822443311869090e+00
2.366134708700827094e+00
2.366134708700827094e+00
2.320570818201239227e+00
2.320570818201239227e+00
2.413198644978179264e+00
2.413198644978179264e+00
2.630330271309549328e+00
2.630330271309549328e+00
2.652830957976012538e+00
2.652830957976012538e+00
2.584203863643300014e+00
2.584203863643300014e+00
2.365572191534165203e+00
2.365572191534165203e+00
2.365572191534165203e+00
2.179941526535844165e+00
2.179941526535844165e+00
2.107376812036500180e+00
2.107376812036500180e+00
2.148253059480575100e+00
2.148253059480575100e+00
2.023936765648365554e+00
2.023936765648365554e+00
2.027686880092776089e+00
2.027686880092776089e+00
2.219130222479934300e+00
2.219130222479934300e+00
2.312883083590197675e+00
2.312883083590197675e+00
2.218755211035493335e+00
2.218755211035493335e+00
2.218755211035493335e+00
2.219130222479934300e+00
2.219130222479934300e+00
2.463262672811060039e+00
2.463262672811060039e+00
2.584016357921079532e+00
2.584016357921079532e+00
2.612892239143040030e+00
2.612892239143040030e+00
2.584766380809961461e+00
2.584766380809961461e+00
2.482013245033112270e+00
2.482013245033112270e+00
2.211629993591112786e+00
2.211629993591112786e+00
2.231318094424268317e+00
2.231318094424268317e+00
2.231318094424268317e+00
2.444137089144566399e+00
2.444137089144566399e+00
2.578766197698904250e+00
2.578766197698904250e+00
2.471700430310983521e+00
2.471700430310983521e+00
2.350946745200964472e+00
2.350946745200964472e+00
2.313820612201300086e+00
2.313820612201300086e+00
2.245943540757469048e+00
2.245943540757469048e+00
2.321695852534562121e+00
2.321695852534562121e+00
2.333133701590014208e+00
2.333133701590014208e+00
2.333133701590014208e+00
2.285132236701559627e+00
2.285132236701559627e+00
2.240505874813074172e+00
2.240505874813074172e+00
2.135690176091799675e+00
2.135690176091799675e+00
2.083751091036713632e+00
2.083751091036713632e+00
2.044749900814844423e+00
2.044749900814844423e+00
2.245943540757469048e+00
2.245943540757469048e+00
2.334258735923337547e+00
2.334258735923337547e+00
2.291132419812616394e+00
2.291132419812616394e+00
2.442449537644581614e+00
2.442449537644581614e+00
2.442449537644581614e+00
2.489888485366374749e+00
2.489888485366374749e+00
2.513701712088381779e+00
2.513701712088381779e+00
2.538827478865932186e+00
2.538827478865932186e+00
2.360134525589770327e+00
2.360134525589770327e+00
2.346071596423230599e+00
2.346071596423230599e+00
2.373822443311869090e+00
2.373822443311869090e+00
2.271631824701681346e+00
2.271631824701681346e+00
2.271631824701681346e+00
2.205067293313394572e+00
2.205067293313394572e+00
2.286069765312662039e+00
2.286069765312662039e+00
2.500388805810724424e+00
2.500388805810724424e+00
2.634080385753959863e+00
2.634080385753959863e+00
2.350196722312082542e+00
2.350196722312082542e+00
2.120877224036378017e+00
2.120877224036378017e+00
2.185379192480239485e+00
2.185379192480239485e+00
2.167003631702627775e+00
2.167003631702627775e+00
2.167003631702627775e+00
2.170566240424817828e+00
2.170566240424817828e+00
2.266006653035065987e+00
2.266006653035065987e+00
2.413198644978179264e+00
2.413198644978179264e+00
2.388447889645069822e+00
2.388447889645069822e+00
2.395573107089449927e+00
2.395573107089449927e+00
2.571828485976745071e+00
2.571828485976745071e+00
2.719020477919858347e+00
2.719020477919858347e+00
2.555890499588000075e+00
2.555890499588000075e+00
2.555890499588000075e+00
2.372884914700766235e+00
2.372884914700766235e+00
2.504701437421796406e+00
2.504701437421796406e+00
2.448449720755638381e+00
2.448449720755638381e+00
2.274819421979430434e+00
2.274819421979430434e+00
2.105126743369853504e+00
2.105126743369853504e+00
2.013623950926236805e+00
2.013623950926236805e+00
2.056000244148076028e+00
2.056000244148076028e+00
2.225130405590991067e+00
2.225130405590991067e+00
2.225130405590991067e+00
2.350196722312082542e+00
2.350196722312082542e+00
2.443574571977904952e+00
2.443574571977904952e+00
2.439636951811273491e+00
2.439636951811273491e+00
2.399510727256080500e+00
2.399510727256080500e+00
2.414136173589282119e+00
2.414136173589282119e+00
2.357321939756462204e+00
2.357321939756462204e+00
2.396323129978331856e+00
2.396323129978331856e+00
2.442637043366802097e+00
2.442637043366802097e+00
2.279132053590502860e+00
2.279132053590502860e+00
2.279132053590502860e+00
2.208254890591143660e+00
2.208254890591143660e+00
2.084876125370036970e+00
2.084876125370036970e+00
1.972185186315500438e+00
1.972185186315500438e+00
2.204504776146733125e+00
2.204504776146733125e+00
2.398198187200537124e+00
2.398198187200537124e+00
2.424261482589190386e+00
2.424261482589190386e+00
2.416573747978148834e+00
2.416573747978148834e+00
2.397073152867214230e+00
2.397073152867214230e+00
2.397073152867214230e+00
2.370822351756340485e+00
2.370822351756340485e+00
2.391072969756157018e+00
2.391072969756157018e+00
2.467575304422132465e+00
2.467575304422132465e+00
2.552140385143589540e+00
2.552140385143589540e+00
2.494951139866329104e+00
2.494951139866329104e+00
2.287944822534867306e+00
2.287944822534867306e+00
2.243318460646382295e+00
2.243318460646382295e+00
2.204879787591174090e+00
2.204879787591174090e+00
2.204879787591174090e+00
2.239193334757530351e+00
2.239193334757530351e+00
2.257193884090700653e+00
2.257193884090700653e+00
2.247256080813012868e+00
2.247256080813012868e+00
2.421261391033662225e+00
2.421261391033662225e+00
2.581578783532212373e+00
2.581578783532212373e+00
2.509576586199530279e+00
2.509576586199530279e+00
2.447699697866756008e+00
2.447699697866756008e+00
2.496451185644092963e+00
2.496451185644092963e+00
2.496451185644092963e+00
2.370822351756340485e+00
2.370822351756340485e+00
2.426511551255836618e+00
2.426511551255836618e+00
2.272756859035004684e+00
2.272756859035004684e+00
2.135502670369579192e+00
2.135502670369579192e+00
2.118064638203069894e+00
2.118064638203069894e+00
2.111126926480910715e+00
2.111126926480910715e+00
2.135315164647358710e+00
2.135315164647358710e+00
2.235818231757560781e+00
2.235818231757560781e+00
2.269194250312814631e+00
2.269194250312814631e+00
2.269194250312814631e+00
2.305195348979155678e+00
2.305195348979155678e+00
2.320758323923459709e+00
2.320758323923459709e+00
2.287757316812646824e+00
2.287757316812646824e+00
2.263381572923978347e+00
2.263381572923978347e+00
2.166441114535965884e+00
2.166441114535965884e+00
2.192879421369060555e+00
2.192879421369060555e+00
2.272006836146122755e+00
2.272006836146122755e+00
2.281944639423810539e+00
2.281944639423810539e+00
2.465137730033265306e+00
2.465137730033265306e+00
2.465137730033265306e+00
2.686394482253486871e+00
2.686394482253486871e+00
2.593954161198767316e+00
2.593954161198767316e+00
2.432699240089114312e+00
2.432699240089114312e+00
2.392948026978362286e+00
2.392948026978362286e+00
2.483700796533097499e+00
2.483700796533097499e+00
2.547452742088076594e+00
2.547452742088076594e+00
2.470950407422101591e+00
2.470950407422101591e+00
2.470950407422101591e+00
2.386572832422864110e+00
2.386572832422864110e+00
2.318508255256813033e+00
2.318508255256813033e+00
2.192504409924619146e+00
2.192504409924619146e+00
2.303882808923612302e+00
2.303882808923612302e+00
2.407198461867122496e+00
2.407198461867122496e+00
2.372697408978545752e+00
2.372697408978545752e+00
2.341946470534379099e+00
2.341946470534379099e+00
2.187441755424664791e+00
2.187441755424664791e+00
2.187441755424664791e+00
2.051875118259224084e+00
2.051875118259224084e+00
2.117314615314187964e+00
2.117314615314187964e+00
2.212380016479995160e+00
2.212380016479995160e+00
2.404573381756035300e+00
2.404573381756035300e+00
2.560765648365733949e+00
2.560765648365733949e+00
2.479013153477584552e+00
2.479013153477584552e+00
2.466262764366588645e+00
2.466262764366588645e+00
2.408135990478225352e+00
2.408135990478225352e+00
2.408135990478225352e+00
2.324508438367870244e+00
2.324508438367870244e+00
2.400448255867183356e+00
2.400448255867183356e+00
2.307820429090243319e+00
2.307820429090243319e+00
2.251006195257423848e+00
2.251006195257423848e+00
2.241255897701956545e+00
2.241255897701956545e+00
2.197942075869014911e+00
2.197942075869014911e+00
2.294882534257026929e+00
2.294882534257026929e+00
2.334071230201117064e+00
2.334071230201117064e+00
2.334071230201117064e+00
2.402885830256050514e+00
2.402885830256050514e+00
2.434199285866878171e+00
2.434199285866878171e+00
2.386760338145085036e+00
2.386760338145085036e+00
2.310633014923550999e+00
2.310633014923550999e+00
2.347571642200994901e+00
2.347571642200994901e+00
2.284194708090456771e+00
2.284194708090456771e+00
2.192316904202398664e+00
2.192316904202398664e+00
2.256443861201819168e+00
2.256443861201819168e+00
2.256443861201819168e+00
2.221380291146580532e+00
2.221380291146580532e+00
2.258131412701803509e+00
2.258131412701803509e+00
2.320195806756797818e+00
2.320195806756797818e+00
2.239193334757530351e+00
2.239193334757530351e+00
2.279319559312723342e+00
2.279319559312723342e+00
2.310820520645771925e+00
2.310820520645771925e+00
2.287007293923764895e+00
2.287007293923764895e+00
2.289444868312631609e+00
2.289444868312631609e+00
2.282882168034912951e+00
2.282882168034912951e+00
2.282882168034912951e+00
2.319445783867915889e+00
2.319445783867915889e+00
2.402135807367168141e+00
2.402135807367168141e+00
2.353759331034272151e+00
2.353759331034272151e+00
2.395573107089449927e+00
2.395573107089449927e+00
2.517076815088350905e+00
2.517076815088350905e+00
2.355634388256477418e+00
2.355634388256477418e+00
2.357509445478682686e+00
2.357509445478682686e+00
2.313070589312418157e+00
2.313070589312418157e+00
2.313070589312418157e+00
2.226442945646534444e+00
2.226442945646534444e+00
2.200379650257881181e+00
2.200379650257881181e+00
2.191191869869075770e+00
2.191191869869075770e+00
2.280257087923826198e+00
2.280257087923826198e+00
2.439074434644612044e+00
2.439074434644612044e+00
2.481075716422009858e+00
2.481075716422009858e+00
2.518014343699453761e+00
2.518014343699453761e+00
2.518014343699453761e+00
2.488388439588610446e+00
2.488388439588610446e+00
2.470575395977660182e+00
2.470575395977660182e+00
2.563578234199041628e+00
2.563578234199041628e+00
2.524202032532731454e+00
2.524202032532731454e+00
2.320758323923459709e+00
2.320758323923459709e+00
2.182191595202490397e+00
2.182191595202490397e+00
2.081688528092287882e+00
2.081688528092287882e+00
2.104939237647633021e+00
2.104939237647633021e+00
2.258131412701803509e+00
2.258131412701803509e+00
2.325445966978973100e+00
2.325445966978973100e+00
2.325445966978973100e+00
2.422386425366985119e+00
2.422386425366985119e+00
2.461575121311075254e+00
2.461575121311075254e+00
2.430824182866909045e+00
2.430824182866909045e+00
2.455199926755577522e+00
2.455199926755577522e+00
2.417136265144810281e+00
2.417136265144810281e+00
2.330508621478927012e+00
2.330508621478927012e+00
2.342883999145481511e+00
2.342883999145481511e+00
2.212567522202215642e+00
2.212567522202215642e+00
2.100064088869899592e+00
2.100064088869899592e+00
2.048312509537034032e+00
2.048312509537034032e+00
2.048312509537034032e+00
2.015499008148442073e+00
2.015499008148442073e+00
2.100064088869899592e+00
2.100064088869899592e+00
2.155565782647175688e+00
2.155565782647175688e+00
2.235630726035340299e+00
2.235630726035340299e+00
2.450137272255623166e+00
2.450137272255623166e+00
2.641018097476119486e+00
2.641018097476119486e+00
2.702144962920011384e+00
2.702144962920011384e+00
2.659768669698171717e+00
2.659768669698171717e+00
2.659768669698171717e+00
2.506013977477339782e+00
2.506013977477339782e+00
2.396698141422773265e+00
2.396698141422773265e+00
2.420886379589221260e+00
2.420886379589221260e+00
2.340446424756614796e+00
2.340446424756614796e+00
2.277819513534959039e+00
2.277819513534959039e+00
2.144502945036164565e+00
2.144502945036164565e+00
1.972560197759941625e+00
1.972560197759941625e+00
1.944434339426862390e+00
1.944434339426862390e+00
1.944434339426862390e+00
1.971622669148838769e+00
1.971622669148838769e+00
1.953622119815668245e+00
1.953622119815668245e+00
2.066875576036866669e+00
2.066875576036866669e+00
2.300132694479201767e+00
2.300132694479201767e+00
2.658831141087069305e+00
2.658831141087069305e+00
2.888713156529435278e+00
2.888713156529435278e+00
2.894900845362712527e+00
2.894900845362712527e+00
2.803210547196874902e+00
2.803210547196874902e+00
2.542765099032563203e+00
2.542765099032563203e+00
2.542765099032563203e+00
2.264506607257301685e+00
2.264506607257301685e+00
2.234880703146458369e+00
2.234880703146458369e+00
2.202817224646748340e+00
2.202817224646748340e+00
2.154440748313852350e+00
2.154440748313852350e+00
2.177691457869197489e+00
2.177691457869197489e+00
2.194379467146824858e+00
2.194379467146824858e+00
2.262069032868434526e+00
2.262069032868434526e+00
2.331071138645588459e+00
2.331071138645588459e+00
2.331071138645588459e+00
2.346446607867672007e+00
2.346446607867672007e+00
2.400260750144962874e+00
2.400260750144962874e+00
2.412823633533738299e+00
2.412823633533738299e+00
2.353009308145390222e+00
2.353009308145390222e+00
2.418261299478133619e+00
2.418261299478133619e+00
2.373072420422986717e+00
2.373072420422986717e+00
2.264506607257301685e+00
2.264506607257301685e+00
2.241630909146397510e+00
2.241630909146397510e+00
2.197379558702353020e+00
2.197379558702353020e+00
2.193629444257942485e+00
2.193629444257942485e+00
2.193629444257942485e+00
2.253443769646290562e+00
2.253443769646290562e+00
2.248381115146336207e+00
2.248381115146336207e+00
2.260943998535111632e+00
2.260943998535111632e+00
2.272194341868343237e+00
2.272194341868343237e+00
2.266381664479506952e+00
2.266381664479506952e+00
2.351321756645405436e+00
2.351321756645405436e+00
2.358821985534226506e+00
2.358821985534226506e+00
2.352446790978728330e+00
2.352446790978728330e+00
2.352446790978728330e+00
2.432136722922452865e+00
2.432136722922452865e+00
2.283632190923795324e+00
2.283632190923795324e+00
2.152940702536088047e+00
2.152940702536088047e+00
2.122564775536362802e+00
2.122564775536362802e+00
2.093313882869960452e+00
2.093313882869960452e+00
2.119564683980834197e+00
2.119564683980834197e+00
2.174878872035889810e+00
2.174878872035889810e+00
2.243880977813043742e+00
2.243880977813043742e+00
2.243880977813043742e+00
2.371384868923001932e+00
2.371384868923001932e+00
2.478075624866481697e+00
2.478075624866481697e+00
2.587578966643269140e+00
2.587578966643269140e+00
2.654331003753776841e+00
2.654331003753776841e+00
2.559453108310190128e+00
2.559453108310190128e+00
2.546515213476973738e+00
2.546515213476973738e+00
2.507514023255104085e+00
2.507514023255104085e+00
2.360697042756431774e+00
2.360697042756431774e+00
2.360697042756431774e+00
2.375885006256294396e+00
2.375885006256294396e+00
2.343446516312143402e+00
2.343446516312143402e+00
2.236943266090884119e+00
2.236943266090884119e+00
2.251006195257423848e+00
2.251006195257423848e+00
2.241630909146397510e+00
2.241630909146397510e+00
2.233568163090914993e+00
2.233568163090914993e+00
2.282882168034912951e+00
2.282882168034912951e+00
2.305757866145817125e+00
2.305757866145817125e+00
2.305757866145817125e+00
2.368759788811914291e+00
2.368759788811914291e+00
2.396698141422773265e+00
2.396698141422773265e+00
2.336321298867763296e+00
2.336321298867763296e+00
2.387697866756187448e+00
2.387697866756187448e+00
2.370634846034120002e+00
2.370634846034120002e+00
2.249881160924100509e+00
2.249881160924100509e+00
2.230193060090945423e+00
2.230193060090945423e+00
2.186316721091342341e+00
2.186316721091342341e+00
2.164003540147099169e+00
2.164003540147099169e+00
2.224380382702108694e+00
2.224380382702108694e+00
2.224380382702108694e+00
2.265069124423963132e+00
2.265069124423963132e+00
2.352821802423169739e+00
2.352821802423169739e+00
2.410573564867091623e+00
2.410573564867091623e+00
2.395198095645008962e+00
2.395198095645008962e+00
2.459137546922208095e+00
2.459137546922208095e+00
2.467200292977691056e+00
2.467200292977691056e+00
2.403260841700491479e+00
2.403260841700491479e+00
2.403260841700491479e+00
2.464950224311044824e+00
2.464950224311044824e+00
2.357884456923124095e+00
2.357884456923124095e+00
2.234130680257575996e+00
2.234130680257575996e+00
2.189316812646870059e+00
2.189316812646870059e+00
2.101564134647663895e+00
2.101564134647663895e+00
2.108126834925382109e+00
2.108126834925382109e+00
2.175441389202551257e+00
2.175441389202551257e+00
2.211254982146671821e+00
2.211254982146671821e+00
2.211254982146671821e+00
2.284569719534897736e+00
2.284569719534897736e+00
2.323195898312326424e+00
2.323195898312326424e+00
2.342133976256599581e+00
2.342133976256599581e+00
2.412261116367076408e+00
2.412261116367076408e+00
2.417323770867030763e+00
2.417323770867030763e+00
2.448449720755638381e+00
2.448449720755638381e+00
2.542952604754783685e+00
2.542952604754783685e+00
2.454262398144474666e+00
2.454262398144474666e+00
2.377947569200720146e+00
2.377947569200720146e+00
2.377947569200720146e+00
2.246131046479689974e+00
2.246131046479689974e+00
2.107376812036500180e+00
2.107376812036500180e+00
2.121814752647480873e+00
2.121814752647480873e+00
2.155003265480513797e+00
2.155003265480513797e+00
2.237318277535325084e+00
2.237318277535325084e+00
2.323945921201208797e+00
2.323945921201208797e+00
2.345509079256569152e+00
2.345509079256569152e+00
2.345509079256569152e+00
2.410198553422650658e+00
2.410198553422650658e+00
2.479200659199805035e+00
2.479200659199805035e+00
2.435699331644642474e+00
2.435699331644642474e+00
2.437011871700186294e+00
2.437011871700186294e+00
2.441512009033478758e+00
2.441512009033478758e+00
2.324508438367870244e+00
2.324508438367870244e+00
2.274069399090548504e+00
2.274069399090548504e+00
2.202629718924527857e+00
2.202629718924527857e+00
2.176566423535874595e+00
2.176566423535874595e+00
2.176566423535874595e+00
2.237505783257545566e+00
2.237505783257545566e+00
2.267881710257271255e+00
2.267881710257271255e+00
2.323008392590105942e+00
2.323008392590105942e+00
2.380760155034028269e+00
2.380760155034028269e+00
2.377760063478499664e+00
2.377760063478499664e+00
2.429324137089144742e+00
2.429324137089144742e+00
2.440949491866817311e+00
2.440949491866817311e+00
2.379635120700704931e+00
2.379635120700704931e+00
2.426511551255836618e+00
2.426511551255836618e+00
2.426511551255836618e+00
2.367822260200811879e+00
2.367822260200811879e+00
2.258506424146244473e+00
2.258506424146244473e+00
2.226817957090975852e+00
2.226817957090975852e+00
2.149378093813898438e+00
2.149378093813898438e+00
2.141315347758415477e+00
2.141315347758415477e+00
2.191754387035737217e+00
2.191754387035737217e+00
2.213130039368877089e+00
2.213130039368877089e+00
2.298632648701437464e+00
2.298632648701437464e+00
2.298632648701437464e+00
2.364259651478621826e+00
2.364259651478621826e+00
2.385072786645100695e+00
2.385072786645100695e+00
2.453137363811151772e+00
2.453137363811151772e+00
2.450699789422284613e+00
2.450699789422284613e+00
2.410386059144871140e+00
2.410386059144871140e+00
2.467575304422132465e+00
2.467575304422132465e+00
2.351884273812066883e+00
2.351884273812066883e+00
2.266756675923947917e+00
2.266756675923947917e+00
2.266756675923947917e+00
2.232255623035371173e+00
2.232255623035371173e+00
2.134940153202917745e+00
2.134940153202917745e+00
2.126314889980773337e+00
2.126314889980773337e+00
2.144877956480605530e+00
2.144877956480605530e+00
2.216692648091067142e+00
2.216692648091067142e+00
2.355634388256477418e+00
2.355634388256477418e+00
2.408135990478225352e+00
2.408135990478225352e+00
2.399698232978301426e+00
2.399698232978301426e+00
2.399698232978301426e+00
2.449574755088961275e+00
2.449574755088961275e+00
2.435324320200201509e+00
2.435324320200201509e+00
2.448262215033417899e+00
2.448262215033417899e+00
2.495701162755211033e+00
2.495701162755211033e+00
2.346821619312112972e+00
2.346821619312112972e+00
2.290007385479293500e+00
2.290007385479293500e+00
2.224005371257667729e+00
2.224005371257667729e+00
2.151628162480544670e+00
2.151628162480544670e+00
2.183129123813593253e+00
2.183129123813593253e+00
2.198129581591235393e+00
2.198129581591235393e+00
2.198129581591235393e+00
2.256256355479598685e+00
2.256256355479598685e+00
2.332946195867793726e+00
2.332946195867793726e+00
2.352071779534287366e+00
2.352071779534287366e+00
2.405323404644917229e+00
2.405323404644917229e+00
2.442449537644581614e+00
2.442449537644581614e+00
2.380947660756248752e+00
2.380947660756248752e+00
2.410386059144871140e+00
2.410386059144871140e+00
2.410386059144871140e+00
2.397260658589434712e+00
2.397260658589434712e+00
2.284757225257118218e+00
2.284757225257118218e+00
2.260006469924008776e+00
2.260006469924008776e+00
2.201692190313425002e+00
2.201692190313425002e+00
2.189129306924649576e+00
2.189129306924649576e+00
2.234318185979796478e+00
2.234318185979796478e+00
2.219130222479934300e+00
2.219130222479934300e+00
2.265631641590625023e+00
2.265631641590625023e+00
2.265631641590625023e+00
2.321695852534562121e+00
2.321695852534562121e+00
2.329946104312265120e+00
2.329946104312265120e+00
2.401010773033844803e+00
2.401010773033844803e+00
2.412073610644855925e+00
2.412073610644855925e+00
2.377760063478499664e+00
2.377760063478499664e+00
2.441699514755699685e+00
2.441699514755699685e+00
2.359009491256446989e+00
2.359009491256446989e+00
2.257756401257362544e+00
2.257756401257362544e+00
2.257756401257362544e+00
2.233943174535355514e+00
2.233943174535355514e+00
2.176003906369212704e+00
2.176003906369212704e+00
2.193816949980162967e+00
2.193816949980162967e+00
2.266194158757286470e+00
2.266194158757286470e+00
2.274069399090548504e+00
2.274069399090548504e+00
2.324133426923429280e+00
2.324133426923429280e+00
2.363697134311959935e+00
2.363697134311959935e+00
2.394635578478347071e+00
2.394635578478347071e+00
2.394635578478347071e+00
2.451074800866725578e+00
2.451074800866725578e+00
2.421073885311441742e+00
2.421073885311441742e+00
2.398198187200537124e+00
2.398198187200537124e+00
2.442262031922361132e+00
2.442262031922361132e+00
2.307445417645802355e+00
2.307445417645802355e+00
2.246318552201910457e+00
2.246318552201910457e+00
2.196442030091250608e+00
2.196442030091250608e+00
2.128189947202978605e+00
2.128189947202978605e+00
2.145627979369487459e+00
2.145627979369487459e+00
2.145627979369487459e+00
2.188941801202429094e+00
2.188941801202429094e+00
2.260756492812891150e+00
2.260756492812891150e+00
2.365759697256386129e+00
2.365759697256386129e+00
2.399698232978301426e+00
2.399698232978301426e+00
2.433636768700216724e+00
2.433636768700216724e+00
2.483138279366435608e+00
2.483138279366435608e+00
2.427261574144718992e+00
2.427261574144718992e+00
2.427261574144718992e+00
2.436261848811303921e+00
2.436261848811303921e+00
2.445637134922330258e+00
2.445637134922330258e+00
2.304632831812494231e+00
2.304632831812494231e+00
2.255881344035157721e+00
2.255881344035157721e+00
2.189504318369090985e+00
2.189504318369090985e+00
2.135127658925138228e+00
2.135127658925138228e+00
2.176191412091433186e+00
2.176191412091433186e+00
2.193629444257942485e+00
2.193629444257942485e+00
2.193629444257942485e+00
2.260756492812891150e+00
2.260756492812891150e+00
2.341383953367717208e+00
2.341383953367717208e+00
2.358821985534226506e+00
2.358821985534226506e+00
2.416386242255928352e+00
2.416386242255928352e+00
2.441887020477920167e+00
2.441887020477920167e+00
2.380197637867366822e+00
2.380197637867366822e+00
2.431949217200232383e+00
2.431949217200232383e+00
2.378322580645161111e+00
2.378322580645161111e+00
2.378322580645161111e+00
2.260193975646229259e+00
2.260193975646229259e+00
2.232630634479812137e+00
2.232630634479812137e+00
2.160815942869350526e+00
2.160815942869350526e+00
2.143377910702841227e+00
2.143377910702841227e+00
2.190441846980193397e+00
2.190441846980193397e+00
2.209004913480026033e+00
2.209004913480026033e+00
2.290757408368175430e+00
2.290757408368175430e+00
2.353946836756492633e+00
2.353946836756492633e+00
2.376822534867396808e+00
2.376822534867396808e+00
2.447324686422315043e+00
2.447324686422315043e+00
2.447324686422315043e+00
2.434574297311319135e+00
2.383947752311777357e+00
2.383947752311777357e+00
2.383947752311777357e+00
2.444512100589007364e+00
2.444512100589007364e+00
2.345509079256569152e+00
2.345509079256569152e+00
2.267131687368389326e+00
2.267131687368389326e+00
2.233005645924253102e+00
2.233005645924253102e+00
2.176378917813653668e+00
2.176378917813653668e+00
2.160628437147130043e+00
