2.251568712424085295e+00
2.251568712424085295e+00
2.222130314035462462e+00
2.222130314035462462e+00
2.222130314035462462e+00
2.222130314035462462e+00
2.155940794091616652e+00
2.155940794091616652e+00
2.155940794091616652e+00
2.160815942869350526e+00
2.160815942869350526e+00
2.160815942869350526e+00
2.205442304757835537e+00
2.205442304757835537e+00
2.205442304757835537e+00
2.205442304757835537e+00
2.239755851924192243e+00
2.239755851924192243e+00
2.239755851924192243e+00
2.314570635090182460e+00
2.314570635090182460e+00
2.314570635090182460e+00
2.314570635090182460e+00
2.354134342478713116e+00
2.354134342478713116e+00
2.354134342478713116e+00
2.375885006256294396e+00
2.375885006256294396e+00
2.375885006256294396e+00
2.431761711478011456e+00
2.431761711478011456e+00
2.431761711478011456e+00
2.431761711478011456e+00
2.392573015533921321e+00
2.392573015533921321e+00
2.392573015533921321e+00
2.376072511978514878e+00
2.376072511978514878e+00
2.376072511978514878e+00
2.424261482589190386e+00
2.424261482589190386e+00
2.424261482589190386e+00
2.424261482589190386e+00
2.303507797479171337e+00
2.303507797479171337e+00
2.303507797479171337e+00
2.248006103701895242e+00
2.248006103701895242e+00
2.248006103701895242e+00
2.210692464980010374e+00
2.210692464980010374e+00
2.210692464980010374e+00
2.210692464980010374e+00
2.145815485091708386e+00
2.145815485091708386e+00
2.145815485091708386e+00
2.174878872035889810e+00
2.174878872035889810e+00
2.174878872035889810e+00
2.207879879146702695e+00
2.207879879146702695e+00
2.207879879146702695e+00
2.207879879146702695e+00
2.256256355479598685e+00
2.256256355479598685e+00
2.256256355479598685e+00
2.325633472701193583e+00
2.325633472701193583e+00
2.325633472701193583e+00
2.345509079256569152e+00
2.345509079256569152e+00
2.345509079256569152e+00
2.345509079256569152e+00
2.396885647144993747e+00
2.396885647144993747e+00
2.396885647144993747e+00
2.459512558366649504e+00
2.459512558366649504e+00
2.459512558366649504e+00
2.415073702200384531e+00
2.415073702200384531e+00
2.415073702200384531e+00
2.415073702200384531e+00
2.423886471144749422e+00
2.423886471144749422e+00
2.423886471144749422e+00
2.412636127811517817e+00
2.412636127811517817e+00
2.273881893368328022e+00
2.273881893368328022e+00
2.273881893368328022e+00
2.241255897701956545e+00
2.241255897701956545e+00
2.241255897701956545e+00
2.241255897701956545e+00
2.176191412091433186e+00
2.176191412091433186e+00
2.176191412091433186e+00
2.137565233314004942e+00
2.137565233314004942e+00
2.137565233314004942e+00
2.181629078035828950e+00
2.181629078035828950e+00
2.181629078035828950e+00
2.181629078035828950e+00
2.194379467146824858e+00
2.194379467146824858e+00
2.194379467146824858e+00
2.266569170201727434e+00
2.266569170201727434e+00
2.266569170201727434e+00
2.340258919034394314e+00
2.340258919034394314e+00
2.340258919034394314e+00
2.340258919034394314e+00
2.362947111423078006e+00
2.362947111423078006e+00
2.362947111423078006e+00
2.429511642811365224e+00
2.429511642811365224e+00
2.429511642811365224e+00
2.438699423200171079e+00
2.438699423200171079e+00
2.438699423200171079e+00
2.438699423200171079e+00
2.376072511978514878e+00
2.376072511978514878e+00
2.376072511978514878e+00
2.428199102755821404e+00
2.428199102755821404e+00
2.428199102755821404e+00
2.364822168645283273e+00
2.364822168645283273e+00
2.364822168645283273e+00
2.258318918424023991e+00
2.258318918424023991e+00
2.258318918424023991e+00
2.258318918424023991e+00
2.223067842646564873e+00
2.223067842646564873e+00
2.223067842646564873e+00
2.149190588091677956e+00
2.149190588091677956e+00
2.149190588091677956e+00
2.143190404980620745e+00
2.143190404980620745e+00
2.143190404980620745e+00
2.189691824091311467e+00
2.189691824091311467e+00
2.189691824091311467e+00
2.206004821924497428e+00
2.206004821924497428e+00
2.206004821924497428e+00
2.291882442701498768e+00
2.291882442701498768e+00
2.291882442701498768e+00
2.291882442701498768e+00
2.327696035645618888e+00
2.327696035645618888e+00
2.327696035645618888e+00
2.366697225867488541e+00
2.366697225867488541e+00
2.366697225867488541e+00
2.366697225867488541e+00
2.437761894589068223e+00
2.437761894589068223e+00
2.437761894589068223e+00
2.430636677144688562e+00
2.430636677144688562e+00
2.430636677144688562e+00
2.397823175756096159e+00
2.397823175756096159e+00
2.397823175756096159e+00
2.397823175756096159e+00
2.464575212866603859e+00
2.464575212866603859e+00
2.464575212866603859e+00
2.330133610034486047e+00
2.330133610034486047e+00
2.330133610034486047e+00
2.240318369090853690e+00
2.240318369090853690e+00
2.240318369090853690e+00
2.230943082979827352e+00
2.230943082979827352e+00
2.230943082979827352e+00
2.230943082979827352e+00
2.161940977202673420e+00
2.161940977202673420e+00
2.161940977202673420e+00
2.161378460036011973e+00
2.161378460036011973e+00
2.161378460036011973e+00
2.207692373424482213e+00
2.207692373424482213e+00
2.207692373424482213e+00
2.207692373424482213e+00
2.228505508590960638e+00
2.228505508590960638e+00
2.228505508590960638e+00
2.313445600756859122e+00
2.313445600756859122e+00
2.313445600756859122e+00
2.347571642200994901e+00
2.347571642200994901e+00
2.347571642200994901e+00
2.370072328867458111e+00
2.370072328867458111e+00
2.370072328867458111e+00
2.370072328867458111e+00
2.437761894589068223e+00
2.437761894589068223e+00
2.437761894589068223e+00
2.398573198644978088e+00
2.398573198644978088e+00
2.398573198644978088e+00
2.398198187200537124e+00
2.398198187200537124e+00
2.398198187200537124e+00
2.398198187200537124e+00
2.434199285866878171e+00
2.434199285866878171e+00
2.434199285866878171e+00
2.285882259590441556e+00
2.285882259590441556e+00
2.285882259590441556e+00
2.237505783257545566e+00
2.237505783257545566e+00
2.237505783257545566e+00
2.237505783257545566e+00
2.194379467146824858e+00
2.194379467146824858e+00
2.194379467146824858e+00
2.139440290536210654e+00
2.139440290536210654e+00
2.139440290536210654e+00
2.179191503646961792e+00
2.179191503646961792e+00
2.179191503646961792e+00
2.206192327646717910e+00
2.206192327646717910e+00
2.206192327646717910e+00
2.206192327646717910e+00
2.263006561479537382e+00
2.263006561479537382e+00
2.263006561479537382e+00
2.335946287423322332e+00
2.335946287423322332e+00
2.335946287423322332e+00
2.335946287423322332e+00
2.349634205145421095e+00
2.349634205145421095e+00
2.349634205145421095e+00
2.400260750144962874e+00
2.400260750144962874e+00
2.400260750144962874e+00
2.439074434644612044e+00
2.439074434644612044e+00
2.439074434644612044e+00
2.439074434644612044e+00
2.386572832422864110e+00
2.386572832422864110e+00
2.386572832422864110e+00
2.408323496200445835e+00
2.408323496200445835e+00
2.408323496200445835e+00
2.391260475478377501e+00
2.391260475478377501e+00
2.391260475478377501e+00
2.391260475478377501e+00
2.264694112979522167e+00
2.264694112979522167e+00
2.264694112979522167e+00
2.241068391979735619e+00
2.241068391979735619e+00
2.241068391979735619e+00
2.183691640980254700e+00
2.183691640980254700e+00
2.183691640980254700e+00
2.183691640980254700e+00
2.150315622425000850e+00
2.150315622425000850e+00
2.150315622425000850e+00
2.198504593035676358e+00
2.198504593035676358e+00
2.198504593035676358e+00
2.210129947813348927e+00
2.210129947813348927e+00
2.210129947813348927e+00
2.210129947813348927e+00
2.272756859035004684e+00
2.272756859035004684e+00
2.272756859035004684e+00
2.334071230201117064e+00
2.334071230201117064e+00
2.334071230201117064e+00
2.346446607867672007e+00
2.346446607867672007e+00
2.346446607867672007e+00
2.346446607867672007e+00
2.423698965422528495e+00
2.423698965422528495e+00
2.423698965422528495e+00
2.431199194311350009e+00
2.431199194311350009e+00
2.431199194311350009e+00
2.383010223700674501e+00
2.383010223700674501e+00
2.383010223700674501e+00
2.383010223700674501e+00
2.443949583422345917e+00
2.443949583422345917e+00
2.443949583422345917e+00
2.368197271645252844e+00
2.368197271645252844e+00
2.368197271645252844e+00
2.368197271645252844e+00
2.259068941312906365e+00
2.259068941312906365e+00
2.218192693868831444e+00
2.218192693868831444e+00
2.218192693868831444e+00
2.218192693868831444e+00
2.153128208258308529e+00
2.153128208258308529e+00
2.153128208258308529e+00
2.156878322702719064e+00
2.156878322702719064e+00
2.156878322702719064e+00
2.208254890591143660e+00
2.208254890591143660e+00
2.208254890591143660e+00
2.208254890591143660e+00
2.231505600146489243e+00
2.231505600146489243e+00
2.231505600146489243e+00
2.299007660145878429e+00
2.299007660145878429e+00
2.299007660145878429e+00
2.341008941923276243e+00
2.341008941923276243e+00
2.341008941923276243e+00
2.341008941923276243e+00
2.368759788811914291e+00
2.368759788811914291e+00
2.368759788811914291e+00
2.430824182866909045e+00
2.430824182866909045e+00
2.430824182866909045e+00
2.404573381756035300e+00
2.404573381756035300e+00
2.404573381756035300e+00
2.404573381756035300e+00
2.373447431867427682e+00
2.373447431867427682e+00
2.373447431867427682e+00
2.431011688589129527e+00
2.431011688589129527e+00
2.431011688589129527e+00
2.431011688589129527e+00
2.317383220923490139e+00
2.317383220923490139e+00
2.317383220923490139e+00
2.242943449201941331e+00
2.242943449201941331e+00
2.242943449201941331e+00
2.213130039368877089e+00
2.213130039368877089e+00
2.213130039368877089e+00
2.213130039368877089e+00
2.163816034424878687e+00
2.163816034424878687e+00
2.163816034424878687e+00
2.173753837702566916e+00
2.173753837702566916e+00
2.173753837702566916e+00
2.215005096591082356e+00
2.215005096591082356e+00
2.215005096591082356e+00
2.215005096591082356e+00
2.258318918424023991e+00
2.258318918424023991e+00
2.258318918424023991e+00
2.341571459089938134e+00
2.341571459089938134e+00
2.341571459089938134e+00
2.368384777367473326e+00
2.368384777367473326e+00
2.368384777367473326e+00
2.368384777367473326e+00
2.393510544145024177e+00
2.393510544145024177e+00
2.393510544145024177e+00
2.444699606311227846e+00
2.444699606311227846e+00
2.444699606311227846e+00
2.444699606311227846e+00
2.390697958311716054e+00
2.390697958311716054e+00
2.390697958311716054e+00
2.389760429700613198e+00
2.389760429700613198e+00
2.389760429700613198e+00
2.412073610644855925e+00
2.412073610644855925e+00
2.412073610644855925e+00
2.412073610644855925e+00
2.289819879757073018e+00
2.289819879757073018e+00
2.289819879757073018e+00
2.248943632312997654e+00
2.248943632312997654e+00
2.248943632312997654e+00
2.194004455702383449e+00
2.194004455702383449e+00
2.194004455702383449e+00
2.194004455702383449e+00
2.148440565202795582e+00
2.148440565202795582e+00
2.148440565202795582e+00
2.182191595202490397e+00
2.182191595202490397e+00
2.182191595202490397e+00
2.209004913480026033e+00
2.209004913480026033e+00
2.209004913480026033e+00
2.209004913480026033e+00
2.265819147312845505e+00
2.265819147312845505e+00
2.265819147312845505e+00
2.332571184423352761e+00
2.332571184423352761e+00
2.332571184423352761e+00
2.348696676534318240e+00
2.348696676534318240e+00
2.348696676534318240e+00
2.348696676534318240e+00
2.397448164311655194e+00
2.397448164311655194e+00
2.397448164311655194e+00
2.422386425366985119e+00
2.422386425366985119e+00
2.422386425366985119e+00
2.372697408978545752e+00
2.372697408978545752e+00
2.372697408978545752e+00
2.372697408978545752e+00
2.415823725089266905e+00
2.415823725089266905e+00
2.415823725089266905e+00
2.381510177922910199e+00
2.381510177922910199e+00
2.381510177922910199e+00
2.270319284646137969e+00
2.270319284646137969e+00
2.270319284646137969e+00
2.270319284646137969e+00
2.248006103701895242e+00
2.248006103701895242e+00
2.248006103701895242e+00
2.178253975035859380e+00
2.178253975035859380e+00
2.178253975035859380e+00
2.148440565202795582e+00
2.148440565202795582e+00
2.148440565202795582e+00
2.148440565202795582e+00
2.193254432813501520e+00
2.193254432813501520e+00
2.193254432813501520e+00
2.214067567979979945e+00
2.214067567979979945e+00
2.214067567979979945e+00
2.214067567979979945e+00
2.288694845423749680e+00
2.288694845423749680e+00
2.288694845423749680e+00
2.343821527756584366e+00
2.343821527756584366e+00
2.343821527756584366e+00
2.361072054200873183e+00
2.361072054200873183e+00
2.361072054200873183e+00
2.361072054200873183e+00
2.433449262977995797e+00
2.433449262977995797e+00
2.433449262977995797e+00
2.427824091311380439e+00
2.427824091311380439e+00
2.427824091311380439e+00
2.382447706534013054e+00
2.382447706534013054e+00
2.382447706534013054e+00
2.382447706534013054e+00
2.442637043366802097e+00
2.442637043366802097e+00
2.442637043366802097e+00
2.349446699423200169e+00
2.349446699423200169e+00
2.349446699423200169e+00
2.253068758201849597e+00
2.253068758201849597e+00
2.253068758201849597e+00
2.253068758201849597e+00
2.218005188146610962e+00
2.218005188146610962e+00
2.218005188146610962e+00
2.149565599536118921e+00
2.149565599536118921e+00
2.149565599536118921e+00
2.155378276924954761e+00
2.155378276924954761e+00
2.155378276924954761e+00
2.155378276924954761e+00
2.203942258980071234e+00
2.203942258980071234e+00
2.203942258980071234e+00
2.226630451368755370e+00
2.226630451368755370e+00
2.226630451368755370e+00
2.308195440534684284e+00
2.308195440534684284e+00
2.308195440534684284e+00
2.308195440534684284e+00
2.351696768089846401e+00
2.351696768089846401e+00
2.351696768089846401e+00
2.380197637867366822e+00
2.380197637867366822e+00
2.380197637867366822e+00
2.439449446089053009e+00
2.439449446089053009e+00
2.439449446089053009e+00
2.439449446089053009e+00
2.398010681478316641e+00
2.398010681478316641e+00
2.398010681478316641e+00
2.367634754478591397e+00
2.367634754478591397e+00
2.367634754478591397e+00
2.367634754478591397e+00
2.414886196478164049e+00
2.414886196478164049e+00
2.414886196478164049e+00
2.303320291756950855e+00
2.303320291756950855e+00
2.303320291756950855e+00
2.251006195257423848e+00
2.251006195257423848e+00
2.251006195257423848e+00
2.251006195257423848e+00
2.217255165257729033e+00
2.217255165257729033e+00
2.217255165257729033e+00
2.150128116702780368e+00
2.150128116702780368e+00
2.150128116702780368e+00
2.173941343424787398e+00
2.173941343424787398e+00
2.173941343424787398e+00
2.173941343424787398e+00
2.210692464980010374e+00
2.210692464980010374e+00
2.210692464980010374e+00
2.257381389812921579e+00
2.257381389812921579e+00
2.257381389812921579e+00
2.323383404034546906e+00
2.323383404034546906e+00
2.323383404034546906e+00
2.323383404034546906e+00
2.357884456923124095e+00
2.357884456923124095e+00
2.357884456923124095e+00
2.404760887478255782e+00
2.404760887478255782e+00
2.404760887478255782e+00
2.404760887478255782e+00
2.447324686422315043e+00
2.447324686422315043e+00
2.447324686422315043e+00
2.397260658589434712e+00
2.397260658589434712e+00
2.397260658589434712e+00
2.410011047700430176e+00
2.410011047700430176e+00
2.410011047700430176e+00
2.410011047700430176e+00
2.411886104922635443e+00
2.411886104922635443e+00
2.411886104922635443e+00
2.277632007812738557e+00
2.277632007812738557e+00
2.277632007812738557e+00
2.233568163090914993e+00
2.233568163090914993e+00
2.233568163090914993e+00
2.233568163090914993e+00
2.174128849147007880e+00
2.174128849147007880e+00
2.174128849147007880e+00
2.134752647480697263e+00
2.134752647480697263e+00
2.134752647480697263e+00
2.180691549424726094e+00
2.180691549424726094e+00
2.180691549424726094e+00
2.180691549424726094e+00
2.204129764702292160e+00
2.204129764702292160e+00
2.204129764702292160e+00
2.266569170201727434e+00
2.266569170201727434e+00
2.266569170201727434e+00
2.341196447645496725e+00
2.341196447645496725e+00
2.341196447645496725e+00
2.341196447645496725e+00
2.362572099978637485e+00
2.362572099978637485e+00
2.362572099978637485e+00
2.423323953978087530e+00
2.423323953978087530e+00
2.423323953978087530e+00
2.423323953978087530e+00
2.441324503311258276e+00
2.441324503311258276e+00
2.441324503311258276e+00
2.387510361033966966e+00
2.387510361033966966e+00
2.387510361033966966e+00
2.437949400311288706e+00
2.437949400311288706e+00
2.437949400311288706e+00
2.437949400311288706e+00
2.384135258033997840e+00
2.384135258033997840e+00
2.384135258033997840e+00
2.268069215979491737e+00
2.268069215979491737e+00
2.268069215979491737e+00
2.231880611590930208e+00
2.231880611590930208e+00
2.231880611590930208e+00
2.231880611590930208e+00
2.162128482924894346e+00
2.162128482924894346e+00
2.162128482924894346e+00
2.142065370647297406e+00
2.142065370647297406e+00
2.142065370647297406e+00
2.187441755424664791e+00
2.187441755424664791e+00
2.187441755424664791e+00
2.187441755424664791e+00
2.205629810480056463e+00
2.205629810480056463e+00
2.205629810480056463e+00
2.280257087923826198e+00
2.280257087923826198e+00
2.280257087923826198e+00
2.339696401867732423e+00
2.339696401867732423e+00
2.339696401867732423e+00
2.339696401867732423e+00
2.364259651478621826e+00
2.364259651478621826e+00
2.364259651478621826e+00
2.431949217200232383e+00
2.431949217200232383e+00
2.431949217200232383e+00
2.431949217200232383e+00
2.427449079866939474e+00
2.427449079866939474e+00
2.427449079866939474e+00
2.389760429700613198e+00
2.389760429700613198e+00
2.389760429700613198e+00
2.450512283700064131e+00
2.450512283700064131e+00
2.450512283700064131e+00
2.339883907589953349e+00
2.339883907589953349e+00
2.339883907589953349e+00
2.339883907589953349e+00
2.248943632312997654e+00
2.248943632312997654e+00
2.248943632312997654e+00
2.215192602313302839e+00
2.215192602313302839e+00
2.215192602313302839e+00
2.153878231147190458e+00
2.153878231147190458e+00
2.153878231147190458e+00
2.153878231147190458e+00
2.165691091647083955e+00
2.165691091647083955e+00
2.165691091647083955e+00
2.201692190313425002e+00
2.201692190313425002e+00
2.201692190313425002e+00
2.229255531479842567e+00
2.229255531479842567e+00
2.229255531479842567e+00
2.229255531479842567e+00
2.311945554979094819e+00
2.311945554979094819e+00
2.311945554979094819e+00
2.354134342478713116e+00
2.354134342478713116e+00
2.354134342478713116e+00
2.388447889645069822e+00
2.388447889645069822e+00
2.388447889645069822e+00
2.388447889645069822e+00
2.449949766533402684e+00
2.449949766533402684e+00
2.449949766533402684e+00
2.400823267311624321e+00
2.400823267311624321e+00
2.400823267311624321e+00
2.387135349589526001e+00
2.387135349589526001e+00
2.387135349589526001e+00
2.387135349589526001e+00
2.425949034089175171e+00
2.425949034089175171e+00
2.425949034089175171e+00
2.297507614368114126e+00
2.297507614368114126e+00
2.297507614368114126e+00
2.239568346201971760e+00
2.239568346201971760e+00
2.239568346201971760e+00
2.239568346201971760e+00
2.191754387035737217e+00
2.191754387035737217e+00
2.191754387035737217e+00
2.138127750480666833e+00
2.138127750480666833e+00
2.138127750480666833e+00
2.138127750480666833e+00
2.174503860591448845e+00
2.174503860591448845e+00
2.174503860591448845e+00
2.201879696035645484e+00
2.201879696035645484e+00
2.201879696035645484e+00
2.249318643757439062e+00
2.249318643757439062e+00
2.249318643757439062e+00
2.249318643757439062e+00
2.316820703756828248e+00
2.316820703756828248e+00
2.316820703756828248e+00
2.342133976256599581e+00
2.342133976256599581e+00
2.342133976256599581e+00
2.400823267311624321e+00
2.400823267311624321e+00
2.400823267311624321e+00
2.400823267311624321e+00
2.440199468977935382e+00
2.440199468977935382e+00
2.440199468977935382e+00
2.375697500534073914e+00
2.375697500534073914e+00
2.375697500534073914e+00
2.410573564867091623e+00
2.410573564867091623e+00
2.410573564867091623e+00
2.410573564867091623e+00
2.411136082033753514e+00
2.411136082033753514e+00
2.411136082033753514e+00
2.291132419812616394e+00
2.291132419812616394e+00
2.291132419812616394e+00
2.261694021423993561e+00
2.261694021423993561e+00
2.261694021423993561e+00
2.261694021423993561e+00
2.204317270424512643e+00
2.204317270424512643e+00
2.204317270424512643e+00
2.162128482924894346e+00
2.162128482924894346e+00
2.162128482924894346e+00
2.203004730368968822e+00
2.203004730368968822e+00
2.203004730368968822e+00
2.216130130924405695e+00
2.216130130924405695e+00
2.216130130924405695e+00
2.216130130924405695e+00
2.279694570757164307e+00
2.279694570757164307e+00
2.279694570757164307e+00
2.348696676534318240e+00
2.348696676534318240e+00
2.348696676534318240e+00
2.358259468367565059e+00
2.358259468367565059e+00
2.358259468367565059e+00
2.414698690755943566e+00
2.414698690755943566e+00
2.414698690755943566e+00
2.414698690755943566e+00
2.418448805200354101e+00
2.418448805200354101e+00
2.418448805200354101e+00
2.355634388256477418e+00
2.355634388256477418e+00
2.355634388256477418e+00
2.417511276589251690e+00
2.417511276589251690e+00
2.417511276589251690e+00
2.417511276589251690e+00
2.348134159367656792e+00
2.348134159367656792e+00
2.348134159367656792e+00
2.248756126590777171e+00
2.248756126590777171e+00
2.248756126590777171e+00
2.232443128757591655e+00
2.232443128757591655e+00
2.232443128757591655e+00
2.232443128757591655e+00
2.167003631702627775e+00
2.167003631702627775e+00
2.167003631702627775e+00
2.160628437147130043e+00
2.160628437147130043e+00
2.160628437147130043e+00
2.212567522202215642e+00
2.212567522202215642e+00
2.212567522202215642e+00
2.212567522202215642e+00
2.232443128757591655e+00
2.232443128757591655e+00
2.232443128757591655e+00
2.306695394756919981e+00
2.306695394756919981e+00
2.306695394756919981e+00
2.306695394756919981e+00
2.359196996978667915e+00
2.359196996978667915e+00
2.359196996978667915e+00
2.376260017700735361e+00
2.376260017700735361e+00
2.376260017700735361e+00
2.440949491866817311e+00
2.440949491866817311e+00
2.440949491866817311e+00
2.440949491866817311e+00
2.416573747978148834e+00
2.416573747978148834e+00
2.416573747978148834e+00
2.370072328867458111e+00
2.370072328867458111e+00
2.370072328867458111e+00
2.425574022644734207e+00
2.425574022644734207e+00
2.425574022644734207e+00
2.425574022644734207e+00
2.328071047090059853e+00
2.328071047090059853e+00
2.328071047090059853e+00
2.250818689535202921e+00
2.250818689535202921e+00
2.250818689535202921e+00
2.225505417035432032e+00
2.225505417035432032e+00
2.225505417035432032e+00
2.225505417035432032e+00
2.159690908536027187e+00
2.159690908536027187e+00
2.159690908536027187e+00
2.177878963591417971e+00
2.177878963591417971e+00
2.177878963591417971e+00
2.220067751091036712e+00
2.220067751091036712e+00
2.220067751091036712e+00
2.220067751091036712e+00
2.258506424146244473e+00
2.258506424146244473e+00
2.258506424146244473e+00
2.331258644367808941e+00
2.331258644367808941e+00
2.331258644367808941e+00
2.363509628589739453e+00
2.363509628589739453e+00
2.363509628589739453e+00
2.363509628589739453e+00
2.398198187200537124e+00
2.398198187200537124e+00
2.398198187200537124e+00
2.448637226477858864e+00
2.448637226477858864e+00
2.448637226477858864e+00
2.448637226477858864e+00
2.390697958311716054e+00
2.390697958311716054e+00
2.390697958311716054e+00
2.388447889645069822e+00
2.388447889645069822e+00
2.388447889645069822e+00
2.411136082033753514e+00
2.411136082033753514e+00
2.411136082033753514e+00
2.411136082033753514e+00
2.281382122257148648e+00
2.281382122257148648e+00
2.281382122257148648e+00
2.227005462813196335e+00
2.227005462813196335e+00
2.227005462813196335e+00
2.182754112369151844e+00
2.182754112369151844e+00
2.182754112369151844e+00
2.182754112369151844e+00
2.137565233314004942e+00
2.137565233314004942e+00
2.137565233314004942e+00
2.177878963591417971e+00
2.177878963591417971e+00
2.177878963591417971e+00
2.201504684591204519e+00
2.201504684591204519e+00
2.201504684591204519e+00
2.201504684591204519e+00
2.261506515701773079e+00
2.261506515701773079e+00
2.261506515701773079e+00
2.336133793145542814e+00
2.336133793145542814e+00
2.336133793145542814e+00
2.359384502700888397e+00
2.359384502700888397e+00
2.359384502700888397e+00
2.359384502700888397e+00
2.410948576311533031e+00
2.410948576311533031e+00
2.410948576311533031e+00
2.437761894589068223e+00
2.437761894589068223e+00
2.437761894589068223e+00
2.437761894589068223e+00
2.375885006256294396e+00
2.375885006256294396e+00
2.375885006256294396e+00
2.416948759422589799e+00
2.416948759422589799e+00
2.416948759422589799e+00
2.386760338145085036e+00
2.386760338145085036e+00
2.386760338145085036e+00
2.386760338145085036e+00
2.261319009979552597e+00
2.261319009979552597e+00
2.261319009979552597e+00
2.233943174535355514e+00
2.233943174535355514e+00
2.233943174535355514e+00
2.169441206091494490e+00
2.169441206091494490e+00
2.169441206091494490e+00
2.169441206091494490e+00
2.150690633869442259e+00
2.150690633869442259e+00
2.150690633869442259e+00
2.198317087313455875e+00
2.198317087313455875e+00
2.198317087313455875e+00
2.213317545091097571e+00
2.213317545091097571e+00
2.213317545091097571e+00
2.213317545091097571e+00
2.284944730979339145e+00
2.284944730979339145e+00
2.284944730979339145e+00
2.389760429700613198e+00
2.389760429700613198e+00
2.389760429700613198e+00
2.368009765923032361e+00
2.368009765923032361e+00
2.368009765923032361e+00
2.368009765923032361e+00
2.411136082033753514e+00
2.411136082033753514e+00
2.411136082033753514e+00
2.411511093478194478e+00
2.411511093478194478e+00
2.411511093478194478e+00
2.357884456923124095e+00
2.357884456923124095e+00
2.357884456923124095e+00
2.357884456923124095e+00
2.417136265144810281e+00
2.417136265144810281e+00
2.417136265144810281e+00
2.336696310312204705e+00
2.336696310312204705e+00
2.336696310312204705e+00
2.246131046479689974e+00
2.246131046479689974e+00
2.246131046479689974e+00
2.246131046479689974e+00
2.219692739646595747e+00
2.219692739646595747e+00
2.219692739646595747e+00
2.156128299813837135e+00
2.156128299813837135e+00
2.156128299813837135e+00
2.148253059480575100e+00
2.148253059480575100e+00
2.148253059480575100e+00
2.148253059480575100e+00
2.192879421369060555e+00
2.192879421369060555e+00
2.192879421369060555e+00
2.225317911313211550e+00
2.225317911313211550e+00
2.225317911313211550e+00
2.225317911313211550e+00
2.299382671590319838e+00
2.299382671590319838e+00
2.299382671590319838e+00
2.337258827478866152e+00
2.337258827478866152e+00
2.337258827478866152e+00
2.371384868923001932e+00
2.371384868923001932e+00
2.371384868923001932e+00
2.371384868923001932e+00
2.450699789422284613e+00
2.450699789422284613e+00
2.450699789422284613e+00
2.426699056978057101e+00
2.426699056978057101e+00
2.426699056978057101e+00
2.402323313089388623e+00
2.402323313089388623e+00
2.402323313089388623e+00
2.402323313089388623e+00
2.453137363811151772e+00
2.453137363811151772e+00
2.453137363811151772e+00
2.330321115756706529e+00
2.330321115756706529e+00
2.330321115756706529e+00
2.263944090090640238e+00
2.263944090090640238e+00
2.263944090090640238e+00
2.263944090090640238e+00
2.218755211035493335e+00
2.218755211035493335e+00
2.218755211035493335e+00
2.152565691091647082e+00
2.152565691091647082e+00
2.152565691091647082e+00
2.169441206091494490e+00
2.169441206091494490e+00
2.169441206091494490e+00
2.199817133091219734e+00
2.199817133091219734e+00
2.199817133091219734e+00
2.199817133091219734e+00
2.245756035035248566e+00
2.245756035035248566e+00
2.245756035035248566e+00
2.322258369701224012e+00
2.322258369701224012e+00
2.322258369701224012e+00
2.322258369701224012e+00
2.346071596423230599e+00
2.346071596423230599e+00
2.346071596423230599e+00
2.389010406811731269e+00
2.389010406811731269e+00
2.389010406811731269e+00
2.442074526200140649e+00
2.442074526200140649e+00
2.442074526200140649e+00
2.442074526200140649e+00
2.385072786645100695e+00
2.385072786645100695e+00
2.385072786645100695e+00
2.399885738700521909e+00
2.399885738700521909e+00
2.399885738700521909e+00
2.406635944700461049e+00
2.406635944700461049e+00
2.406635944700461049e+00
2.406635944700461049e+00
2.283444685201574842e+00
2.283444685201574842e+00
2.283444685201574842e+00
2.237880794701986531e+00
2.237880794701986531e+00
2.237880794701986531e+00
2.182941618091372327e+00
2.182941618091372327e+00
2.182941618091372327e+00
2.182941618091372327e+00
2.144502945036164565e+00
2.144502945036164565e+00
2.144502945036164565e+00
2.189316812646870059e+00
2.189316812646870059e+00
2.189316812646870059e+00
2.221005279702139568e+00
2.221005279702139568e+00
2.221005279702139568e+00
2.221005279702139568e+00
2.275381939146092325e+00
2.275381939146092325e+00
2.275381939146092325e+00
2.341196447645496725e+00
2.341196447645496725e+00
2.341196447645496725e+00
2.352634296700948813e+00
2.352634296700948813e+00
2.352634296700948813e+00
2.352634296700948813e+00
2.414323679311502602e+00
2.414323679311502602e+00
2.414323679311502602e+00
2.435886837366862956e+00
2.435886837366862956e+00
2.435886837366862956e+00
2.382822717978454019e+00
2.382822717978454019e+00
2.382822717978454019e+00
2.382822717978454019e+00
2.425574022644734207e+00
2.425574022644734207e+00
2.425574022644734207e+00
2.377947569200720146e+00
2.377947569200720146e+00
2.377947569200720146e+00
2.377947569200720146e+00
2.258881435590685438e+00
2.258881435590685438e+00
2.258881435590685438e+00
2.235630726035340299e+00
2.235630726035340299e+00
2.235630726035340299e+00
2.170753746147038310e+00
2.170753746147038310e+00
2.170753746147038310e+00
2.170753746147038310e+00
2.151065645313883223e+00
2.151065645313883223e+00
2.151065645313883223e+00
2.188941801202429094e+00
2.188941801202429094e+00
2.188941801202429094e+00
2.212192510757774677e+00
2.212192510757774677e+00
2.212192510757774677e+00
2.212192510757774677e+00
2.279882076479384789e+00
2.279882076479384789e+00
2.279882076479384789e+00
2.335383770256660885e+00
2.335383770256660885e+00
2.335383770256660885e+00
2.358071962645344577e+00
2.358071962645344577e+00
2.358071962645344577e+00
2.358071962645344577e+00
2.431761711478011456e+00
2.431761711478011456e+00
2.431761711478011456e+00
2.426324045533616136e+00
2.426324045533616136e+00
2.426324045533616136e+00
2.386572832422864110e+00
2.386572832422864110e+00
2.386572832422864110e+00
2.386572832422864110e+00
2.445637134922330258e+00
2.445637134922330258e+00
2.445637134922330258e+00
2.347384136478774419e+00
2.347384136478774419e+00
2.347384136478774419e+00
2.257006378368480615e+00
2.257006378368480615e+00
2.257006378368480615e+00
2.257006378368480615e+00
2.233380657368694511e+00
2.233380657368694511e+00
2.233380657368694511e+00
2.162878505813776275e+00
2.162878505813776275e+00
2.162878505813776275e+00
2.162878505813776275e+00
2.164378551591540134e+00
2.164378551591540134e+00
2.164378551591540134e+00
2.207879879146702695e+00
2.207879879146702695e+00
2.207879879146702695e+00
2.233755668813135031e+00
2.233755668813135031e+00
2.233755668813135031e+00
2.233755668813135031e+00
2.308570451979125249e+00
2.308570451979125249e+00
2.308570451979125249e+00
2.339883907589953349e+00
2.339883907589953349e+00
2.339883907589953349e+00
2.369134800256355700e+00
2.369134800256355700e+00
2.369134800256355700e+00
2.369134800256355700e+00
2.432324228644673347e+00
2.432324228644673347e+00
2.432324228644673347e+00
2.392198004089480357e+00
2.392198004089480357e+00
2.392198004089480357e+00
2.379822626422925413e+00
2.379822626422925413e+00
2.379822626422925413e+00
2.379822626422925413e+00
2.425386516922513280e+00
2.425386516922513280e+00
2.425386516922513280e+00
2.301257728812525105e+00
2.301257728812525105e+00
2.301257728812525105e+00
2.251381206701864812e+00
2.251381206701864812e+00
2.251381206701864812e+00
2.251381206701864812e+00
2.215005096591082356e+00
2.215005096591082356e+00
2.215005096591082356e+00
2.158378368480483367e+00
2.158378368480483367e+00
2.158378368480483367e+00
2.181441572313608468e+00
2.181441572313608468e+00
2.181441572313608468e+00
2.181441572313608468e+00
2.203942258980071234e+00
2.203942258980071234e+00
2.203942258980071234e+00
2.242943449201941331e+00
2.242943449201941331e+00
2.242943449201941331e+00
2.313820612201300086e+00
2.313820612201300086e+00
2.313820612201300086e+00
2.313820612201300086e+00
2.347009125034333454e+00
2.347009125034333454e+00
2.347009125034333454e+00
2.405510910367137711e+00
2.405510910367137711e+00
2.405510910367137711e+00
2.405510910367137711e+00
2.441136997589037794e+00
2.441136997589037794e+00
2.441136997589037794e+00
2.380947660756248752e+00
2.380947660756248752e+00
2.380947660756248752e+00
2.406448438978240567e+00
2.406448438978240567e+00
2.406448438978240567e+00
2.406448438978240567e+00
2.399885738700521909e+00
2.399885738700521909e+00
2.399885738700521909e+00
2.277444502090518075e+00
2.277444502090518075e+00
2.277444502090518075e+00
2.248193609424115724e+00
2.248193609424115724e+00
2.248193609424115724e+00
2.248193609424115724e+00
2.194004455702383449e+00
2.194004455702383449e+00
2.194004455702383449e+00
2.165316080202642990e+00
2.165316080202642990e+00
2.165316080202642990e+00
2.203004730368968822e+00
2.203004730368968822e+00
2.203004730368968822e+00
2.203004730368968822e+00
2.221192785424360050e+00
2.221192785424360050e+00
2.221192785424360050e+00
2.282694662312692468e+00
2.282694662312692468e+00
2.282694662312692468e+00
2.343259010589922919e+00
2.343259010589922919e+00
2.343259010589922919e+00
2.343259010589922919e+00
2.360322031311990809e+00
2.360322031311990809e+00
2.360322031311990809e+00
2.425011505478072316e+00
2.425011505478072316e+00
2.425011505478072316e+00
2.431199194311350009e+00
2.431199194311350009e+00
2.431199194311350009e+00
2.431199194311350009e+00
2.374572466200750576e+00
2.374572466200750576e+00
2.374572466200750576e+00
2.421073885311441742e+00
2.421073885311441742e+00
2.421073885311441742e+00
2.421073885311441742e+00
2.362759605700857524e+00
2.362759605700857524e+00
2.362759605700857524e+00
2.258318918424023991e+00
2.258318918424023991e+00
2.258318918424023991e+00
2.232255623035371173e+00
2.232255623035371173e+00
2.232255623035371173e+00
2.232255623035371173e+00
2.165691091647083955e+00
2.165691091647083955e+00
2.165691091647083955e+00
2.155753288369396170e+00
2.155753288369396170e+00
2.155753288369396170e+00
2.201504684591204519e+00
2.201504684591204519e+00
2.201504684591204519e+00
2.220630268257698603e+00
2.220630268257698603e+00
2.220630268257698603e+00
2.220630268257698603e+00
2.293382488479262626e+00
2.293382488479262626e+00
2.293382488479262626e+00
2.342508987701040546e+00
2.342508987701040546e+00
2.342508987701040546e+00
2.342508987701040546e+00
2.360509537034211291e+00
2.360509537034211291e+00
2.360509537034211291e+00
2.424636494033631351e+00
2.424636494033631351e+00
2.424636494033631351e+00
2.410761070589312105e+00
2.410761070589312105e+00
2.410761070589312105e+00
2.373822443311869090e+00
2.373822443311869090e+00
2.373822443311869090e+00
2.373822443311869090e+00
2.435886837366862956e+00
2.435886837366862956e+00
2.435886837366862956e+00
2.327133518478957885e+00
2.327133518478957885e+00
2.327133518478957885e+00
2.327133518478957885e+00
2.245568529313028083e+00
2.245568529313028083e+00
2.245568529313028083e+00
2.223630359813226764e+00
2.223630359813226764e+00
2.223630359813226764e+00
2.164941068758201581e+00
2.164941068758201581e+00
2.164941068758201581e+00
2.164941068758201581e+00
2.171503769035920239e+00
2.171503769035920239e+00
2.171503769035920239e+00
2.206567339091158875e+00
2.206567339091158875e+00
2.206567339091158875e+00
2.238068300424207457e+00
2.238068300424207457e+00
2.238068300424207457e+00
2.238068300424207457e+00
2.316820703756828248e+00
2.316820703756828248e+00
2.316820703756828248e+00
2.353946836756492633e+00
2.353946836756492633e+00
2.353946836756492633e+00
2.382635212256233537e+00
2.382635212256233537e+00
2.382635212256233537e+00
2.382635212256233537e+00
2.440199468977935382e+00
2.440199468977935382e+00
2.440199468977935382e+00
2.390697958311716054e+00
2.390697958311716054e+00
2.390697958311716054e+00
2.391447981200597983e+00
2.391447981200597983e+00
2.391447981200597983e+00
2.391447981200597983e+00
2.424636494033631351e+00
2.424636494033631351e+00
2.424636494033631351e+00
2.296945097201452679e+00
2.296945097201452679e+00
2.296945097201452679e+00
2.296945097201452679e+00
2.245193517868587563e+00
2.245193517868587563e+00
2.245193517868587563e+00
2.201692190313425002e+00
2.201692190313425002e+00
2.201692190313425002e+00
2.155753288369396170e+00
2.155753288369396170e+00
2.155753288369396170e+00
2.155753288369396170e+00
2.196254524369030126e+00
2.196254524369030126e+00
2.196254524369030126e+00
2.223255348368785356e+00
2.223255348368785356e+00
2.223255348368785356e+00
2.269944273201696561e+00
2.269944273201696561e+00
2.269944273201696561e+00
2.269944273201696561e+00
2.338196356089969008e+00
2.338196356089969008e+00
2.338196356089969008e+00
2.351134250923184954e+00
2.351134250923184954e+00
2.351134250923184954e+00
2.397260658589434712e+00
2.397260658589434712e+00
2.397260658589434712e+00
2.397260658589434712e+00
2.435324320200201509e+00
2.435324320200201509e+00
2.435324320200201509e+00
2.380947660756248752e+00
2.380947660756248752e+00
2.380947660756248752e+00
2.408511001922666317e+00
2.408511001922666317e+00
2.408511001922666317e+00
2.408511001922666317e+00
2.385260292367321178e+00
2.385260292367321178e+00
2.385260292367321178e+00
2.264694112979522167e+00
2.264694112979522167e+00
2.264694112979522167e+00
2.247068575090792386e+00
2.247068575090792386e+00
2.247068575090792386e+00
2.247068575090792386e+00
2.195316995757927270e+00
2.195316995757927270e+00
2.195316995757927270e+00
2.158003357036042402e+00
2.158003357036042402e+00
2.158003357036042402e+00
2.158003357036042402e+00
2.187441755424664791e+00
2.187441755424664791e+00
2.187441755424664791e+00
2.202629718924527857e+00
2.202629718924527857e+00
2.202629718924527857e+00
2.266194158757286470e+00
2.266194158757286470e+00
2.266194158757286470e+00
2.266194158757286470e+00
2.331633655812249906e+00
2.331633655812249906e+00
2.331633655812249906e+00
2.342321481978820064e+00
2.342321481978820064e+00
2.342321481978820064e+00
2.412823633533738299e+00
2.412823633533738299e+00
2.412823633533738299e+00
2.412823633533738299e+00
2.424823999755851833e+00
2.424823999755851833e+00
2.424823999755851833e+00
2.376635029145176325e+00
2.376635029145176325e+00
2.376635029145176325e+00
2.452574846644489881e+00
2.452574846644489881e+00
2.452574846644489881e+00
2.452574846644489881e+00
2.375697500534073914e+00
2.375697500534073914e+00
2.375697500534073914e+00
2.260381481368449741e+00
2.260381481368449741e+00
2.260381481368449741e+00
2.233005645924253102e+00
2.233005645924253102e+00
2.233005645924253102e+00
2.233005645924253102e+00
2.164003540147099169e+00
2.164003540147099169e+00
2.164003540147099169e+00
2.154815759758293314e+00
2.154815759758293314e+00
2.154815759758293314e+00
2.200942167424543072e+00
2.200942167424543072e+00
2.200942167424543072e+00
2.200942167424543072e+00
2.223630359813226764e+00
2.223630359813226764e+00
2.223630359813226764e+00
2.301820245979186552e+00
2.301820245979186552e+00
2.301820245979186552e+00
2.350384228034303025e+00
2.350384228034303025e+00
2.350384228034303025e+00
2.350384228034303025e+00
2.377572557756279181e+00
2.377572557756279181e+00
2.377572557756279181e+00
2.442824549089022579e+00
2.442824549089022579e+00
2.442824549089022579e+00
2.415073702200384531e+00
2.415073702200384531e+00
2.415073702200384531e+00
2.415073702200384531e+00
2.386572832422864110e+00
2.386572832422864110e+00
2.386572832422864110e+00
2.442074526200140649e+00
2.442074526200140649e+00
2.442074526200140649e+00
2.442074526200140649e+00
2.319820795312356854e+00
2.319820795312356854e+00
2.319820795312356854e+00
2.246131046479689974e+00
2.246131046479689974e+00
2.246131046479689974e+00
2.213317545091097571e+00
2.213317545091097571e+00
2.213317545091097571e+00
2.213317545091097571e+00
2.151065645313883223e+00
2.151065645313883223e+00
2.151065645313883223e+00
2.162878505813776275e+00
2.162878505813776275e+00
2.162878505813776275e+00
2.197754570146794428e+00
2.197754570146794428e+00
2.197754570146794428e+00
2.197754570146794428e+00
2.240318369090853690e+00
2.240318369090853690e+00
2.240318369090853690e+00
2.316633198034607766e+00
2.316633198034607766e+00
2.316633198034607766e+00
2.347759147923215384e+00
2.347759147923215384e+00
2.347759147923215384e+00
2.347759147923215384e+00
2.384697775200659287e+00
2.384697775200659287e+00
2.384697775200659287e+00
2.438136906033509188e+00
2.438136906033509188e+00
2.438136906033509188e+00
2.438136906033509188e+00
2.391822992645039392e+00
2.391822992645039392e+00
2.391822992645039392e+00
2.396698141422773265e+00
2.396698141422773265e+00
2.396698141422773265e+00
2.417323770867030763e+00
2.417323770867030763e+00
2.417323770867030763e+00
2.417323770867030763e+00
2.290382396923734465e+00
2.290382396923734465e+00
2.290382396923734465e+00
2.242380932035279439e+00
2.242380932035279439e+00
2.242380932035279439e+00
2.193066927091281038e+00
2.193066927091281038e+00
2.193066927091281038e+00
2.193066927091281038e+00
2.149565599536118921e+00
2.149565599536118921e+00
2.149565599536118921e+00
2.186879238258003344e+00
2.186879238258003344e+00
2.186879238258003344e+00
2.209379924924466998e+00
2.209379924924466998e+00
2.209379924924466998e+00
2.209379924924466998e+00
2.270881801812799416e+00
2.270881801812799416e+00
2.270881801812799416e+00
2.345509079256569152e+00
2.345509079256569152e+00
2.345509079256569152e+00
2.363697134311959935e+00
2.363697134311959935e+00
2.363697134311959935e+00
2.404948393200476264e+00
2.404948393200476264e+00
2.404948393200476264e+00
2.404948393200476264e+00
2.430824182866909045e+00
2.430824182866909045e+00
2.430824182866909045e+00
2.374384960478530537e+00
2.374384960478530537e+00
2.374384960478530537e+00
2.374384960478530537e+00
2.419573839533677440e+00
2.419573839533677440e+00
2.419573839533677440e+00
2.376635029145176325e+00
2.376635029145176325e+00
2.376635029145176325e+00
2.256256355479598685e+00
2.256256355479598685e+00
2.256256355479598685e+00
2.256256355479598685e+00
2.236005737479781263e+00
2.236005737479781263e+00
2.236005737479781263e+00
2.185941709646900932e+00
2.185941709646900932e+00
2.185941709646900932e+00
2.169816217535935454e+00
2.169816217535935454e+00
2.169816217535935454e+00
2.169816217535935454e+00
2.206942350535599839e+00
2.206942350535599839e+00
2.206942350535599839e+00
2.214255073702200427e+00
2.214255073702200427e+00
2.214255073702200427e+00
2.283819696646015807e+00
2.283819696646015807e+00
2.283819696646015807e+00
2.283819696646015807e+00
2.347009125034333454e+00
2.347009125034333454e+00
2.347009125034333454e+00
2.359759514145329362e+00
2.359759514145329362e+00
2.359759514145329362e+00
2.423511459700308013e+00
2.423511459700308013e+00
2.423511459700308013e+00
2.423511459700308013e+00
2.423511459700308013e+00
2.423511459700308013e+00
2.423511459700308013e+00
2.379635120700704931e+00
2.379635120700704931e+00
2.379635120700704931e+00
2.379635120700704931e+00
2.437761894589068223e+00
2.437761894589068223e+00
2.437761894589068223e+00
2.351134250923184954e+00
2.351134250923184954e+00
2.351134250923184954e+00
2.250068666646320992e+00
2.250068666646320992e+00
2.250068666646320992e+00
2.250068666646320992e+00
2.226067934202093479e+00
2.226067934202093479e+00
2.226067934202093479e+00
2.157628345591601438e+00
2.157628345591601438e+00
2.157628345591601438e+00
2.162691000091555793e+00
2.162691000091555793e+00
2.162691000091555793e+00
2.162691000091555793e+00
2.207317361980041248e+00
2.207317361980041248e+00
2.207317361980041248e+00
2.229068025757622085e+00
2.229068025757622085e+00
2.229068025757622085e+00
2.310633014923550999e+00
2.310633014923550999e+00
2.310633014923550999e+00
2.351134250923184954e+00
2.351134250923184954e+00
2.351134250923184954e+00
2.378697592089602519e+00
2.378697592089602519e+00
2.378697592089602519e+00
2.378697592089602519e+00
2.438511917477950597e+00
2.438511917477950597e+00
2.438511917477950597e+00
2.402323313089388623e+00
2.402323313089388623e+00
2.402323313089388623e+00
2.378885097811823002e+00
2.378885097811823002e+00
2.378885097811823002e+00
2.419948850978118404e+00
2.419948850978118404e+00
2.419948850978118404e+00
2.308007934812463802e+00
2.308007934812463802e+00
2.242568437757499922e+00
2.242568437757499922e+00
2.242568437757499922e+00
2.207692373424482213e+00
2.207692373424482213e+00
2.149565599536118921e+00
2.149565599536118921e+00
2.181066560869167059e+00
2.181066560869167059e+00
2.208817407757805107e+00
2.208817407757805107e+00
2.253256263924070080e+00
2.253256263924070080e+00
2.324883449812311209e+00
2.324883449812311209e+00
2.350759239478743989e+00
2.350759239478743989e+00
2.383385235145115466e+00
2.383385235145115466e+00
2.383385235145115466e+00
2.422198919644764192e+00
2.422198919644764192e+00
2.364822168645283273e+00
2.364822168645283273e+00
2.385260292367321178e+00
2.385260292367321178e+00
2.390885464033936536e+00
2.390885464033936536e+00
2.276131962034974254e+00
2.276131962034974254e+00
2.250256172368541474e+00
2.250256172368541474e+00
2.200754661702322146e+00
2.200754661702322146e+00
2.165128574480422063e+00
2.165128574480422063e+00
2.165128574480422063e+00
2.198504593035676358e+00
2.198504593035676358e+00
2.208067384868923178e+00
2.208067384868923178e+00
2.258131412701803509e+00
2.258131412701803509e+00
2.320008301034577336e+00
2.320008301034577336e+00
2.329008575701162709e+00
2.329008575701162709e+00
2.381510177922910199e+00
2.381510177922910199e+00
2.396135624256111374e+00
2.396135624256111374e+00
2.341196447645496725e+00
2.341196447645496725e+00
2.341196447645496725e+00
2.390510452589495571e+00
2.390510452589495571e+00
2.335946287423322332e+00
2.335946287423322332e+00
2.241068391979735619e+00
2.241068391979735619e+00
2.235068208868678852e+00
2.235068208868678852e+00
2.203754753257850751e+00
2.203754753257850751e+00
2.228505508590960638e+00
2.228505508590960638e+00
2.294507522812585520e+00
2.294507522812585520e+00
2.294507522812585520e+00
2.290194891201513983e+00
2.290194891201513983e+00
2.314758140812402942e+00
2.314758140812402942e+00
2.304257820368053267e+00
2.304257820368053267e+00
2.259443952757347329e+00
2.259443952757347329e+00
2.302570268868068482e+00
2.302570268868068482e+00
2.302945280312509890e+00
2.302945280312509890e+00
2.289069856868190644e+00
2.289069856868190644e+00
2.374384960478530537e+00
2.374384960478530537e+00
2.374384960478530537e+00
2.301632740256966070e+00
2.301632740256966070e+00
2.255881344035157721e+00
2.255881344035157721e+00
2.268631733146153184e+00
2.268631733146153184e+00
2.245943540757469048e+00
2.245943540757469048e+00
2.276694479201635701e+00
2.276694479201635701e+00
2.278382030701620931e+00
2.278382030701620931e+00
2.270506790368358452e+00
2.270506790368358452e+00
2.281944639423810539e+00
2.281944639423810539e+00
2.267131687368389326e+00
2.267131687368389326e+00
2.267131687368389326e+00
2.277632007812738557e+00
2.277632007812738557e+00
2.328258552812280335e+00
2.328258552812280335e+00
2.296757591479232197e+00
2.296757591479232197e+00
2.317758232367931104e+00
2.317758232367931104e+00
2.383385235145115466e+00
2.383385235145115466e+00
2.284382213812677254e+00
2.284382213812677254e+00
2.259818964201788294e+00
2.259818964201788294e+00
2.247256080813012868e+00
2.247256080813012868e+00
2.247256080813012868e+00
2.211067476424451339e+00
2.211067476424451339e+00
2.263756584368419311e+00
2.263756584368419311e+00
2.284382213812677254e+00
2.284382213812677254e+00
2.289257362590411127e+00
2.289257362590411127e+00
2.313445600756859122e+00
2.313445600756859122e+00
2.308382946256904766e+00
2.308382946256904766e+00
2.378697592089602519e+00
2.378697592089602519e+00
2.449199743644520311e+00
2.449199743644520311e+00
2.449199743644520311e+00
2.414323679311502602e+00
2.414323679311502602e+00
2.431574205755790974e+00
2.431574205755790974e+00
2.347571642200994901e+00
2.347571642200994901e+00
2.148628070925016065e+00
2.148628070925016065e+00
2.084876125370036970e+00
2.084876125370036970e+00
2.024499282815027001e+00
2.024499282815027001e+00
2.010248847926267679e+00
2.010248847926267679e+00
2.077188390758995418e+00
2.077188390758995418e+00
2.077188390758995418e+00
2.133627613147373925e+00
2.133627613147373925e+00
2.260381481368449741e+00
2.260381481368449741e+00
2.384885280922879769e+00
2.384885280922879769e+00
2.426699056978057101e+00
2.426699056978057101e+00
2.510889126255073656e+00
2.510889126255073656e+00
2.536202398754844989e+00
2.536202398754844989e+00
2.462512649922177665e+00
2.462512649922177665e+00
2.462512649922177665e+00
2.459325052644428578e+00
2.459325052644428578e+00
2.365759697256386129e+00
2.365759697256386129e+00
2.289257362590411127e+00
2.289257362590411127e+00
2.302945280312509890e+00
2.302945280312509890e+00
2.219880245368816230e+00
2.219880245368816230e+00
2.188566789757988129e+00
2.188566789757988129e+00
2.230380565813165905e+00
2.230380565813165905e+00
2.224005371257667729e+00
2.224005371257667729e+00
2.196442030091250608e+00
2.196442030091250608e+00
2.196442030091250608e+00
2.197192052980132537e+00
2.197192052980132537e+00
2.213692556535538980e+00
2.213692556535538980e+00
2.306320383312479017e+00
2.306320383312479017e+00
2.355446882534256936e+00
2.355446882534256936e+00
2.375134983367412023e+00
2.375134983367412023e+00
2.419948850978118404e+00
2.419948850978118404e+00
2.296382580034791232e+00
2.296382580034791232e+00
2.296382580034791232e+00
2.204879787591174090e+00
2.204879787591174090e+00
2.164566057313760616e+00
2.164566057313760616e+00
2.131377544480727693e+00
2.131377544480727693e+00
2.179754020813623683e+00
2.179754020813623683e+00
2.275569444868312807e+00
2.275569444868312807e+00
2.291882442701498768e+00
2.291882442701498768e+00
2.367259743034150432e+00
2.367259743034150432e+00
2.446762169255653596e+00
2.446762169255653596e+00
2.506576494644001674e+00
2.506576494644001674e+00
2.539389996032593633e+00
2.539389996032593633e+00
2.539389996032593633e+00
2.446574663533433114e+00
2.446574663533433114e+00
2.397823175756096159e+00
2.397823175756096159e+00
2.396885647144993747e+00
2.396885647144993747e+00
2.270131778923917043e+00
2.270131778923917043e+00
2.208629902035584625e+00
2.208629902035584625e+00
2.136627704702902530e+00
2.136627704702902530e+00
2.047187475203710694e+00
2.047187475203710694e+00
2.090313791314432290e+00
2.090313791314432290e+00
2.124064821314127105e+00
2.124064821314127105e+00
2.124064821314127105e+00
2.221005279702139568e+00
2.221005279702139568e+00
2.318883266701254442e+00
2.318883266701254442e+00
2.372134891811884305e+00
2.372134891811884305e+00
2.439449446089053009e+00
2.439449446089053009e+00
2.458012512588885201e+00
2.458012512588885201e+00
2.369697317423017147e+00
2.369697317423017147e+00
2.362572099978637485e+00
2.362572099978637485e+00
2.362572099978637485e+00
2.303695303201391820e+00
2.303695303201391820e+00
2.211254982146671821e+00
2.211254982146671821e+00
2.207504867702261730e+00
2.207504867702261730e+00
2.135315164647358710e+00
2.135315164647358710e+00
2.133252601702932960e+00
2.133252601702932960e+00
2.172816309091464060e+00
2.172816309091464060e+00
2.140377819147312621e+00
2.140377819147312621e+00
2.144877956480605530e+00
2.144877956480605530e+00
2.208067384868923178e+00
2.208067384868923178e+00
2.208067384868923178e+00
2.374384960478530537e+00
2.374384960478530537e+00
2.596016724143193066e+00
2.596016724143193066e+00
2.643830683309427609e+00
2.643830683309427609e+00
2.563390728476821145e+00
2.563390728476821145e+00
2.588704000976592479e+00
2.588704000976592479e+00
2.410761070589312105e+00
2.410761070589312105e+00
2.231130588702047834e+00
2.231130588702047834e+00
2.176191412091433186e+00
2.176191412091433186e+00
2.172253791924802613e+00
2.172253791924802613e+00
2.172253791924802613e+00
2.156503311258278099e+00
2.156503311258278099e+00
2.198129581591235393e+00
2.198129581591235393e+00
2.204879787591174090e+00
2.204879787591174090e+00
2.229630542924283532e+00
2.229630542924283532e+00
2.219505233924375265e+00
2.219505233924375265e+00
2.124627338480788552e+00
2.124627338480788552e+00
2.180879055146946577e+00
2.180879055146946577e+00
2.235255714590899334e+00
2.235255714590899334e+00
2.235255714590899334e+00
2.348134159367656792e+00
2.348134159367656792e+00
2.450137272255623166e+00
2.450137272255623166e+00
2.357884456923124095e+00
2.357884456923124095e+00
2.366884731589709023e+00
2.366884731589709023e+00
2.420323862422559369e+00
2.420323862422559369e+00
2.411698599200414961e+00
2.411698599200414961e+00
2.430074159978026671e+00
2.430074159978026671e+00
2.452012329477828434e+00
2.452012329477828434e+00
2.452012329477828434e+00
2.440386974700155864e+00
2.440386974700155864e+00
2.433449262977995797e+00
2.433449262977995797e+00
2.381135166478469234e+00
2.381135166478469234e+00
2.338758873256630455e+00
2.338758873256630455e+00
2.396698141422773265e+00
2.396698141422773265e+00
2.390322946867275089e+00
2.390322946867275089e+00
2.336321298867763296e+00
2.336321298867763296e+00
2.237505783257545566e+00
2.237505783257545566e+00
2.039124729148228621e+00
2.039124729148228621e+00
2.039124729148228621e+00
2.039312234870449103e+00
2.039312234870449103e+00
2.105876766258735877e+00
2.105876766258735877e+00
2.153315713980529011e+00
2.153315713980529011e+00
2.291694936979278285e+00
2.291694936979278285e+00
2.299195165868098911e+00
2.299195165868098911e+00
2.296195074312570750e+00
2.296195074312570750e+00
2.307820429090243319e+00
2.307820429090243319e+00
2.247256080813012868e+00
2.247256080813012868e+00
2.247256080813012868e+00
2.322633381145664977e+00
2.322633381145664977e+00
2.403073335978270997e+00
2.403073335978270997e+00
2.423886471144749422e+00
2.423886471144749422e+00
2.583266335032197158e+00
2.583266335032197158e+00
2.615517319254127671e+00
2.615517319254127671e+00
2.499263771477401086e+00
2.499263771477401086e+00
2.312508072145756710e+00
2.312508072145756710e+00
2.146753013702810797e+00
2.146753013702810797e+00
2.062000427259132795e+00
2.062000427259132795e+00
2.062000427259132795e+00
2.033687063203833301e+00
2.033687063203833301e+00
2.037999694814905283e+00
2.037999694814905283e+00
2.167566148869289222e+00
2.167566148869289222e+00
2.258506424146244473e+00
2.258506424146244473e+00
2.273506881923887057e+00
2.273506881923887057e+00
2.317758232367931104e+00
2.317758232367931104e+00
2.283444685201574842e+00
2.283444685201574842e+00
2.283444685201574842e+00
2.279882076479384789e+00
2.279882076479384789e+00
2.346446607867672007e+00
2.346446607867672007e+00
2.267506698812830290e+00
2.267506698812830290e+00
2.229068025757622085e+00
2.229068025757622085e+00
2.300882717368083696e+00
2.300882717368083696e+00
2.247068575090792386e+00
2.247068575090792386e+00
2.273319376201666131e+00
2.273319376201666131e+00
2.370447340311899076e+00
2.370447340311899076e+00
2.370447340311899076e+00
2.335946287423322332e+00
2.335946287423322332e+00
2.175066377758110736e+00
2.175066377758110736e+00
2.094251411481063307e+00
2.094251411481063307e+00
2.186129215369121415e+00
2.186129215369121415e+00
2.382447706534013054e+00
2.382447706534013054e+00
2.301257728812525105e+00
2.301257728812525105e+00
2.262631550035096417e+00
2.262631550035096417e+00
2.283069673757133433e+00
2.283069673757133433e+00
2.283069673757133433e+00
2.216505142368846659e+00
2.216505142368846659e+00
2.263006561479537382e+00
2.263006561479537382e+00
2.313820612201300086e+00
2.313820612201300086e+00
2.334446241645558029e+00
2.334446241645558029e+00
2.333696218756676100e+00
2.333696218756676100e+00
2.317570726645710621e+00
2.317570726645710621e+00
2.396135624256111374e+00
2.396135624256111374e+00
2.502263863032929692e+00
2.502263863032929692e+00
2.512389172032837958e+00
2.512389172032837958e+00
2.512389172032837958e+00
2.535264870143742133e+00
2.535264870143742133e+00
2.523639515366069563e+00
2.523639515366069563e+00
2.430824182866909045e+00
2.430824182866909045e+00
2.360134525589770327e+00
2.360134525589770327e+00
2.393698049867244659e+00
2.393698049867244659e+00
2.374759971922971058e+00
2.374759971922971058e+00
2.453512375255592737e+00
2.453512375255592737e+00
2.332571184423352761e+00
2.332571184423352761e+00
2.097626514481032878e+00
2.097626514481032878e+00
2.097626514481032878e+00
2.025811822870570822e+00
2.025811822870570822e+00
1.869619556260872173e+00
1.869619556260872173e+00
1.806617633594775230e+00
1.806617633594775230e+00
1.880869899594103778e+00
1.880869899594103778e+00
1.952872096926786094e+00
1.952872096926786094e+00
2.078875942258980203e+00
2.078875942258980203e+00
2.154440748313852350e+00
2.154440748313852350e+00
2.273319376201666131e+00
2.273319376201666131e+00
2.273319376201666131e+00
2.443012054811243061e+00
2.443012054811243061e+00
2.493826105533005766e+00
2.493826105533005766e+00
2.455012421033357040e+00
2.455012421033357040e+00
2.514264229255043226e+00
2.514264229255043226e+00
2.554390453810235773e+00
2.554390453810235773e+00
2.571078463087863142e+00
2.571078463087863142e+00
2.534889858699301168e+00
2.534889858699301168e+00
2.439636951811273491e+00
2.439636951811273491e+00
2.439636951811273491e+00
2.432511734366893830e+00
2.432511734366893830e+00
2.271444318979460864e+00
2.271444318979460864e+00
2.074563310647907777e+00
2.074563310647907777e+00
2.004998687704092397e+00
2.004998687704092397e+00
2.045499923703726353e+00
2.045499923703726353e+00
2.178441480758079862e+00
2.178441480758079862e+00
2.300507705923642732e+00
2.300507705923642732e+00
2.223255348368785356e+00
2.223255348368785356e+00
2.223255348368785356e+00
2.152003173924985191e+00
2.152003173924985191e+00
2.126502395702994264e+00
2.126502395702994264e+00
2.028811914426099428e+00
2.028811914426099428e+00
1.921558641315958216e+00
1.921558641315958216e+00
2.013623950926236805e+00
2.013623950926236805e+00
2.150315622425000850e+00
2.150315622425000850e+00
2.290382396923734465e+00
2.290382396923734465e+00
2.387135349589526001e+00
2.387135349589526001e+00
2.387135349589526001e+00
2.401948301644947659e+00
2.401948301644947659e+00
2.350384228034303025e+00
2.350384228034303025e+00
2.323008392590105942e+00
2.323008392590105942e+00
2.349634205145421095e+00
2.349634205145421095e+00
2.396698141422773265e+00
2.396698141422773265e+00
2.275944456312753772e+00
2.275944456312753772e+00
2.275569444868312807e+00
2.275569444868312807e+00
2.365384685811944721e+00
2.365384685811944721e+00
2.365384685811944721e+00
2.389010406811731269e+00
2.389010406811731269e+00
2.481825739310891787e+00
2.481825739310891787e+00
2.594704184087649246e+00
2.594704184087649246e+00
2.489138462477492819e+00
2.489138462477492819e+00
2.250443678090761956e+00
2.250443678090761956e+00
2.060125370036927084e+00
2.060125370036927084e+00
2.058437818536942299e+00
2.058437818536942299e+00
2.173378826258125951e+00
2.173378826258125951e+00
2.173378826258125951e+00
2.216317636646626177e+00
2.216317636646626177e+00
2.342321481978820064e+00
2.342321481978820064e+00
2.411886104922635443e+00
2.411886104922635443e+00
2.255693838312936794e+00
2.255693838312936794e+00
2.245568529313028083e+00
2.245568529313028083e+00
2.159128391369365740e+00
2.159128391369365740e+00
2.054875209814752690e+00
2.054875209814752690e+00
2.063875484481338063e+00
2.063875484481338063e+00
2.063875484481338063e+00
1.963372417371135548e+00
1.963372417371135548e+00
1.986623126926480909e+00
1.986623126926480909e+00
2.032937040314951371e+00
2.032937040314951371e+00
1.999186010315256334e+00
1.999186010315256334e+00
2.232443128757591655e+00
2.232443128757591655e+00
2.332196172978911797e+00
2.332196172978911797e+00
2.280257087923826198e+00
2.280257087923826198e+00
2.374947477645191540e+00
2.374947477645191540e+00
2.374947477645191540e+00
2.429324137089144742e+00
2.429324137089144742e+00
2.446762169255653596e+00
2.446762169255653596e+00
2.253631275368511044e+00
2.253631275368511044e+00
1.803055024872585177e+00
1.803055024872585177e+00
1.703301980651264813e+00
1.703301980651264813e+00
2.007248756370739073e+00
2.007248756370739073e+00
2.211067476424451339e+00
2.211067476424451339e+00
2.368384777367473326e+00
2.368384777367473326e+00
2.460637592699972398e+00
2.460637592699972398e+00
2.460637592699972398e+00
2.549515305032502344e+00
2.549515305032502344e+00
2.855337137974180983e+00
2.855337137974180983e+00
2.866024964140751585e+00
2.866024964140751585e+00
2.688082033753471656e+00
2.688082033753471656e+00
2.511826654866176511e+00
2.511826654866176511e+00
2.232443128757591655e+00
2.232443128757591655e+00
2.161190954313791490e+00
2.161190954313791490e+00
2.039312234870449103e+00
2.039312234870449103e+00
2.039312234870449103e+00
1.784491958372753206e+00
1.784491958372753206e+00
1.743990722373119473e+00
1.743990722373119473e+00
1.796492324594866963e+00
1.796492324594866963e+00
1.787679555650502072e+00
1.787679555650502072e+00
1.987185644093142578e+00
1.987185644093142578e+00
2.086563676870021755e+00
2.086563676870021755e+00
2.411323587755973996e+00
2.411323587755973996e+00
2.680956816309091550e+00
2.680956816309091550e+00
2.680956816309091550e+00
2.565828302865687860e+00
2.565828302865687860e+00
2.330508621478927012e+00
2.330508621478927012e+00
2.325445966978973100e+00
2.325445966978973100e+00
2.350571733756523507e+00
2.350571733756523507e+00
2.463450178533280521e+00
2.463450178533280521e+00
2.414511185033723084e+00
2.414511185033723084e+00
2.471325418866542556e+00
2.471325418866542556e+00
2.519701895199438546e+00
2.519701895199438546e+00
2.407573473311563461e+00
2.407573473311563461e+00
2.407573473311563461e+00
2.310258003479110034e+00
2.310258003479110034e+00
2.168691183202612560e+00
2.168691183202612560e+00
1.858744224372081755e+00
1.858744224372081755e+00
1.707989623706778204e+00
1.707989623706778204e+00
1.854056581316568586e+00
1.854056581316568586e+00
2.106814294869838289e+00
2.106814294869838289e+00
2.337071321756645670e+00
2.337071321756645670e+00
2.337071321756645670e+00
2.500763817255165389e+00
2.500763817255165389e+00
2.472450453199865894e+00
2.472450453199865894e+00
2.331446150090029423e+00
2.331446150090029423e+00
2.268069215979491737e+00
2.268069215979491737e+00
2.245756035035248566e+00
2.245756035035248566e+00
2.265069124423963132e+00
2.265069124423963132e+00
2.224942899868770141e+00
2.224942899868770141e+00
2.192879421369060555e+00
2.192879421369060555e+00
2.067063081759087151e+00
2.067063081759087151e+00
2.067063081759087151e+00
1.901308023316141238e+00
1.901308023316141238e+00
1.907870723593859896e+00
1.907870723593859896e+00
1.838118594927823590e+00
1.838118594927823590e+00
1.877682302316354912e+00
1.877682302316354912e+00
1.922496169927060850e+00
1.922496169927060850e+00
1.993935850093081497e+00
1.993935850093081497e+00
2.256631366924039650e+00
2.256631366924039650e+00
2.449387249366740793e+00
2.449387249366740793e+00
2.449387249366740793e+00
2.634642902920621310e+00
2.634642902920621310e+00
2.817648487807855595e+00
2.817648487807855595e+00
2.573703543198950339e+00
2.573703543198950339e+00
2.276131962034974254e+00
2.276131962034974254e+00
2.328071047090059853e+00
2.328071047090059853e+00
2.421261391033662225e+00
2.421261391033662225e+00
2.602204412976470316e+00
2.602204412976470316e+00
2.654706015198217806e+00
2.654706015198217806e+00
2.654706015198217806e+00
2.698019837031159440e+00
2.698019837031159440e+00
2.756146610919522733e+00
2.756146610919522733e+00
2.748458876308481180e+00
2.748458876308481180e+00
2.268819238868374111e+00
2.268819238868374111e+00
1.965809991760002484e+00
1.965809991760002484e+00
1.736865504928739368e+00
1.736865504928739368e+00
1.788617084261604706e+00
1.788617084261604706e+00
1.878807336649678250e+00
1.878807336649678250e+00
1.878807336649678250e+00
1.788429578539384224e+00
1.788429578539384224e+00
1.818055482650227317e+00
1.818055482650227317e+00
1.977810357982116241e+00
1.977810357982116241e+00
2.035937131870479533e+00
2.035937131870479533e+00
2.460075075533310951e+00
2.460075075533310951e+00
2.784834986419263192e+00
2.784834986419263192e+00
2.735145970030823825e+00
2.735145970030823825e+00
2.697832331308938958e+00
2.697832331308938958e+00
2.697832331308938958e+00
2.694082216864528423e+00
2.694082216864528423e+00
2.383197729422894984e+00
2.383197729422894984e+00
2.529077181310464884e+00
2.529077181310464884e+00
2.703082491531113352e+00
2.703082491531113352e+00
2.232630634479812137e+00
2.232630634479812137e+00
1.812430310983611736e+00
1.812430310983611736e+00
1.414730674153874324e+00
1.414730674153874324e+00
1.218787194433423871e+00
1.218787194433423871e+00
1.197224036378063294e+00
1.197224036378063294e+00
1.197224036378063294e+00
1.203786736655781731e+00
1.203786736655781731e+00
1.312165044099246280e+00
1.312165044099246280e+00
1.456169438764610913e+00
1.456169438764610913e+00
1.716427381206701908e+00
1.716427381206701908e+00
2.194191961424603932e+00
2.194191961424603932e+00
2.796647846919156244e+00
2.796647846919156244e+00
2.872775170140690282e+00
2.872775170140690282e+00
2.872775170140690282e+00
2.550265327921384717e+00
2.550265327921384717e+00
2.047937498092593067e+00
2.047937498092593067e+00
1.803242530594805659e+00
1.803242530594805659e+00
2.023186742759483625e+00
2.023186742759483625e+00
2.385260292367321178e+00
2.385260292367321178e+00
2.926964323862422557e+00
2.926964323862422557e+00
3.121595263527329411e+00
3.121595263527329411e+00
3.262412060914944956e+00
3.262412060914944956e+00
3.262412060914944956e+00
3.540483046967985992e+00
3.540483046967985992e+00
3.460043092135380416e+00
3.460043092135380416e+00
3.162096499526962923e+00
3.162096499526962923e+00
2.882900479140598993e+00
2.882900479140598993e+00
2.257006378368480615e+00
2.257006378368480615e+00
1.933559007538071750e+00
1.933559007538071750e+00
1.888932645649586517e+00
1.888932645649586517e+00
1.947059419537949809e+00
1.947059419537949809e+00
1.947059419537949809e+00
2.139815301980651618e+00
2.139815301980651618e+00
2.039687246314890068e+00
2.039687246314890068e+00
1.671238502151555005e+00
1.671238502151555005e+00
1.195161473433637545e+00
1.195161473433637545e+00
8.321503952146976912e-01
8.321503952146976912e-01
1.219537217322306022e+00
1.219537217322306022e+00
1.622862025818659015e+00
1.622862025818659015e+00
1.518608844264046187e+00
1.518608844264046187e+00
1.518608844264046187e+00
1.554984954374828421e+00
1.554984954374828421e+00
1.330540604876857769e+00
1.330540604876857769e+00
7.811488387707145042e-01
7.811488387707145042e-01
1.295477034821619355e+00
1.295477034821619355e+00
2.215005096591082356e+00
2.215005096591082356e+00
3.042655354472487694e+00
3.042655354472487694e+00
3.662174260689108340e+00
3.662174260689108340e+00
3.812553849909970705e+00
3.812553849909970705e+00
3.812553849909970705e+00
3.812553849909970705e+00
3.812553849909970705e+00
3.842929776909695505e+00
3.842929776909695505e+00
3.684862453077792033e+00
3.684862453077792033e+00
3.004779198583941380e+00
3.004779198583941380e+00
2.456137455366679934e+00
2.456137455366679934e+00
2.278007019257179522e+00
2.278007019257179522e+00
2.170753746147038310e+00
2.170753746147038310e+00
2.170753746147038310e+00
1.969372600482192537e+00
1.969372600482192537e+00
1.759553697317423060e+00
1.759553697317423060e+00
2.037437177648243392e+00
2.037437177648243392e+00
2.128377452925199087e+00
2.128377452925199087e+00
2.209567430646687480e+00
2.209567430646687480e+00
2.522139469588305261e+00
2.522139469588305261e+00
2.434199285866878171e+00
2.434199285866878171e+00
2.136065187536240639e+00
2.136065187536240639e+00
1.992060792870876229e+00
1.992060792870876229e+00
2.206192327646717910e+00
2.206192327646717910e+00
2.206192327646717910e+00
2.478450636310922661e+00
2.478450636310922661e+00
2.218380199591051927e+00
2.218380199591051927e+00
1.927183812982574018e+00
1.927183812982574018e+00
1.698426831873531162e+00
1.698426831873531162e+00
1.181286049989318743e+00
1.181286049989318743e+00
9.540291146580401893e-01
9.540291146580401893e-01
8.248376720480972146e-01
8.248376720480972146e-01
7.623982665486618293e-01
7.623982665486618293e-01
7.623982665486618293e-01
1.197974059266945446e+00
1.197974059266945446e+00
1.929808893093661437e+00
1.929808893093661437e+00
2.395760612811670409e+00
2.395760612811670409e+00
2.730270821253089952e+00
2.730270821253089952e+00
2.665206335642567481e+00
2.665206335642567481e+00
2.419761345255897922e+00
2.419761345255897922e+00
2.765709402752769552e+00
2.765709402752769552e+00
2.765709402752769552e+00
2.935777092806787447e+00
2.935777092806787447e+00
3.048093020416883014e+00
3.048093020416883014e+00
2.847274391918698466e+00
2.847274391918698466e+00
2.591329081087679675e+00
2.591329081087679675e+00
2.583266335032197158e+00
2.583266335032197158e+00
2.573516037476729856e+00
2.573516037476729856e+00
2.237693288979766049e+00
2.237693288979766049e+00
2.311570543534653854e+00
2.311570543534653854e+00
2.534327341532639721e+00
2.534327341532639721e+00
2.534327341532639721e+00
2.823648670918912362e+00
2.823648670918912362e+00
2.867712515640735926e+00
2.867712515640735926e+00
2.878775353251747049e+00
2.878775353251747049e+00
2.557015533921323414e+00
2.557015533921323414e+00
1.894557817316202319e+00
1.894557817316202319e+00
1.353791314432203130e+00
1.353791314432203130e+00
1.442856532486953336e+00
1.442856532486953336e+00
1.782991912594988904e+00
1.782991912594988904e+00
2.076438367870113488e+00
2.076438367870113488e+00
2.701957457197790902e+00
2.701957457197790902e+00
3.178972014526810774e+00
3.178972014526810774e+00
3.150471144749290353e+00
3.150471144749290353e+00
2.560765648365733949e+00
2.560765648365733949e+00
2.560765648365733949e+00
1.836243537705618545e+00
1.836243537705618545e+00
1.842993743705557463e+00
1.842993743705557463e+00
2.391447981200597983e+00
2.391447981200597983e+00
2.619267433698538206e+00
2.619267433698538206e+00
2.454824915311136557e+00
2.454824915311136557e+00
2.160628437147130043e+00
2.160628437147130043e+00
1.756366100039673972e+00
1.756366100039673972e+00
1.613111728263191713e+00
1.613111728263191713e+00
1.613111728263191713e+00
1.498733237708670174e+00
1.498733237708670174e+00
1.304477309488204506e+00
1.304477309488204506e+00
1.473419965208899285e+00
1.473419965208899285e+00
1.498920743430890878e+00
1.498920743430890878e+00
2.019624134037293572e+00
2.676456678975799086e+00
2.676456678975799086e+00
2.514826746421705117e+00
2.514826746421705117e+00
2.514826746421705117e+00
2.112439466536454535e+00
2.112439466536454535e+00
1.967310037537766565e+00
1.967310037537766565e+00
2.069313150425733383e+00
2.069313150425733383e+00
2.162691000091555793e+00
2.162691000091555793e+00
2.409073519089327764e+00
2.409073519089327764e+00
2.531702261421552080e+00
2.531702261421552080e+00
2.632580339976195560e+00
2.632580339976195560e+00
2.678894253364665801e+00
2.678894253364665801e+00
2.678894253364665801e+00
2.620579973754082026e+00
2.620579973754082026e+00
2.846336863307596055e+00
2.846336863307596055e+00
3.377353068636127720e+00
3.377353068636127720e+00
3.706800622577593352e+00
3.706800622577593352e+00
3.532795312356944883e+00
3.532795312356944883e+00
2.812023316141239793e+00
2.812023316141239793e+00
2.130440015869624837e+00
2.130440015869624837e+00
1.769866512039552031e+00
1.769866512039552031e+00
2.022061708426160731e+00
2.022061708426160731e+00
2.022061708426160731e+00
2.144690450758385047e+00
2.144690450758385047e+00
1.887995117038483883e+00
1.887995117038483883e+00
1.540734519486068210e+00
1.540734519486068210e+00
1.818430494094668504e+00
1.818430494094668504e+00
2.005373699148533806e+00
2.005373699148533806e+00
2.038937223426007694e+00
2.038937223426007694e+00
2.174878872035889810e+00
2.174878872035889810e+00
2.174878872035889810e+00
2.235068208868678852e+00
1.864744407483138522e+00
1.864744407483138522e+00
1.659988158818323400e+00
1.659988158818323400e+00
1.503608386486404047e+00
1.503608386486404047e+00
1.643112643818475993e+00
1.643112643818475993e+00
1.941809259315775193e+00
1.941809259315775193e+00
1.941809259315775193e+00
2.199442121646778769e+00
2.199442121646778769e+00
2.643455671864986201e+00
2.643455671864986201e+00
2.921714163640248163e+00
2.921714163640248163e+00
2.930526932584612609e+00
2.930526932584612609e+00
3.199972655415509681e+00
3.199972655415509681e+00
3.053343180639057852e+00
3.053343180639057852e+00
2.767209448530533855e+00
2.767209448530533855e+00
2.418073793755913137e+00
2.418073793755913137e+00
2.418073793755913137e+00
1.829868343150120591e+00
1.829868343150120591e+00
1.387354838709677463e+00
1.387354838709677463e+00
1.326040467543565304e+00
1.326040467543565304e+00
1.916120975371562896e+00
1.916120975371562896e+00
2.472262947477644968e+00
2.472262947477644968e+00
2.325633472701193583e+00
2.325633472701193583e+00
2.116752098147526517e+00
2.116752098147526517e+00
2.116752098147526517e+00
2.549327799310281861e+00
2.549327799310281861e+00
2.650018372142704415e+00
2.650018372142704415e+00
2.642893154698324754e+00
2.642893154698324754e+00
2.812210821863460275e+00
2.812210821863460275e+00
2.773959654530472552e+00
2.773959654530472552e+00
2.704957548753318619e+00
2.704957548753318619e+00
2.567890865810114054e+00
2.567890865810114054e+00
2.556453016754661967e+00
2.556453016754661967e+00
2.559265602587969646e+00
2.559265602587969646e+00
2.098189031647694325e+00
2.098189031647694325e+00
2.089188756981108952e+00
2.089188756981108952e+00
2.393323038422803695e+00
2.393323038422803695e+00
2.341008941923276243e+00
2.341008941923276243e+00
2.031812005981628033e+00
2.031812005981628033e+00
2.088251228370006540e+00
2.088251228370006540e+00
2.192879421369060555e+00
2.192879421369060555e+00
2.192879421369060555e+00
1.879369853816339475e+00
1.879369853816339475e+00
1.228349986266670690e+00
1.228349986266670690e+00
1.366916714987640002e+00
1.366916714987640002e+00
1.951372051149021791e+00
1.951372051149021791e+00
2.225505417035432032e+00
2.225505417035432032e+00
2.678519241920224836e+00
2.678519241920224836e+00
3.205222815637684519e+00
3.205222815637684519e+00
3.341164464247566190e+00
3.341164464247566190e+00
3.049780571916867800e+00
3.049780571916867800e+00
2.585703909421063873e+00
2.585703909421063873e+00
2.152003173924985191e+00
2.152003173924985191e+00
1.848243903927732301e+00
1.848243903927732301e+00
1.848243903927732301e+00
1.506608478041932431e+00
1.506608478041932431e+00
1.394105044709616381e+00
1.394105044709616381e+00
1.305414838099307140e+00
1.305414838099307140e+00
1.671050996429334523e+00
1.671050996429334523e+00
2.480700704977568893e+00
2.480700704977568893e+00
2.768521988586077676e+00
2.768521988586077676e+00
2.531327249977111116e+00
2.531327249977111116e+00
2.430449171422468080e+00
2.430449171422468080e+00
2.430449171422468080e+00
2.573516037476729856e+00
2.573516037476729856e+00
3.004029175695059006e+00
3.004029175695059006e+00
3.070031189916684333e+00
3.070031189916684333e+00
2.766084414197210517e+00
2.766084414197210517e+00
2.875025238807336958e+00
2.875025238807336958e+00
2.496638691366313889e+00
2.496638691366313889e+00
1.931683950315866705e+00
1.931683950315866705e+00
2.253818781090731527e+00
2.253818781090731527e+00
2.253818781090731527e+00
2.943839838862269964e+00
2.943839838862269964e+00
2.794585283974730938e+00
2.794585283974730938e+00
2.004061159092989985e+00
2.004061159092989985e+00
1.092033326212347832e+00
1.092033326212347832e+00
1.035781609546189808e+00
1.035781609546189808e+00
1.376479506820886822e+00
1.376479506820886822e+00
1.702551957762383106e+00
1.702551957762383106e+00
2.233005645924253102e+00
2.233005645924253102e+00
2.491388531144139051e+00
2.491388531144139051e+00
2.491388531144139051e+00
2.500013794366283459e+00
2.500013794366283459e+00
2.932401989806817877e+00
2.932401989806817877e+00
3.112594988860744483e+00
3.112594988860744483e+00
2.745083773308511610e+00
2.745083773308511610e+00
2.739646107364116290e+00
2.739646107364116290e+00
2.761396771141697126e+00
2.761396771141697126e+00
2.413948667867061193e+00
2.413948667867061193e+00
2.025061799981688893e+00
2.025061799981688893e+00
2.025061799981688893e+00
1.806242622150334265e+00
1.806242622150334265e+00
2.008186284981841485e+00
2.008186284981841485e+00
2.480513199255348411e+00
2.480513199255348411e+00
2.736833521530808611e+00
2.736833521530808611e+00
2.710770226142155348e+00
2.710770226142155348e+00
2.592829126865443978e+00
2.592829126865443978e+00
2.507889034699545494e+00
2.507889034699545494e+00
2.475638050477614982e+00
2.475638050477614982e+00
1.788429578539384224e+00
1.788429578539384224e+00
1.788429578539384224e+00
1.510733603930783930e+00
1.510733603930783930e+00
1.895870357371746140e+00
1.895870357371746140e+00
2.123127292703024249e+00
2.123127292703024249e+00
2.637455488753929433e+00
2.637455488753929433e+00
2.825336222418897147e+00
2.825336222418897147e+00
2.961090365306558336e+00
2.961090365306558336e+00
2.678519241920224836e+00
2.678519241920224836e+00
2.149565599536118921e+00
2.149565599536118921e+00
2.149565599536118921e+00
1.984185552537614194e+00
1.984185552537614194e+00
2.299382671590319838e+00
2.299382671590319838e+00
2.223817865535447247e+00
2.223817865535447247e+00
2.068563127536851454e+00
2.068563127536851454e+00
2.149565599536118921e+00
2.149565599536118921e+00
2.087876216925565576e+00
2.087876216925565576e+00
2.034437086092715230e+00
2.034437086092715230e+00
2.018686605426191161e+00
2.018686605426191161e+00
2.018686605426191161e+00
1.763116306039613113e+00
1.763116306039613113e+00
1.707802117984557722e+00
1.707802117984557722e+00
1.779804315317239816e+00
1.779804315317239816e+00
1.968060060426648716e+00
1.968060060426648716e+00
2.445637134922330258e+00
2.914963957640308578e+00
2.914963957640308578e+00
3.116157597582934091e+00
3.116157597582934091e+00
2.739458601641895807e+00
2.739458601641895807e+00
2.392385509811700839e+00
2.392385509811700839e+00
2.250818689535202921e+00
2.250818689535202921e+00
2.348321665089877275e+00
2.348321665089877275e+00
2.583453840754417641e+00
2.583453840754417641e+00
2.583453840754417641e+00
2.676269173253578604e+00
2.676269173253578604e+00
2.720333017975402168e+00
2.720333017975402168e+00
2.479013153477584552e+00
2.479013153477584552e+00
2.655268532364879697e+00
2.655268532364879697e+00
2.637080477309488025e+00
2.637080477309488025e+00
2.292257454145939732e+00
2.292257454145939732e+00
2.306507889034699499e+00
2.306507889034699499e+00
2.037249671926022909e+00
2.037249671926022909e+00
1.843181249427778168e+00
1.843181249427778168e+00
1.843181249427778168e+00
1.905058137760551773e+00
1.905058137760551773e+00
1.859494247260963906e+00
1.859494247260963906e+00
1.944996856593524059e+00
1.944996856593524059e+00
1.707427106540116757e+00
1.707427106540116757e+00
1.712864772484511855e+00
1.712864772484511855e+00
2.000498550370799933e+00
2.000498550370799933e+00
2.111314432203131197e+00
2.111314432203131197e+00
2.377197546311838217e+00
2.377197546311838217e+00
2.377197546311838217e+00
2.795897824030274759e+00
2.795897824030274759e+00
2.991466292306284025e+00
2.991466292306284025e+00
2.835836542863246379e+00
2.835836542863246379e+00
2.638955534531693736e+00
2.638955534531693736e+00
2.723895626697592220e+00
2.723895626697592220e+00
2.574078554643390859e+00
2.574078554643390859e+00
1.864931913205359004e+00
1.864931913205359004e+00
1.608986602374340213e+00
1.608986602374340213e+00
1.608986602374340213e+00
1.697114291817987786e+00
1.697114291817987786e+00
1.938621662038026106e+00
1.938621662038026106e+00
2.253818781090731527e+00
2.253818781090731527e+00
2.438886928922391562e+00
2.438886928922391562e+00
2.455762443922238969e+00
2.455762443922238969e+00
2.540140018921475562e+00
2.540140018921475562e+00
2.902213568529312671e+00
2.902213568529312671e+00
2.885525559251686190e+00
2.885525559251686190e+00
2.885525559251686190e+00
2.635580431531724166e+00
2.635580431531724166e+00
2.521014435254982367e+00
2.521014435254982367e+00
2.532827295754875419e+00
2.532827295754875419e+00
2.761209265419477088e+00
2.761209265419477088e+00
3.009841853083895291e+00
3.009841853083895291e+00
2.987716177861873046e+00
2.987716177861873046e+00
2.790647663808099477e+00
2.790647663808099477e+00
2.236755760368663637e+00
2.236755760368663637e+00
2.236755760368663637e+00
1.809805230872524096e+00
1.809805230872524096e+00
1.420918362987151795e+00
1.420918362987151795e+00
1.198536576433607115e+00
1.198536576433607115e+00
1.262288521988586210e+00
1.262288521988586210e+00
1.329415570543534653e+00
1.329415570543534653e+00
1.435168797875911784e+00
1.435168797875911784e+00
2.036687154759361462e+00
2.036687154759361462e+00
2.822711142307809506e+00
2.822711142307809506e+00
2.793460249641407600e+00
2.793460249641407600e+00
2.365384685811944721e+00
2.365384685811944721e+00
2.480513199255348411e+00
2.480513199255348411e+00
3.021092196417126896e+00
3.021092196417126896e+00
3.021092196417126896e+00
3.111469954527421145e+00
3.111469954527421145e+00
3.193034943693350058e+00
3.193034943693350058e+00
3.362727622302926545e+00
3.362727622302926545e+00
2.929589403973509754e+00
2.929589403973509754e+00
2.358634479812006024e+00
2.358634479812006024e+00
2.097814020203253360e+00
2.097814020203253360e+00
1.862119327372051103e+00
1.862119327372051103e+00
1.800804956205938945e+00
1.800804956205938945e+00
1.800804956205938945e+00
1.853869075594348104e+00
1.853869075594348104e+00
2.075500839259010633e+00
2.075500839259010633e+00
2.177691457869197489e+00
2.177691457869197489e+00
2.232630634479812137e+00
2.232630634479812137e+00
2.246131046479689974e+00
2.246131046479689974e+00
2.377197546311838217e+00
2.377197546311838217e+00
2.404573381756035300e+00
2.404573381756035300e+00
2.313070589312418157e+00
2.313070589312418157e+00
2.313070589312418157e+00
2.173566331980346433e+00
2.173566331980346433e+00
2.054875209814752690e+00
2.054875209814752690e+00
1.904120609149449139e+00
1.904120609149449139e+00
1.937309121982482507e+00
1.937309121982482507e+00
2.229818048646504014e+00
2.229818048646504014e+00
2.164941068758201581e+00
2.164941068758201581e+00
2.348696676534318240e+00
2.348696676534318240e+00
2.696332285531174655e+00
2.696332285531174655e+00
2.748458876308481180e+00
2.748458876308481180e+00
2.401760795922727176e+00
2.401760795922727176e+00
2.213505050813318054e+00
2.213505050813318054e+00
2.076438367870113488e+00
2.076438367870113488e+00
1.912370860927152361e+00
1.912370860927152361e+00
1.736677999206518885e+00
1.736677999206518885e+00
1.890807702871791562e+00
1.890807702871791562e+00
1.932996490371410303e+00
1.932996490371410303e+00
2.363697134311959935e+00
2.363697134311959935e+00
2.363697134311959935e+00
2.895838373973815383e+00
2.895838373973815383e+00
3.112594988860744483e+00
3.112594988860744483e+00
2.734583452864162378e+00
2.734583452864162378e+00
2.338946378978850937e+00
2.338946378978850937e+00
2.427636585589159957e+00
2.427636585589159957e+00
2.745083773308511610e+00
2.745083773308511610e+00
2.695207251197851317e+00
2.695207251197851317e+00
2.446387157811212187e+00
2.446387157811212187e+00
2.446387157811212187e+00
2.373822443311869090e+00
2.373822443311869090e+00
2.524764549699392902e+00
2.524764549699392902e+00
2.600329355754265048e+00
2.600329355754265048e+00
2.462325144199957183e+00
2.462325144199957183e+00
2.218380199591051927e+00
2.218380199591051927e+00
2.110751915036469750e+00
2.110751915036469750e+00
1.834555986205633760e+00
1.834555986205633760e+00
1.834930997650074724e+00
1.834930997650074724e+00
1.834930997650074724e+00
2.080750999481185470e+00
2.080750999481185470e+00
2.209004913480026033e+00
2.209004913480026033e+00
2.264131595812860720e+00
2.264131595812860720e+00
2.075688344981231115e+00
2.075688344981231115e+00
2.022624225592822178e+00
2.022624225592822178e+00
2.359009491256446989e+00
2.359009491256446989e+00
2.581391277809991891e+00
2.581391277809991891e+00
2.573516037476729856e+00
2.573516037476729856e+00
2.573516037476729856e+00
2.354134342478713116e+00
2.354134342478713116e+00
2.148253059480575100e+00
2.148253059480575100e+00
2.332946195867793726e+00
2.332946195867793726e+00
2.595266701254311137e+00
2.595266701254311137e+00
2.464950224311044824e+00
2.464950224311044824e+00
2.302382763145847999e+00
2.302382763145847999e+00
2.300320200201422249e+00
2.300320200201422249e+00
2.317195715201269657e+00
2.317195715201269657e+00
2.317195715201269657e+00
2.484263313699758946e+00
2.484263313699758946e+00
2.473200476088747823e+00
2.473200476088747823e+00
2.149003082369457029e+00
2.149003082369457029e+00
2.033499557481612818e+00
2.033499557481612818e+00
2.038937223426007694e+00
2.038937223426007694e+00
1.759178685872982095e+00
1.759178685872982095e+00
1.499483260597552325e+00
1.499483260597552325e+00
1.129346964934232478e+00
1.129346964934232478e+00
1.129346964934232478e+00
1.253850764488662284e+00
1.253850764488662284e+00
1.755616077150792043e+00
1.755616077150792043e+00
2.443949583422345917e+00
2.443949583422345917e+00
3.225285927915280570e+00
3.225285927915280570e+00
3.744301767021698701e+00
3.744301767021698701e+00
3.820804101687673704e+00
3.820804101687673704e+00
3.665549363689077467e+00
3.665549363689077467e+00
3.165846613971373902e+00
3.165846613971373902e+00
2.727645741142002311e+00
2.727645741142002311e+00
2.655268532364879697e+00
2.655268532364879697e+00
2.655268532364879697e+00
2.393135532700583212e+00
2.393135532700583212e+00
2.141127842036194995e+00
2.141127842036194995e+00
2.250818689535202921e+00
2.250818689535202921e+00
2.458762535477767130e+00
2.458762535477767130e+00
2.532077272865993045e+00
2.532077272865993045e+00
2.196817041535691573e+00
2.196817041535691573e+00
2.020749168370616911e+00
2.020749168370616911e+00
2.028436902981658463e+00
2.028436902981658463e+00
2.028436902981658463e+00
2.004248664815210468e+00
2.004248664815210468e+00
2.079813470870083059e+00
2.079813470870083059e+00
2.273881893368328022e+00
2.273881893368328022e+00
2.246506057924130939e+00
2.246506057924130939e+00
2.149753105258339403e+00
2.149753105258339403e+00
2.096876491592150504e+00
2.096876491592150504e+00
2.066688070314646186e+00
2.066688070314646186e+00
2.385822809533982625e+00
2.385822809533982625e+00
2.385822809533982625e+00
2.503013885921811621e+00
2.503013885921811621e+00
2.425574022644734207e+00
2.425574022644734207e+00
2.486700888088625661e+00
2.486700888088625661e+00
2.484825830866420393e+00
2.484825830866420393e+00
1.997310953093050845e+00
1.997310953093050845e+00
1.255725821710867773e+00
9.887176732688376379e-01
9.887176732688376379e-01
9.887176732688376379e-01
1.164598040711691596e+00
1.164598040711691596e+00
1.322852870265816216e+00
1.322852870265816216e+00
1.784491958372753206e+00
1.784491958372753206e+00
2.608579607531968492e+00
2.608579607531968492e+00
3.052218146305734514e+00
3.052218146305734514e+00
3.272912381359294631e+00
3.272912381359294631e+00
3.468855861079744862e+00
3.468855861079744862e+00
3.445417645802179241e+00
3.445417645802179241e+00
3.077343913083285365e+00
3.077343913083285365e+00
3.077343913083285365e+00
2.503951414532914033e+00
2.503951414532914033e+00
2.092751365703299449e+00
2.092751365703299449e+00
1.984373058259834677e+00
1.984373058259834677e+00
2.030124454481643248e+00
2.030124454481643248e+00
2.091813837092196593e+00
2.091813837092196593e+00
2.377760063478499664e+00
2.377760063478499664e+00
2.567140842921231680e+00
2.567140842921231680e+00
2.779772331919309281e+00
2.779772331919309281e+00
2.893213293862727742e+00
2.893213293862727742e+00
2.827961302529984788e+00
2.827961302529984788e+00
2.827961302529984788e+00
2.682456862086855853e+00
2.682456862086855853e+00
2.689019562364574512e+00
2.689019562364574512e+00
2.673644093142490963e+00
2.673644093142490963e+00
2.359384502700888397e+00
2.359384502700888397e+00
1.856681661427655783e+00
1.856681661427655783e+00
1.586673421430097264e+00
1.586673421430097264e+00
1.763303811761833595e+00
1.763303811761833595e+00
2.018686605426191161e+00
2.018686605426191161e+00
2.018686605426191161e+00
2.155190771202734279e+00
2.155190771202734279e+00
2.008936307870723859e+00
2.008936307870723859e+00
2.050750083925901190e+00
2.050750083925901190e+00
2.258693929868464956e+00
2.258693929868464956e+00
2.189879329813531950e+00
2.189879329813531950e+00
2.146190496536149350e+00
2.146190496536149350e+00
2.381322672200689716e+00
2.381322672200689716e+00
2.796647846919156244e+00
2.796647846919156244e+00
2.796647846919156244e+00
2.623392559587389705e+00
2.623392559587389705e+00
2.427824091311380439e+00
2.427824091311380439e+00
2.129689992980742907e+00
2.129689992980742907e+00
1.839056123538926224e+00
1.839056123538926224e+00
1.651925412762840661e+00
1.651925412762840661e+00
1.832305917538987305e+00
1.832305917538987305e+00
2.401010773033844803e+00
2.401010773033844803e+00
2.779959837641529763e+00
2.779959837641529763e+00
2.779959837641529763e+00
2.788772606585894209e+00
2.788772606585894209e+00
2.566203314310129269e+00
2.566203314310129269e+00
2.494013611255226248e+00
2.494013611255226248e+00
2.478825647755364070e+00
2.478825647755364070e+00
2.357321939756462204e+00
2.357321939756462204e+00
2.260568987090670667e+00
2.260568987090670667e+00
2.098564043092135289e+00
2.098564043092135289e+00
2.074938322092349186e+00
2.074938322092349186e+00
2.267131687368389326e+00
2.267131687368389326e+00
2.267131687368389326e+00
2.598829309976500745e+00
2.598829309976500745e+00
2.910651326029237040e+00
2.910651326029237040e+00
2.880462904751731834e+00
2.880462904751731834e+00
2.613829767754142885e+00
2.613829767754142885e+00
2.470762901699881109e+00
2.470762901699881109e+00
2.474513016144291644e+00
2.474513016144291644e+00
2.520264412366099993e+00
2.520264412366099993e+00
2.424448988311410869e+00
2.424448988311410869e+00
2.368947294534135217e+00
2.368947294534135217e+00
2.368947294534135217e+00
2.473200476088747823e+00
2.473200476088747823e+00
2.289257362590411127e+00
2.289257362590411127e+00
2.132502578814050587e+00
2.132502578814050587e+00
2.068750633259071936e+00
2.068750633259071936e+00
1.990185735648670962e+00
1.990185735648670962e+00
2.078313425092318756e+00
2.078313425092318756e+00
2.064813013092440475e+00
2.064813013092440475e+00
2.047937498092593067e+00
2.047937498092593067e+00
2.047937498092593067e+00
2.020561662648396428e+00
2.020561662648396428e+00
2.046062440870388244e+00
2.046062440870388244e+00
2.029186925870540392e+00
2.029186925870540392e+00
2.011186376537369647e+00
2.011186376537369647e+00
2.166816125980407293e+00
2.166816125980407293e+00
2.238255806146427940e+00
2.238255806146427940e+00
2.413386150700399746e+00
2.413386150700399746e+00
2.413386150700399746e+00
2.367447248756370914e+00
2.367447248756370914e+00
2.497201208532975336e+00
2.497201208532975336e+00
2.681519333475752997e+00
2.681519333475752997e+00
2.706457594531082922e+00
2.706457594531082922e+00
2.515576769310586602e+00
2.515576769310586602e+00
2.486513382366405178e+00
2.486513382366405178e+00
2.141877864925076924e+00
2.141877864925076924e+00
1.857806695760979121e+00
1.857806695760979121e+00
2.009311319315164823e+00
2.009311319315164823e+00
2.534514847254860204e+00
2.534514847254860204e+00
2.780147343363750245e+00
2.780147343363750245e+00
2.479575670644245999e+00
2.479575670644245999e+00
2.317383220923490139e+00
2.317383220923490139e+00
2.407385967589342979e+00
2.407385967589342979e+00
2.407385967589342979e+00
2.475825556199835464e+00
2.475825556199835464e+00
2.416573747978148834e+00
2.416573747978148834e+00
2.264319101535081202e+00
2.264319101535081202e+00
2.098751548814355772e+00
2.098751548814355772e+00
2.264506607257301685e+00
2.264506607257301685e+00
2.500201300088503942e+00
2.500201300088503942e+00
2.593579149754326352e+00
2.593579149754326352e+00
2.725583178197577006e+00
2.725583178197577006e+00
2.725583178197577006e+00
2.676081667531358121e+00
2.676081667531358121e+00
2.479013153477584552e+00
2.479013153477584552e+00
2.283632190923795324e+00
2.283632190923795324e+00
2.095563951536606684e+00
2.095563951536606684e+00
1.990373241370891666e+00
1.990373241370891666e+00
2.025436811426129857e+00
2.025436811426129857e+00
2.028811914426099428e+00
2.028811914426099428e+00
2.074375804925687294e+00
2.074375804925687294e+00
2.074375804925687294e+00
2.129127475814081016e+00
2.129127475814081016e+00
2.349821710867641578e+00
2.349821710867641578e+00
2.389197912533951751e+00
2.389197912533951751e+00
2.137377727591784460e+00
2.137377727591784460e+00
2.232630634479812137e+00
2.232630634479812137e+00
2.371384868923001932e+00
2.371384868923001932e+00
2.328258552812280335e+00
2.328258552812280335e+00
2.296757591479232197e+00
2.296757591479232197e+00
2.296757591479232197e+00
2.173566331980346433e+00
2.173566331980346433e+00
2.162315988647114828e+00
2.162315988647114828e+00
2.496826197088534371e+00
2.496826197088534371e+00
2.666893887142552266e+00
2.666893887142552266e+00
2.473012970366527341e+00
2.473012970366527341e+00
2.241818414868617992e+00
2.241818414868617992e+00
2.371572374645222414e+00
2.371572374645222414e+00
2.712645283364360616e+00
2.712645283364360616e+00
2.712645283364360616e+00
2.776772240363780675e+00
2.776772240363780675e+00
2.549702810754722826e+00
2.549702810754722826e+00
2.273881893368328022e+00
2.273881893368328022e+00
2.138127750480666833e+00
2.138127750480666833e+00
2.192316904202398664e+00
2.192316904202398664e+00
2.486888393810846587e+00
2.486888393810846587e+00
2.662956266975920805e+00
2.662956266975920805e+00
2.440386974700155864e+00
2.440386974700155864e+00
2.440386974700155864e+00
2.225317911313211550e+00
2.225317911313211550e+00
2.063500473036897098e+00
2.063500473036897098e+00
2.174691366313669327e+00
2.174691366313669327e+00
2.270506790368358452e+00
2.270506790368358452e+00
2.296195074312570750e+00
2.296195074312570750e+00
2.351321756645405436e+00
2.351321756645405436e+00
2.273131870479445649e+00
2.273131870479445649e+00
2.118252143925290376e+00
2.118252143925290376e+00
2.218005188146610962e+00
2.218005188146610962e+00
2.218005188146610962e+00
2.324883449812311209e+00
2.324883449812311209e+00
2.451449812311166987e+00
2.451449812311166987e+00
2.556453016754661967e+00
2.556453016754661967e+00
2.516139286477248493e+00
2.516139286477248493e+00
2.429886654255806189e+00
2.429886654255806189e+00
2.219505233924375265e+00
2.219505233924375265e+00
1.887432599871822214e+00
1.887432599871822214e+00
1.969560106204413019e+00
1.969560106204413019e+00
1.969560106204413019e+00
1.969747611926633502e+00
1.999561021759697299e+00
1.999561021759697299e+00
2.120689718314157535e+00
2.120689718314157535e+00
2.246318552201910457e+00
2.246318552201910457e+00
2.493826105533005766e+00
2.493826105533005766e+00
2.632955351420636525e+00
2.632955351420636525e+00
2.879900387585070387e+00
2.879900387585070387e+00
2.890775719473860583e+00
2.890775719473860583e+00
2.890775719473860583e+00
2.727833246864223238e+00
2.727833246864223238e+00
2.577641163365581356e+00
2.577641163365581356e+00
2.550640339365825238e+00
2.550640339365825238e+00
2.462700155644398592e+00
2.462700155644398592e+00
2.307820429090243319e+00
2.307820429090243319e+00
2.061062898648029940e+00
2.061062898648029940e+00
1.857431684316537934e+00
1.857431684316537934e+00
1.850118961149937347e+00
1.850118961149937347e+00
1.850118961149937347e+00
1.878432325205237063e+00
1.777929258095034770e+00
1.777929258095034770e+00
1.925496261482589233e+00
1.925496261482589233e+00
2.168316171758171151e+00
2.168316171758171151e+00
2.420323862422559369e+00
2.420323862422559369e+00
2.571453474532304107e+00
2.571453474532304107e+00
2.556453016754661967e+00
2.556453016754661967e+00
2.586641438032166285e+00
2.586641438032166285e+00
2.741521164586321557e+00
2.741521164586321557e+00
2.767959471419415785e+00
2.767959471419415785e+00
2.767959471419415785e+00
2.689207068086794994e+00
2.689207068086794994e+00
2.534139835810419239e+00
2.534139835810419239e+00
2.385822809533982625e+00
2.385822809533982625e+00
2.297882625812555535e+00
2.297882625812555535e+00
2.279319559312723342e+00
2.279319559312723342e+00
2.341571459089938134e+00
2.341571459089938134e+00
2.491576036866359534e+00
2.491576036866359534e+00
2.532077272865993045e+00
2.532077272865993045e+00
2.372884914700766235e+00
2.372884914700766235e+00
2.372884914700766235e+00
2.305195348979155678e+00
2.305195348979155678e+00
2.273506881923887057e+00
2.273506881923887057e+00
2.212005005035553751e+00
2.212005005035553751e+00
2.202067201757865966e+00
2.202067201757865966e+00
2.029374431592760875e+00
2.029374431592760875e+00
1.926058778649250680e+00
1.926058778649250680e+00
1.944434339426862390e+00
1.944434339426862390e+00
1.944434339426862390e+00
1.996560930204168693e+00
1.996560930204168693e+00
2.186316721091342341e+00
2.186316721091342341e+00
2.423886471144749422e+00
2.423886471144749422e+00
2.542390087588122238e+00
2.542390087588122238e+00
2.586641438032166285e+00
2.586641438032166285e+00
2.605392010254219404e+00
2.605392010254219404e+00
2.589641529587694890e+00
2.589641529587694890e+00
2.527577135532700581e+00
2.527577135532700581e+00
2.527577135532700581e+00
2.395948118533890892e+00
2.395948118533890892e+00
2.297882625812555535e+00
2.297882625812555535e+00
2.266006653035065987e+00
2.266006653035065987e+00
2.135690176091799675e+00
2.135690176091799675e+00
1.981372966704306293e+00
1.981372966704306293e+00
2.088626239814447505e+00
2.088626239814447505e+00
2.166628620258186366e+00
2.166628620258186366e+00
2.207317361980041248e+00
2.207317361980041248e+00
2.207317361980041248e+00
2.225880428479872997e+00
2.225880428479872997e+00
2.335946287423322332e+00
2.335946287423322332e+00
2.425011505478072316e+00
2.425011505478072316e+00
2.395198095645008962e+00
2.395198095645008962e+00
2.526264595477157204e+00
2.526264595477157204e+00
2.635580431531724166e+00
2.635580431531724166e+00
2.505638966032898818e+00
2.505638966032898818e+00
2.412261116367076408e+00
2.412261116367076408e+00
2.412261116367076408e+00
2.332758690145573244e+00
2.332758690145573244e+00
2.165503585924863472e+00
2.165503585924863472e+00
2.188004272591326682e+00
2.188004272591326682e+00
2.154440748313852350e+00
2.154440748313852350e+00
2.191754387035737217e+00
2.191754387035737217e+00
2.417511276589251690e+00
2.417511276589251690e+00
2.563578234199041628e+00
2.563578234199041628e+00
2.570890957365642215e+00
2.570890957365642215e+00
2.455949949644459451e+00
2.455949949644459451e+00
2.419386333811456957e+00
2.419386333811456957e+00
2.419386333811456957e+00
2.491388531144139051e+00
2.491388531144139051e+00
2.409448530533769173e+00
2.409448530533769173e+00
2.268819238868374111e+00
2.268819238868374111e+00
2.294882534257026929e+00
2.294882534257026929e+00
2.235255714590899334e+00
2.235255714590899334e+00
2.167566148869289222e+00
2.167566148869289222e+00
2.106064271980956359e+00
2.106064271980956359e+00
2.171691274758141166e+00
2.171691274758141166e+00
2.171691274758141166e+00
2.357509445478682686e+00
2.357509445478682686e+00
2.363134617145298488e+00
2.363134617145298488e+00
2.207692373424482213e+00
2.207692373424482213e+00
2.231130588702047834e+00
2.231130588702047834e+00
2.341571459089938134e+00
2.341571459089938134e+00
2.383572740867336393e+00
2.383572740867336393e+00
2.377947569200720146e+00
2.377947569200720146e+00
2.330883632923367976e+00
2.330883632923367976e+00
2.330883632923367976e+00
2.266006653035065987e+00
2.266006653035065987e+00
2.348321665089877275e+00
2.348321665089877275e+00
2.314195623645741495e+00
2.314195623645741495e+00
2.327133518478957885e+00
2.327133518478957885e+00
2.269006744590594149e+00
2.269006744590594149e+00
2.282319650868251504e+00
2.282319650868251504e+00
2.380572649311807787e+00
2.380572649311807787e+00
2.462325144199957183e+00
2.462325144199957183e+00
2.435511825922421991e+00
2.435511825922421991e+00
2.293945005645924073e+00
2.293945005645924073e+00
2.154065736869411385e+00
2.154065736869411385e+00
2.304070314645832784e+00
2.304070314645832784e+00
2.575203588976714197e+00
2.575203588976714197e+00
2.546140202032532773e+00
2.546140202032532773e+00
2.514076723532822744e+00
2.514076723532822744e+00
2.416011230811487387e+00
2.416011230811487387e+00
2.416011230811487387e+00
2.297695120090334608e+00
2.297695120090334608e+00
2.306132877590258534e+00
2.306132877590258534e+00
2.264881618701742649e+00
2.264881618701742649e+00
2.218755211035493335e+00
2.218755211035493335e+00
2.198692098757896396e+00
2.198692098757896396e+00
2.144690450758385047e+00
2.144690450758385047e+00
2.181441572313608468e+00
2.181441572313608468e+00
2.208254890591143660e+00
2.208254890591143660e+00
2.193441938535722002e+00
2.193441938535722002e+00
2.247443586535233351e+00
2.247443586535233351e+00
2.260943998535111632e+00
2.260943998535111632e+00
2.260943998535111632e+00
2.263944090090640238e+00
2.263944090090640238e+00
2.380385143589587305e+00
2.380385143589587305e+00
2.297695120090334608e+00
2.297695120090334608e+00
2.156315805536057617e+00
2.156315805536057617e+00
2.112814477980895500e+00
2.112814477980895500e+00
2.147503036591693171e+00
2.147503036591693171e+00
2.272381847590563719e+00
2.272381847590563719e+00
2.394260567033906106e+00
2.394260567033906106e+00
2.432324228644673347e+00
2.432324228644673347e+00
2.432324228644673347e+00
2.539765007477034597e+00
2.539765007477034597e+00
2.554952970976897664e+00
2.554952970976897664e+00
2.666331369975890819e+00
2.666331369975890819e+00
2.745458784752952575e+00
2.745458784752952575e+00
2.663143772698141731e+00
2.663143772698141731e+00
2.540890041810357936e+00
2.540890041810357936e+00
2.464762718588824342e+00
2.464762718588824342e+00
2.464762718588824342e+00
2.249693655201880027e+00
2.249693655201880027e+00
2.145627979369487459e+00
2.145627979369487459e+00
2.131377544480727693e+00
2.131377544480727693e+00
2.053187658314767905e+00
2.053187658314767905e+00
2.071563219092379615e+00
2.071563219092379615e+00
2.166628620258186366e+00
2.166628620258186366e+00
2.171878780480361648e+00
2.171878780480361648e+00
2.191941892757957699e+00
2.191941892757957699e+00
2.286257271034882521e+00
2.286257271034882521e+00
2.286257271034882521e+00
2.443199560533463544e+00
2.443199560533463544e+00
2.414511185033723084e+00
2.414511185033723084e+00
2.256818872646260132e+00
2.256818872646260132e+00
2.330696127201147494e+00
2.330696127201147494e+00
2.457825006866664719e+00
2.457825006866664719e+00
2.426699056978057101e+00
2.426699056978057101e+00
2.419011322367015993e+00
2.419011322367015993e+00
2.356196905423139309e+00
2.356196905423139309e+00
2.356196905423139309e+00
2.245756035035248566e+00
2.245756035035248566e+00
2.233193151646474028e+00
2.233193151646474028e+00
2.226255439924313961e+00
2.226255439924313961e+00
2.261319009979552597e+00
2.261319009979552597e+00
2.325258461256752618e+00
2.325258461256752618e+00
2.398010681478316641e+00
2.398010681478316641e+00
2.471325418866542556e+00
2.471325418866542556e+00
2.467762810144352947e+00
2.467762810144352947e+00
2.378135074922940628e+00
2.378135074922940628e+00
2.378135074922940628e+00
2.335758781701101849e+00
2.335758781701101849e+00
2.253818781090731527e+00
2.253818781090731527e+00
2.133065095980712478e+00
2.133065095980712478e+00
2.112626972258675018e+00
2.112626972258675018e+00
2.087876216925565576e+00
2.087876216925565576e+00
2.110001892147587377e+00
2.110001892147587377e+00
2.192129398480178182e+00
2.192129398480178182e+00
2.262631550035096417e+00
2.262631550035096417e+00
2.262631550035096417e+00
2.430636677144688562e+00
2.430636677144688562e+00
2.541827570421460791e+00
2.541827570421460791e+00
2.562078188421277325e+00
2.562078188421277325e+00
2.594141666920987799e+00
2.594141666920987799e+00
2.493451094088564801e+00
2.493451094088564801e+00
2.364634662923062791e+00
2.364634662923062791e+00
2.392385509811700839e+00
2.392385509811700839e+00
2.336321298867763296e+00
2.336321298867763296e+00
2.336321298867763296e+00
2.221005279702139568e+00
2.221005279702139568e+00
2.136815210425123013e+00
2.136815210425123013e+00
2.045312417981505870e+00
2.045312417981505870e+00
2.083188573870052185e+00
2.083188573870052185e+00
2.114502029480880285e+00
2.114502029480880285e+00
2.175628894924771739e+00
2.175628894924771739e+00
2.370259834589678594e+00
2.370259834589678594e+00
2.551952879421369058e+00
2.551952879421369058e+00
2.647768303476058183e+00
2.647768303476058183e+00
2.658081118198186932e+00
2.658081118198186932e+00
2.493638599810785283e+00
2.493638599810785283e+00
2.302570268868068482e+00
2.302570268868068482e+00
2.274069399090548504e+00
2.274069399090548504e+00
2.274069399090548504e+00
2.210504959257789892e+00
2.210504959257789892e+00
2.236568254646443155e+00
2.236568254646443155e+00
2.237318277535325084e+00
2.237318277535325084e+00
2.167003631702627775e+00
2.167003631702627775e+00
2.196817041535691573e+00
2.196817041535691573e+00
2.186691732535783306e+00
2.186691732535783306e+00
2.216880153813287624e+00
2.216880153813287624e+00
2.300695211645863214e+00
2.300695211645863214e+00
2.339321390423291458e+00
2.339321390423291458e+00
2.370447340311899076e+00
2.370447340311899076e+00
2.370447340311899076e+00
2.412636127811517817e+00
2.412636127811517817e+00
2.360509537034211291e+00
2.360509537034211291e+00
2.382072695089572090e+00
2.382072695089572090e+00
2.376635029145176325e+00
2.376635029145176325e+00
2.242193426313058957e+00
2.242193426313058957e+00
2.232818140202032620e+00
2.232818140202032620e+00
2.185004181035798521e+00
2.185004181035798521e+00
2.153128208258308529e+00
2.153128208258308529e+00
2.153128208258308529e+00
2.212567522202215642e+00
2.212567522202215642e+00
2.223255348368785356e+00
2.223255348368785356e+00
2.252693746757408633e+00
2.252693746757408633e+00
2.308195440534684284e+00
2.308195440534684284e+00
2.315320657979064389e+00
2.315320657979064389e+00
2.366697225867488541e+00
2.366697225867488541e+00
2.403823358867152926e+00
2.403823358867152926e+00
2.403823358867152926e+00
2.376260017700735361e+00
2.376260017700735361e+00
2.418448805200354101e+00
2.418448805200354101e+00
2.371384868923001932e+00
2.371384868923001932e+00
2.353384319589831186e+00
2.353384319589831186e+00
2.347009125034333454e+00
2.347009125034333454e+00
2.258131412701803509e+00
2.258131412701803509e+00
2.291319925534837321e+00
2.291319925534837321e+00
2.342508987701040546e+00
2.342508987701040546e+00
2.374197454756310055e+00
2.374197454756310055e+00
2.374197454756310055e+00
2.436824365977965812e+00
2.436824365977965812e+00
2.492326059755241463e+00
2.492326059755241463e+00
2.509201574755088870e+00
2.509201574755088870e+00
2.546140202032532773e+00
2.546140202032532773e+00
2.516701803643909940e+00
2.516701803643909940e+00
2.436824365977965812e+00
2.436824365977965812e+00
2.416386242255928352e+00
2.416386242255928352e+00
2.416386242255928352e+00
2.279319559312723342e+00
2.279319559312723342e+00
2.209754936368907963e+00
2.209754936368907963e+00
2.172253791924802613e+00
2.172253791924802613e+00
2.094626422925504272e+00
2.094626422925504272e+00
2.087501205481124167e+00
2.087501205481124167e+00
2.091063814203314664e+00
2.118064638203069894e+00
2.118064638203069894e+00
2.228505508590960638e+00
2.228505508590960638e+00
2.293945005645924073e+00
2.293945005645924073e+00
2.382072695089572090e+00
2.382072695089572090e+00
2.465512741477706271e+00
2.465512741477706271e+00
2.465512741477706271e+00
2.414511185033723084e+00
2.414511185033723084e+00
2.423136448255867048e+00
2.423136448255867048e+00
2.463637684255501004e+00
2.463637684255501004e+00
2.365572191534165203e+00
2.365572191534165203e+00
2.310633014923550999e+00
2.310633014923550999e+00
2.257943906979583026e+00
2.257943906979583026e+00
2.192316904202398664e+00
2.192316904202398664e+00
2.201129673146763555e+00
2.201129673146763555e+00
2.201129673146763555e+00
2.222317819757682944e+00
2.222317819757682944e+00
2.272756859035004684e+00
2.272756859035004684e+00
2.341008941923276243e+00
2.341008941923276243e+00
2.369322305978576182e+00
2.369322305978576182e+00
2.424823999755851833e+00
2.424823999755851833e+00
2.452387340922269399e+00
2.452387340922269399e+00
2.380947660756248752e+00
2.380947660756248752e+00
2.403635853144932444e+00
2.403635853144932444e+00
2.403635853144932444e+00
2.386947843867305519e+00
2.386947843867305519e+00
2.251381206701864812e+00
2.251381206701864812e+00
2.217817682424390480e+00
2.217817682424390480e+00
2.167566148869289222e+00
2.167566148869289222e+00
2.175628894924771739e+00
2.175628894924771739e+00
2.230193060090945423e+00
2.230193060090945423e+00
2.243130954924161813e+00
2.303132786034730373e+00
2.303132786034730373e+00
2.353571825312051669e+00
2.353571825312051669e+00
2.353571825312051669e+00
2.346634113589892490e+00
2.346634113589892490e+00
2.411698599200414961e+00
2.411698599200414961e+00
2.414511185033723084e+00
2.414511185033723084e+00
2.348509170812097757e+00
2.348509170812097757e+00
2.398385692922757606e+00
2.398385692922757606e+00
2.338196356089969008e+00
2.338196356089969008e+00
2.242755943479720404e+00
2.242755943479720404e+00
2.236568254646443155e+00
2.236568254646443155e+00
2.191004364146854844e+00
2.191004364146854844e+00
2.191004364146854844e+00
2.187254249702444309e+00
2.187254249702444309e+00
2.206379833368938392e+00
2.206379833368938392e+00
2.203567247535630269e+00
2.203567247535630269e+00
2.278944547868282378e+00
2.278944547868282378e+00
2.326383495590075512e+00
2.326383495590075512e+00
2.327508529923398850e+00
2.327508529923398850e+00
2.412073610644855925e+00
2.412073610644855925e+00
2.408511001922666317e+00
2.408511001922666317e+00
2.408511001922666317e+00
2.408511001922666317e+00
2.408511001922666317e+00
2.442074526200140649e+00
2.442074526200140649e+00
2.304820337534714714e+00
2.304820337534714714e+00
2.258881435590685438e+00
2.258881435590685438e+00
2.244255989257484707e+00
2.244255989257484707e+00
2.204317270424512643e+00
2.204317270424512643e+00
2.246881069368571904e+00
2.246881069368571904e+00
2.292819971312600735e+00
2.292819971312600735e+00
2.329383587145603673e+00
2.329383587145603673e+00
2.329383587145603673e+00
2.408511001922666317e+00
2.408511001922666317e+00
2.422573931089205601e+00
2.422573931089205601e+00
2.437574388866847741e+00
2.437574388866847741e+00
2.473762993255409270e+00
2.473762993255409270e+00
2.407010956144902014e+00
2.407010956144902014e+00
2.395385601367229444e+00
2.395385601367229444e+00
2.394823084200567997e+00
2.394823084200567997e+00
2.267319193090609808e+00
2.267319193090609808e+00
2.221567796868801015e+00
2.221567796868801015e+00
2.221567796868801015e+00
2.165503585924863472e+00
2.165503585924863472e+00
2.111314432203131197e+00
2.111314432203131197e+00
2.152378185369426600e+00
2.152378185369426600e+00
2.190629352702413879e+00
2.190629352702413879e+00
2.262819055757316900e+00
2.262819055757316900e+00
2.344571550645466296e+00
2.344571550645466296e+00
2.356759422589800756e+00
2.356759422589800756e+00
2.410386059144871140e+00
2.410386059144871140e+00
2.410386059144871140e+00
2.427636585589159957e+00
2.427636585589159957e+00
2.368947294534135217e+00
2.368947294534135217e+00
2.389197912533951751e+00
2.389197912533951751e+00
2.355259376812036454e+00
2.355259376812036454e+00
2.251943723868526259e+00
2.251943723868526259e+00
2.215005096591082356e+00
2.215005096591082356e+00
2.151628162480544670e+00
2.151628162480544670e+00
2.131377544480727693e+00
2.131377544480727693e+00
2.131377544480727693e+00
2.198879604480116878e+00
2.198879604480116878e+00
2.225505417035432032e+00
2.298820154423657947e+00
2.298820154423657947e+00
2.371009857478560967e+00
2.371009857478560967e+00
2.386385326700643628e+00
2.386385326700643628e+00
2.443762077700125435e+00
2.443762077700125435e+00
2.443762077700125435e+00
2.442074526200140649e+00
2.442074526200140649e+00
2.412636127811517817e+00
2.412636127811517817e+00
2.496076174199651998e+00
2.496076174199651998e+00
2.397073152867214230e+00
2.397073152867214230e+00
2.282882168034912951e+00
2.282882168034912951e+00
2.248568620868556689e+00
2.248568620868556689e+00
2.177878963591417971e+00
2.177878963591417971e+00
2.172441297647023095e+00
2.172441297647023095e+00
2.172441297647023095e+00
2.197004547257912055e+00
2.197004547257912055e+00
2.229630542924283532e+00
2.229630542924283532e+00
2.314195623645741495e+00
2.314195623645741495e+00
2.358071962645344577e+00
2.358071962645344577e+00
2.382635212256233537e+00
2.382635212256233537e+00
2.447512192144535526e+00
2.447512192144535526e+00
2.414698690755943566e+00
2.414698690755943566e+00
2.365009674367503756e+00
2.365009674367503756e+00
2.365009674367503756e+00
2.420511368144779851e+00
2.420511368144779851e+00
2.301445234534745587e+00
2.301445234534745587e+00
2.231505600146489243e+00
2.231505600146489243e+00
2.184254158146916147e+00
2.184254158146916147e+00
2.140940336313974068e+00
2.140940336313974068e+00
2.176191412091433186e+00
2.176191412091433186e+00
2.215755119479964730e+00
2.259256447035126847e+00
2.259256447035126847e+00
2.331633655812249906e+00
2.331633655812249906e+00
2.349821710867641578e+00
2.349821710867641578e+00
2.349821710867641578e+00
2.391447981200597983e+00
2.391447981200597983e+00
2.437386883144627259e+00
2.437386883144627259e+00
2.389760429700613198e+00
2.389760429700613198e+00
2.400260750144962874e+00
2.400260750144962874e+00
2.416761253700369316e+00
2.416761253700369316e+00
2.286444776757103448e+00
2.286444776757103448e+00
2.252881252479629115e+00
2.252881252479629115e+00
2.203379741813409787e+00
2.203379741813409787e+00
2.203379741813409787e+00
2.139627796258431136e+00
2.139627796258431136e+00
2.179379009369182274e+00
2.179379009369182274e+00
2.191754387035737217e+00
2.191754387035737217e+00
2.257568895535142062e+00
2.257568895535142062e+00
2.328258552812280335e+00
2.328258552812280335e+00
2.345696584978789634e+00
2.345696584978789634e+00
2.413573656422620228e+00
2.413573656422620228e+00
2.429324137089144742e+00
2.429324137089144742e+00
2.379822626422925413e+00
2.379822626422925413e+00
2.379822626422925413e+00
2.427074068422498510e+00
2.427074068422498510e+00
2.387322855311746483e+00
2.387322855311746483e+00
2.278007019257179522e+00
2.278007019257179522e+00
2.242755943479720404e+00
2.242755943479720404e+00
2.170378734702597345e+00
2.170378734702597345e+00
2.152940702536088047e+00
2.152940702536088047e+00
2.203192236091189304e+00
2.203192236091189304e+00
2.222130314035462462e+00
2.222130314035462462e+00
2.222130314035462462e+00
2.294695028534806447e+00
2.294695028534806447e+00
2.350196722312082542e+00
2.350196722312082542e+00
2.375134983367412023e+00
2.375134983367412023e+00
2.442074526200140649e+00
2.442074526200140649e+00
2.429511642811365224e+00
2.429511642811365224e+00
2.381697683645130681e+00
2.381697683645130681e+00
2.441136997589037794e+00
2.441136997589037794e+00
2.338946378978850937e+00
2.338946378978850937e+00
2.338946378978850937e+00
2.250443678090761956e+00
2.250443678090761956e+00
2.221380291146580532e+00
2.221380291146580532e+00
2.153503219702749494e+00
2.153503219702749494e+00
2.153503219702749494e+00
2.153503219702749494e+00
2.195879512924588717e+00
2.195879512924588717e+00
2.233193151646474028e+00
2.233193151646474028e+00
2.318695760979033516e+00
2.318695760979033516e+00
2.361259559923093665e+00
2.361259559923093665e+00
2.389385418256172233e+00
2.389385418256172233e+00
2.389385418256172233e+00
2.446199652088991705e+00
2.446199652088991705e+00
2.402323313089388623e+00
2.402323313089388623e+00
2.386572832422864110e+00
2.386572832422864110e+00
2.424261482589190386e+00
2.424261482589190386e+00
2.293194982757042144e+00
2.293194982757042144e+00
2.237693288979766049e+00
2.237693288979766049e+00
2.196067018646809643e+00
2.196067018646809643e+00
2.196067018646809643e+00
2.146565507980590315e+00
2.146565507980590315e+00
2.184816675313578038e+00
2.184816675313578038e+00
2.210504959257789892e+00
2.210504959257789892e+00
2.263756584368419311e+00
2.263756584368419311e+00
2.341008941923276243e+00
2.341008941923276243e+00
2.361072054200873183e+00
2.361072054200873183e+00
2.412073610644855925e+00
2.412073610644855925e+00
2.447887203588976490e+00
2.447887203588976490e+00
2.392198004089480357e+00
2.392198004089480357e+00
2.408886013367107282e+00
2.408886013367107282e+00
2.408886013367107282e+00
2.401198278756065729e+00
2.401198278756065729e+00
2.274069399090548504e+00
2.274069399090548504e+00
2.244818506424146598e+00
2.244818506424146598e+00
2.183129123813593253e+00
2.183129123813593253e+00
2.146378002258369833e+00
2.146378002258369833e+00
2.190816858424634361e+00
2.190816858424634361e+00
2.215005096591082356e+00
2.215005096591082356e+00
2.287382305368205859e+00
2.287382305368205859e+00
2.352634296700948813e+00
2.352634296700948813e+00
2.352634296700948813e+00
2.358259468367565059e+00
2.358259468367565059e+00
2.422198919644764192e+00
2.422198919644764192e+00
2.431574205755790974e+00
2.431574205755790974e+00
2.370822351756340485e+00
2.370822351756340485e+00
2.422948942533646566e+00
2.422948942533646566e+00
2.354696859645375007e+00
2.354696859645375007e+00
2.251381206701864812e+00
2.251381206701864812e+00
2.251381206701864812e+00
2.226255439924313961e+00
2.226255439924313961e+00
2.155190771202734279e+00
2.155190771202734279e+00
2.147878048036134135e+00
2.147878048036134135e+00
2.206567339091158875e+00
2.206567339091158875e+00
2.221192785424360050e+00
2.299195165868098911e+00
2.299195165868098911e+00
2.353384319589831186e+00
2.353384319589831186e+00
2.353384319589831186e+00
2.371009857478560967e+00
2.371009857478560967e+00
2.436449354533524403e+00
2.436449354533524403e+00
2.407385967589342979e+00
2.407385967589342979e+00
2.373259926145207199e+00
2.373259926145207199e+00
2.445074617755668811e+00
2.445074617755668811e+00
2.347946653645436310e+00
2.347946653645436310e+00
2.277256996368297592e+00
2.277256996368297592e+00
2.233568163090914993e+00
2.233568163090914993e+00
2.168878688924833043e+00
2.168878688924833043e+00
2.168878688924833043e+00
2.184066652424695665e+00
2.184066652424695665e+00
2.218005188146610962e+00
2.218005188146610962e+00
2.251193700979644330e+00
2.251193700979644330e+00
2.328821069978942226e+00
2.328821069978942226e+00
2.363322122867518971e+00
2.363322122867518971e+00
2.393323038422803695e+00
2.393323038422803695e+00
2.463450178533280521e+00
2.463450178533280521e+00
2.421448896755882263e+00
2.421448896755882263e+00
2.412261116367076408e+00
2.412261116367076408e+00
2.433636768700216724e+00
2.433636768700216724e+00
2.297507614368114126e+00
2.297507614368114126e+00
2.297507614368114126e+00
2.233380657368694511e+00
2.233380657368694511e+00
2.182754112369151844e+00
2.182754112369151844e+00
2.135315164647358710e+00
2.135315164647358710e+00
2.171316263313699757e+00
2.171316263313699757e+00
2.190629352702413879e+00
2.190629352702413879e+00
2.252506241035188150e+00
2.252506241035188150e+00
2.340446424756614796e+00
2.340446424756614796e+00
2.361634571367534630e+00
2.361634571367534630e+00
2.412636127811517817e+00
2.412636127811517817e+00
2.412636127811517817e+00
2.442262031922361132e+00
2.442262031922361132e+00
2.387510361033966966e+00
2.387510361033966966e+00
2.419573839533677440e+00
2.419573839533677440e+00
2.395385601367229444e+00
2.395385601367229444e+00
2.275194433423871843e+00
2.275194433423871843e+00
2.252881252479629115e+00
2.252881252479629115e+00
2.183316629535813735e+00
2.183316629535813735e+00
2.183316629535813735e+00
2.147878048036134135e+00
2.147878048036134135e+00
2.193254432813501520e+00
2.193254432813501520e+00
2.209192419202246516e+00
2.209192419202246516e+00
2.280444593646046680e+00
2.280444593646046680e+00
2.341196447645496725e+00
2.341196447645496725e+00
2.361072054200873183e+00
2.361072054200873183e+00
2.427074068422498510e+00
2.427074068422498510e+00
2.430824182866909045e+00
2.430824182866909045e+00
2.377572557756279181e+00
2.377572557756279181e+00
2.377572557756279181e+00
2.435324320200201509e+00
2.435324320200201509e+00
2.356196905423139309e+00
2.356196905423139309e+00
2.253443769646290562e+00
2.253443769646290562e+00
2.233193151646474028e+00
2.233193151646474028e+00
2.160253425702688634e+00
2.160253425702688634e+00
2.151065645313883223e+00
2.151065645313883223e+00
2.193816949980162967e+00
2.193816949980162967e+00
2.218192693868831444e+00
2.218192693868831444e+00
2.307257911923581428e+00
2.307257911923581428e+00
2.360134525589770327e+00
2.360134525589770327e+00
2.376447523422955843e+00
2.376447523422955843e+00
2.443762077700125435e+00
2.443762077700125435e+00
2.408323496200445835e+00
2.408323496200445835e+00
2.377947569200720146e+00
2.377947569200720146e+00
2.377947569200720146e+00
2.431761711478011456e+00
2.431761711478011456e+00
2.317383220923490139e+00
2.317383220923490139e+00
2.245006012146367080e+00
2.245006012146367080e+00
2.210317453535568966e+00
2.210317453535568966e+00
2.143377910702841227e+00
2.143377910702841227e+00
2.165128574480422063e+00
2.165128574480422063e+00
2.203004730368968822e+00
2.203004730368968822e+00
2.203004730368968822e+00
2.250256172368541474e+00
2.250256172368541474e+00
2.325445966978973100e+00
2.325445966978973100e+00
2.353196813867610704e+00
2.353196813867610704e+00
2.391447981200597983e+00
2.391447981200597983e+00
2.440761986144596829e+00
2.440761986144596829e+00
2.389760429700613198e+00
2.389760429700613198e+00
2.396698141422773265e+00
2.396698141422773265e+00
2.413386150700399746e+00
2.413386150700399746e+00
2.287382305368205859e+00
2.287382305368205859e+00
2.287382305368205859e+00
2.241818414868617992e+00
2.241818414868617992e+00
2.197754570146794428e+00
2.197754570146794428e+00
2.156315805536057617e+00
2.156315805536057617e+00
2.193441938535722002e+00
2.193441938535722002e+00
2.206192327646717910e+00
2.261319009979552597e+00
2.261319009979552597e+00
2.335196264534440402e+00
2.335196264534440402e+00
2.353759331034272151e+00
2.353759331034272151e+00
2.420323862422559369e+00
2.420323862422559369e+00
2.420323862422559369e+00
2.446762169255653596e+00
