2.008373790704061967e+00
2.035374614703817642e+00
2.076625873592333971e+00
2.076625873592333971e+00
2.041187292092654371e+00
2.041187292092654371e+00
2.120502212591937052e+00
2.194191961424603932e+00
2.194191961424603932e+00
2.122002258369701355e+00
2.040437269203771997e+00
2.040437269203771997e+00
1.992623310037537676e+00
1.992623310037537676e+00
2.030499465926084213e+00
2.047749992370372585e+00
2.047749992370372585e+00
2.057875301370280852e+00
2.057875301370280852e+00
2.005936216315195253e+00
1.994873378704184130e+00
1.994873378704184130e+00
2.052437635425885976e+00
2.052437635425885976e+00
2.087501205481124167e+00
2.147503036591693171e+00
2.147503036591693171e+00
2.117689626758628929e+00
2.094626422925504272e+00
2.094626422925504272e+00
2.022061708426160731e+00
2.022061708426160731e+00
2.162878505813776275e+00
2.203567247535630269e+00
2.203567247535630269e+00
2.214255073702200427e+00
2.214255073702200427e+00
2.110751915036469750e+00
2.006311227759636218e+00
1.980810449537644624e+00
1.980810449537644624e+00
2.053187658314767905e+00
2.053187658314767905e+00
2.036499649037140980e+00
1.924371227149266117e+00
1.924371227149266117e+00
2.013061433759574914e+00
1.987935666982024729e+00
1.987935666982024729e+00
2.050562578203680708e+00
2.050562578203680708e+00
2.098001525925473842e+00
2.073250770592364400e+00
2.073250770592364400e+00
2.113189489425336465e+00
2.113189489425336465e+00
2.049625049592577852e+00
2.144690450758385047e+00
2.144690450758385047e+00
2.120314706869716570e+00
2.085063631092257452e+00
2.085063631092257452e+00
2.172816309091464060e+00
2.172816309091464060e+00
2.241443403424177028e+00
2.219505233924375265e+00
2.219505233924375265e+00
2.101939146092104860e+00
2.028249397259437981e+00
2.028249397259437981e+00
1.901870540482802907e+00
1.901870540482802907e+00
1.908620746482741826e+00
1.938621662038026106e+00
1.938621662038026106e+00
1.914808435316019075e+00
1.915745963927121709e+00
1.915745963927121709e+00
2.034812097537156195e+00
2.034812097537156195e+00
2.185566698202459968e+00
2.251568712424085295e+00
2.251568712424085295e+00
2.180691549424726094e+00
2.180691549424726094e+00
2.149753105258339403e+00
2.069500656147953865e+00
2.069500656147953865e+00
1.920246101260414395e+00
2.262631550035096417e+00
2.262631550035096417e+00
2.185191686758019003e+00
2.130815027314065802e+00
2.130815027314065802e+00
2.045312417981505870e+00
2.045312417981505870e+00
1.893057771538438017e+00
1.869432050538651691e+00
1.869432050538651691e+00
1.908245735038300861e+00
1.908245735038300861e+00
2.060875392925809457e+00
2.114314523758659803e+00
2.114314523758659803e+00
2.012873928037354432e+00
2.036874660481581945e+00
2.036874660481581945e+00
2.095751457258827610e+00
2.095751457258827610e+00
2.226817957090975852e+00
2.288882351145970162e+00
2.288882351145970162e+00
2.092001342814417075e+00
2.092001342814417075e+00
2.022624225592822178e+00
2.178066469313638454e+00
2.178066469313638454e+00
2.205817316202276945e+00
2.205817316202276945e+00
2.043437360759300603e+00
1.959434797204504530e+00
1.959434797204504530e+00
1.998435987426374183e+00
2.077938413647877791e+00
2.077938413647877791e+00
2.102126651814325342e+00
2.102126651814325342e+00
2.004061159092989985e+00
1.941996765037995676e+00
1.941996765037995676e+00
2.014748985259559699e+00
2.014748985259559699e+00
2.098939054536576698e+00
2.171691274758141166e+00
2.171691274758141166e+00
2.130065004425183872e+00
2.130065004425183872e+00
2.050562578203680708e+00
2.020749168370616911e+00
2.020749168370616911e+00
2.135690176091799675e+00
2.231693105868709726e+00
2.231693105868709726e+00
2.208254890591143660e+00
2.208254890591143660e+00
2.235443220313119816e+00
2.105876766258735877e+00
2.105876766258735877e+00
2.024874294259468410e+00
2.024874294259468410e+00
2.008748802148503376e+00
2.054875209814752690e+00
2.054875209814752690e+00
1.946871913815729327e+00
1.946871913815729327e+00
1.902245551927244094e+00
1.916683492538224565e+00
1.916683492538224565e+00
2.155378276924954761e+00
2.155378276924954761e+00
2.197004547257912055e+00
2.379072603534043484e+00
2.379072603534043484e+00
2.442824549089022579e+00
2.268444227423932702e+00
2.268444227423932702e+00
2.024311777092806519e+00
2.024311777092806519e+00
1.992060792870876229e+00
1.933183996093630785e+00
1.933183996093630785e+00
1.818055482650227317e+00
1.818055482650227317e+00
1.908433240760521121e+00
1.905808160649433924e+00
1.905808160649433924e+00
1.890057679982909855e+00
1.890057679982909855e+00
1.935809076204718204e+00
2.042687337870418673e+00
2.042687337870418673e+00
2.136252693258461566e+00
2.136252693258461566e+00
2.112814477980895500e+00
2.104564226203192501e+00
2.104564226203192501e+00
2.288694845423749680e+00
2.280632099368266719e+00
2.280632099368266719e+00
2.116564592425305591e+00
2.116564592425305591e+00
2.034999603259376677e+00
2.024124271370586037e+00
2.024124271370586037e+00
1.975372783593249304e+00
1.975372783593249304e+00
2.006123722037415735e+00
1.992623310037537676e+00
1.992623310037537676e+00
2.053375164036988387e+00
2.145815485091708386e+00
2.145815485091708386e+00
2.058250312814721816e+00
2.058250312814721816e+00
2.070625690481276759e+00
2.082063539536728847e+00
2.082063539536728847e+00
1.967310037537766565e+00
1.967310037537766565e+00
1.889495162816248186e+00
2.122002258369701355e+00
2.122002258369701355e+00
2.331258644367808941e+00
2.162315988647114828e+00
2.162315988647114828e+00
1.998623493148594665e+00
1.998623493148594665e+00
2.027499374370555607e+00
2.114314523758659803e+00
2.114314523758659803e+00
2.182379100924710880e+00
2.182379100924710880e+00
2.152940702536088047e+00
2.055062715536973172e+00
2.055062715536973172e+00
2.126502395702994264e+00
2.126502395702994264e+00
2.005748710592974771e+00
1.944059327982421204e+00
1.944059327982421204e+00
2.117314615314187964e+00
2.220255256813257638e+00
2.220255256813257638e+00
2.075875850703451597e+00
2.075875850703451597e+00
2.029561937314981801e+00
1.985123081148716606e+00
1.985123081148716606e+00
2.022624225592822178e+00
2.022624225592822178e+00
1.998998504593035630e+00
1.943871822260200721e+00
1.943871822260200721e+00
2.089938779869991325e+00
2.089938779869991325e+00
2.109626880703146412e+00
2.246506057924130939e+00
2.246506057924130939e+00
2.313070589312418157e+00
2.257381389812921579e+00
2.257381389812921579e+00
2.013248939481795396e+00
2.013248939481795396e+00
1.917621021149327198e+00
1.979310403759880321e+00
1.979310403759880321e+00
1.957934751426740450e+00
1.957934751426740450e+00
1.938059144871364436e+00
2.031624500259407551e+00
2.031624500259407551e+00
2.207504867702261730e+00
2.207504867702261730e+00
2.289819879757073018e+00
2.184629169591357556e+00
2.184629169591357556e+00
1.965809991760002484e+00
1.902995574816126023e+00
1.902995574816126023e+00
1.987373149815363060e+00
1.987373149815363060e+00
1.997310953093050845e+00
2.063125461592455689e+00
2.063125461592455689e+00
2.031624500259407551e+00
2.031624500259407551e+00
2.039312234870449103e+00
2.092001342814417075e+00
2.092001342814417075e+00
2.163816034424878687e+00
2.163816034424878687e+00
2.027311868648335125e+00
1.848993926816614453e+00
1.848993926816614453e+00
1.872807153538621261e+00
1.889307657094027704e+00
1.889307657094027704e+00
2.087688711203345093e+00
2.087688711203345093e+00
2.154815759758293314e+00
2.278757042146061895e+00
2.278757042146061895e+00
2.324883449812311209e+00
2.324883449812311209e+00
2.156128299813837135e+00
2.240130863368633207e+00
2.240130863368633207e+00
2.066875576036866669e+00
2.066875576036866669e+00
2.057500289925840331e+00
2.048312509537034032e+00
2.048312509537034032e+00
2.149753105258339403e+00
2.149753105258339403e+00
2.050937589648121673e+00
1.875432233649708458e+00
1.875432233649708458e+00
1.874494705038605824e+00
1.927371318704794501e+00
1.927371318704794501e+00
2.051687612537003602e+00
2.051687612537003602e+00
2.163628528702658205e+00
2.132315073091830104e+00
2.132315073091830104e+00
2.159690908536027187e+00
2.159690908536027187e+00
2.169253700369274007e+00
2.147690542313913653e+00
2.147690542313913653e+00
2.146190496536149350e+00
2.146190496536149350e+00
2.117502121036408447e+00
2.074188299203466812e+00
2.074188299203466812e+00
2.169066194647053525e+00
2.092001342814417075e+00
2.092001342814417075e+00
2.120127201147496088e+00
2.120127201147496088e+00
1.899432966093935971e+00
1.893432782982879203e+00
1.893432782982879203e+00
2.052062623981445011e+00
2.052062623981445011e+00
2.050187566759239299e+00
2.149753105258339403e+00
2.149753105258339403e+00
1.988873195593127363e+00
1.962809900204474101e+00
1.962809900204474101e+00
1.948184453871272925e+00
1.948184453871272925e+00
1.983060518204291078e+00
1.964872463148899850e+00
1.964872463148899850e+00
2.076063356425672080e+00
2.076063356425672080e+00
2.111126926480910715e+00
2.120689718314157535e+00
2.120689718314157535e+00
2.096688985869930022e+00
2.096688985869930022e+00
2.075500839259010633e+00
2.089376262703329878e+00
2.089376262703329878e+00
2.079438459425641650e+00
2.079438459425641650e+00
2.176378917813653668e+00
2.197754570146794428e+00
2.197754570146794428e+00
2.226442945646534444e+00
2.143752922147282192e+00
2.143752922147282192e+00
2.051125095370342155e+00
2.051125095370342155e+00
1.910683309427167575e+00
2.018686605426191161e+00
2.018686605426191161e+00
2.028999420148319910e+00
2.028999420148319910e+00
2.014561479537339217e+00
2.010811365092929126e+00
2.010811365092929126e+00
2.134940153202917745e+00
2.134940153202917745e+00
2.121814752647480873e+00
2.135690176091799675e+00
2.135690176091799675e+00
2.138690267647328280e+00
2.060687887203588975e+00
2.060687887203588975e+00
2.110751915036469750e+00
2.110751915036469750e+00
1.954559648426770879e+00
1.957184728537858298e+00
1.957184728537858298e+00
2.010436353648488161e+00
2.010436353648488161e+00
2.106626789147617806e+00
2.062562944425794242e+00
2.062562944425794242e+00
2.030124454481643248e+00
2.030124454481643248e+00
2.039499740592669585e+00
2.070813196203497242e+00
2.070813196203497242e+00
2.054875209814752690e+00
2.054875209814752690e+00
2.119189672536393232e+00
2.104751731925412539e+00
2.104751731925412539e+00
2.107564317758720662e+00
2.156690816980498582e+00
2.156690816980498582e+00
2.097251503036591469e+00
2.097251503036591469e+00
2.083001068147831703e+00
2.103064180425428198e+00
2.103064180425428198e+00
2.093126377147739969e+00
2.093126377147739969e+00
2.136065187536240639e+00
2.232818140202032620e+00
2.232818140202032620e+00
2.104939237647633021e+00
2.104939237647633021e+00
1.972372692037720920e+00
1.909370769371623755e+00
1.909370769371623755e+00
1.914808435316019075e+00
1.914808435316019075e+00
1.965997497482223189e+00
2.075688344981231115e+00
2.075688344981231115e+00
2.119002166814172750e+00
2.119002166814172750e+00
2.181066560869167059e+00
2.178816492202520827e+00
2.178816492202520827e+00
2.155378276924954761e+00
2.070438184759056277e+00
2.070438184759056277e+00
1.990373241370891666e+00
1.990373241370891666e+00
1.947434430982390996e+00
1.996185918759727951e+00
1.996185918759727951e+00
2.055625232703635064e+00
2.055625232703635064e+00
2.053000152592547423e+00
2.065188024536881883e+00
2.065188024536881883e+00
2.025811822870570822e+00
2.025811822870570822e+00
2.029561937314981801e+00
2.045124912259285388e+00
2.045124912259285388e+00
2.067438093203528116e+00
2.108126834925382109e+00
2.108126834925382109e+00
2.078688436536759720e+00
2.078688436536759720e+00
2.130252510147404355e+00
2.146190496536149350e+00
2.146190496536149350e+00
2.053750175481429796e+00
2.053750175481429796e+00
2.113376995147556947e+00
2.087313699758903685e+00
2.087313699758903685e+00
2.015499008148442073e+00
2.015499008148442073e+00
2.068188116092410045e+00
2.098376537369914807e+00
2.098376537369914807e+00
2.079250953703421168e+00
2.079250953703421168e+00
2.099314065981017663e+00
2.084501113925596005e+00
2.084501113925596005e+00
2.086376171147801273e+00
2.092938871425519931e+00
2.092938871425519931e+00
1.984935575426496124e+00
2.007061250648518591e+00
2.007061250648518591e+00
2.046812463759269729e+00
2.046812463759269729e+00
2.024686788537247928e+00
2.074000793481246330e+00
2.074000793481246330e+00
2.118814661091952267e+00
2.118814661091952267e+00
2.110001892147587377e+00
2.112814477980895500e+00
2.112814477980895500e+00
2.095188940092165719e+00
2.095188940092165719e+00
2.061062898648029940e+00
2.121627246925260390e+00
2.121627246925260390e+00
2.099876583147679110e+00
2.099876583147679110e+00
2.047374980925931620e+00
2.062000427259132795e+00
2.062000427259132795e+00
2.041749809259315818e+00
1.995248390148625317e+00
1.995248390148625317e+00
2.046062440870388244e+00
2.046062440870388244e+00
2.103251686147648680e+00
2.102126651814325342e+00
2.102126651814325342e+00
2.121439741203039464e+00
2.121439741203039464e+00
2.083001068147831703e+00
2.037062166203802427e+00
2.037062166203802427e+00
2.068000610370189563e+00
2.068000610370189563e+00
2.044749900814844423e+00
2.066875576036866669e+00
2.066875576036866669e+00
2.110189397869807859e+00
2.110189397869807859e+00
2.152753196813867564e+00
2.139627796258431136e+00
2.139627796258431136e+00
2.073250770592364400e+00
2.073250770592364400e+00
2.119939695425275605e+00
2.092001342814417075e+00
2.092001342814417075e+00
1.979872920926541990e+00
1.951559556871242496e+00
1.951559556871242496e+00
1.969560106204413019e+00
1.969560106204413019e+00
2.050000061037018817e+00
2.035749626148258606e+00
2.035749626148258606e+00
2.002186101870784718e+00
2.002186101870784718e+00
2.041562303537095335e+00
2.095001434369945237e+00
2.095001434369945237e+00
2.153503219702749494e+00
2.153503219702749494e+00
2.098001525925473842e+00
2.020374156926175946e+00
2.020374156926175946e+00
2.020561662648396428e+00
2.020561662648396428e+00
2.101564134647663895e+00
2.126877407147435228e+00
2.126877407147435228e+00
2.115064546647541732e+00
2.165128574480422063e+00
2.165128574480422063e+00
2.131752555925168657e+00
2.131752555925168657e+00
2.082626056703390294e+00
2.060500381481368493e+00
2.060500381481368493e+00
2.061625415814691387e+00
2.061625415814691387e+00
1.997685964537492032e+00
1.998435987426374183e+00
1.998435987426374183e+00
2.034999603259376677e+00
2.034999603259376677e+00
2.085251136814477935e+00
2.079625965147862576e+00
2.079625965147862576e+00
2.077938413647877791e+00
2.077938413647877791e+00
2.071563219092379615e+00
2.100626606036561483e+00
2.100626606036561483e+00
2.108126834925382109e+00
2.080000976592303541e+00
2.080000976592303541e+00
2.116377086703085553e+00
2.116377086703085553e+00
2.125564867091891408e+00
2.055062715536973172e+00
2.055062715536973172e+00
2.073625782036805365e+00
2.073625782036805365e+00
2.041749809259315818e+00
1.973310220648823554e+00
1.973310220648823554e+00
1.915370952482680744e+00
1.915370952482680744e+00
2.076625873592333971e+00
2.102689168980987233e+00
2.102689168980987233e+00
2.084876125370036970e+00
2.084876125370036970e+00
2.072500747703482027e+00
2.090501297036652772e+00
2.090501297036652772e+00
2.051312601092562637e+00
2.072313241981261545e+00
2.072313241981261545e+00
2.067250587481307633e+00
2.067250587481307633e+00
2.117127109591967482e+00
2.141315347758415477e+00
2.141315347758415477e+00
2.138690267647328280e+00
2.138690267647328280e+00
2.098564043092135289e+00
2.077563402203436382e+00
2.077563402203436382e+00
2.040062257759331033e+00
2.041562303537095335e+00
2.041562303537095335e+00
2.006686239204077182e+00
2.006686239204077182e+00
1.972935209204382367e+00
1.998060975981932996e+00
1.998060975981932996e+00
2.075500839259010633e+00
2.075500839259010633e+00
2.075688344981231115e+00
2.070625690481276759e+00
2.070625690481276759e+00
2.081501022370067400e+00
2.081501022370067400e+00
2.071750724814600098e+00
2.042874843592639156e+00
2.042874843592639156e+00
2.056937772759178884e+00
2.056937772759178884e+00
2.053375164036988387e+00
2.080000976592303541e+00
2.080000976592303541e+00
2.100439100314340557e+00
2.051500106814783120e+00
2.051500106814783120e+00
2.067813104647969080e+00
2.067813104647969080e+00
2.152565691091647082e+00
2.116564592425305591e+00
2.116564592425305591e+00
2.111501937925351680e+00
2.111501937925351680e+00
2.086563676870021755e+00
2.046812463759269729e+00
2.046812463759269729e+00
2.018499099703970678e+00
2.018499099703970678e+00
1.994873378704184130e+00
2.036499649037140980e+00
2.036499649037140980e+00
2.025061799981688893e+00
2.025061799981688893e+00
2.094251411481063307e+00
2.076438367870113488e+00
2.076438367870113488e+00
2.068375621814630971e+00
2.068375621814630971e+00
2.063500473036897098e+00
2.045499923703726353e+00
2.045499923703726353e+00
2.074938322092349186e+00
2.108689352092044000e+00
2.108689352092044000e+00
2.075125827814569668e+00
2.075125827814569668e+00
2.039874752037110550e+00
2.110751915036469750e+00
2.110751915036469750e+00
2.075688344981231115e+00
2.075688344981231115e+00
2.042499832148198191e+00
2.042312326425977265e+00
2.042312326425977265e+00
2.014186468092898252e+00
2.014186468092898252e+00
2.058812829981383707e+00
2.075500839259010633e+00
2.075500839259010633e+00
2.099689077425458628e+00
2.049812555314798335e+00
2.049812555314798335e+00
2.042874843592639156e+00
2.042874843592639156e+00
2.103439191869869163e+00
2.137190221869563977e+00
2.137190221869563977e+00
2.086188665425580790e+00
2.086188665425580790e+00
2.057875301370280852e+00
2.087501205481124167e+00
2.087501205481124167e+00
2.094063905758842381e+00
2.094063905758842381e+00
2.069125644703512901e+00
2.061250404370250422e+00
2.061250404370250422e+00
2.050937589648121673e+00
2.050937589648121673e+00
2.036312143314920498e+00
2.009123813592944341e+00
2.009123813592944341e+00
2.019624134037293572e+00
2.052625141148106458e+00
2.052625141148106458e+00
2.043437360759300603e+00
2.043437360759300603e+00
2.010811365092929126e+00
2.065000518814661401e+00
2.065000518814661401e+00
2.138690267647328280e+00
2.138690267647328280e+00
2.121627246925260390e+00
2.083751091036713632e+00
2.083751091036713632e+00
2.102501663258766751e+00
2.102501663258766751e+00
2.081126010925626435e+00
2.007436262092959556e+00
2.007436262092959556e+00
2.063875484481338063e+00
2.046249946592608282e+00
2.046249946592608282e+00
2.130815027314065802e+00
2.130815027314065802e+00
2.111314432203131197e+00
2.068000610370189563e+00
2.068000610370189563e+00
2.021686696981719766e+00
2.021686696981719766e+00
2.040062257759331033e+00
2.041562303537095335e+00
2.041562303537095335e+00
2.045687429425947279e+00
2.045687429425947279e+00
2.060500381481368493e+00
2.063875484481338063e+00
2.063875484481338063e+00
2.053937681203650278e+00
2.053937681203650278e+00
2.053375164036988387e+00
2.079625965147862576e+00
2.079625965147862576e+00
2.103814203314310571e+00
2.103814203314310571e+00
2.111501937925351680e+00
2.108126834925382109e+00
2.109064363536484965e+00
2.109064363536484965e+00
2.087501205481124167e+00
2.075500839259010633e+00
2.075500839259010633e+00
2.071938230536820580e+00
2.071938230536820580e+00
2.112251960814234053e+00
2.087126194036683202e+00
2.087126194036683202e+00
2.018874111148411643e+00
1.962059877315591949e+00
1.962059877315591949e+00
2.028624408703878945e+00
2.028624408703878945e+00
2.063312967314676172e+00
2.073250770592364400e+00
2.073250770592364400e+00
2.064062990203558545e+00
2.064062990203558545e+00
2.062562944425794242e+00
2.063125461592455689e+00
2.063125461592455689e+00
2.091813837092196593e+00
2.091813837092196593e+00
2.059187841425824672e+00
2.049437543870357370e+00
2.049437543870357370e+00
2.095938962981048093e+00
2.080188482314524023e+00
2.080188482314524023e+00
2.074375804925687294e+00
2.074375804925687294e+00
2.077750907925656865e+00
2.068938138981292418e+00
2.068938138981292418e+00
2.070063173314615312e+00
2.070063173314615312e+00
2.045124912259285388e+00
2.027311868648335125e+00
2.027311868648335125e+00
2.029561937314981801e+00
2.029561937314981801e+00
2.050187566759239299e+00
2.081688528092287882e+00
2.081688528092287882e+00
2.065563035981322848e+00
2.052625141148106458e+00
2.052625141148106458e+00
2.055625232703635064e+00
2.055625232703635064e+00
2.059187841425824672e+00
2.061250404370250422e+00
2.061250404370250422e+00
2.072688253425702509e+00
2.091251319925535146e+00
2.071563219092379615e+00
2.053562669759208870e+00
2.053562669759208870e+00
2.046812463759269729e+00
2.046812463759269729e+00
2.047749992370372585e+00
2.021311685537278358e+00
2.021311685537278358e+00
2.035562120426038124e+00
2.086563676870021755e+00
2.086563676870021755e+00
2.123877315591906623e+00
2.123877315591906623e+00
2.090876308481094181e+00
2.052437635425885976e+00
2.052437635425885976e+00
2.055062715536973172e+00
2.055062715536973172e+00
2.079813470870083059e+00
2.101376628925443413e+00
2.101376628925443413e+00
2.077563402203436382e+00
2.077563402203436382e+00
2.082438550981169811e+00
2.066875576036866669e+00
2.066875576036866669e+00
2.051500106814783120e+00
2.047374980925931620e+00
2.047374980925931620e+00
2.044374889370403459e+00
2.044374889370403459e+00
2.031624500259407551e+00
2.070063173314615312e+00
2.070063173314615312e+00
2.095376445814386202e+00
2.095376445814386202e+00
2.089001251258888470e+00
2.090126285592211808e+00
2.090126285592211808e+00
2.092376354258858040e+00
2.092376354258858040e+00
2.075313333536790150e+00
2.059750358592486119e+00
2.059750358592486119e+00
2.062000427259132795e+00
2.062000427259132795e+00
2.100814111758781966e+00
2.049625049592577852e+00
2.049625049592577852e+00
2.026374340037232713e+00
2.028249397259437981e+00
2.028249397259437981e+00
2.061812921536912313e+00
2.061812921536912313e+00
2.066875576036866669e+00
2.057687795648060813e+00
2.057687795648060813e+00
1.651737907040620179e+00
1.828368297372356288e+00
1.828368297372356288e+00
1.736302987762077699e+00
1.736302987762077699e+00
2.175628894924771739e+00
2.343259010589922919e+00
2.343259010589922919e+00
2.224005371257667729e+00
2.181816583758049433e+00
2.181816583758049433e+00
2.152003173924985191e+00
2.152003173924985191e+00
2.136065187536240639e+00
2.113001983703115982e+00
2.113001983703115982e+00
2.080375988036744506e+00
2.056000244148076028e+00
2.056000244148076028e+00
2.052625141148106458e+00
2.052625141148106458e+00
2.077938413647877791e+00
2.080938505203405953e+00
2.080938505203405953e+00
2.118252143925290376e+00
2.118252143925290376e+00
2.130252510147404355e+00
2.091063814203314664e+00
2.091063814203314664e+00
2.044374889370403459e+00
2.044374889370403459e+00
2.006311227759636218e+00
2.089001251258888470e+00
2.089001251258888470e+00
2.074188299203466812e+00
2.074188299203466812e+00
2.065188024536881883e+00
2.060312875759148010e+00
2.060312875759148010e+00
2.067813104647969080e+00
2.037249671926022909e+00
2.037249671926022909e+00
2.036124637592700015e+00
2.036124637592700015e+00
2.067625598925748598e+00
2.081876033814508364e+00
2.081876033814508364e+00
2.064062990203558545e+00
2.064062990203558545e+00
2.079813470870083059e+00
2.084876125370036970e+00
2.084876125370036970e+00
1.985123081148716606e+00
1.985123081148716606e+00
2.125564867091891408e+00
2.110564409314249268e+00
2.110564409314249268e+00
2.090313791314432290e+00
2.090313791314432290e+00
2.082626056703390294e+00
2.052062623981445011e+00
2.052062623981445011e+00
2.058437818536942299e+00
2.064625507370219992e+00
2.064625507370219992e+00
2.050750083925901190e+00
2.050750083925901190e+00
2.029374431592760875e+00
2.053937681203650278e+00
2.053937681203650278e+00
2.064625507370219992e+00
2.064625507370219992e+00
2.094813928647724754e+00
2.080000976592303541e+00
2.080000976592303541e+00
2.080938505203405953e+00
2.080938505203405953e+00
2.079625965147862576e+00
2.074750816370128703e+00
2.074750816370128703e+00
2.043624866481521085e+00
2.043624866481521085e+00
2.045874935148167761e+00
2.037062166203802427e+00
2.037062166203802427e+00
2.006123722037415735e+00
2.031061983092746104e+00
2.031061983092746104e+00
2.043249855037080120e+00
2.043249855037080120e+00
2.055062715536973172e+00
2.052812646870326940e+00
2.052812646870326940e+00
2.081688528092287882e+00
2.081688528092287882e+00
2.081501022370067400e+00
2.059000335703604190e+00
2.059000335703604190e+00
2.063687978759117581e+00
2.063687978759117581e+00
2.084876125370036970e+00
2.072875759147922992e+00
2.072875759147922992e+00
2.026561845759453195e+00
2.038374706259346247e+00
2.038374706259346247e+00
2.061812921536912313e+00
2.061812921536912313e+00
2.052250129703665493e+00
2.058812829981383707e+00
2.058812829981383707e+00
2.101751640369884377e+00
2.101751640369884377e+00
2.108689352092044000e+00
2.074563310647907777e+00
2.074563310647907777e+00
2.044749900814844423e+00
2.044749900814844423e+00
2.061812921536912313e+00
2.059937864314706601e+00
2.059937864314706601e+00
2.074375804925687294e+00
2.074375804925687294e+00
2.082813562425611220e+00
2.076438367870113488e+00
2.076438367870113488e+00
2.064813013092440475e+00
2.064813013092440475e+00
2.032374523148289480e+00
2.042312326425977265e+00
2.042312326425977265e+00
2.065375530259102366e+00
2.071188207647938206e+00
2.071188207647938206e+00
2.048875026703695923e+00
2.048875026703695923e+00
2.050750083925901190e+00
2.067250587481307633e+00
2.067250587481307633e+00
2.047187475203710694e+00
2.047187475203710694e+00
2.071188207647938206e+00
2.091438825647755628e+00
2.091438825647755628e+00
2.080375988036744506e+00
2.080375988036744506e+00
2.055250221259193655e+00
2.052625141148106458e+00
2.052625141148106458e+00
2.047937498092593067e+00
2.046062440870388244e+00
2.046062440870388244e+00
2.064813013092440475e+00
2.064813013092440475e+00
2.076063356425672080e+00
2.073625782036805365e+00
2.073625782036805365e+00
2.073625782036805365e+00
2.073625782036805365e+00
2.072688253425702509e+00
2.065750541703543330e+00
2.065750541703543330e+00
2.068750633259071936e+00
2.068750633259071936e+00
2.075313333536790150e+00
2.057125278481399366e+00
2.057125278481399366e+00
2.062562944425794242e+00
2.071563219092379615e+00
2.071563219092379615e+00
2.054875209814752690e+00
2.054875209814752690e+00
2.040062257759331033e+00
2.039499740592669585e+00
2.039499740592669585e+00
2.059000335703604190e+00
2.059000335703604190e+00
2.071188207647938206e+00
2.067813104647969080e+00
2.067813104647969080e+00
2.047187475203710694e+00
2.047187475203710694e+00
2.061062898648029940e+00
2.056750267036957958e+00
2.056750267036957958e+00
2.051875118259224084e+00
2.051875118259224084e+00
2.060312875759148010e+00
2.053187658314767905e+00
2.053187658314767905e+00
2.048125003814813549e+00
2.067625598925748598e+00
2.067625598925748598e+00
2.077563402203436382e+00
2.077563402203436382e+00
2.065750541703543330e+00
2.056187749870296511e+00
2.056187749870296511e+00
2.064625507370219992e+00
2.064625507370219992e+00
2.058437818536942299e+00
2.055062715536973172e+00
2.055062715536973172e+00
2.061062898648029940e+00
2.061062898648029940e+00
2.068938138981292418e+00
2.060687887203588975e+00
2.060687887203588975e+00
2.048125003814813549e+00
2.048125003814813549e+00
2.058812829981383707e+00
2.062000427259132795e+00
2.062000427259132795e+00
2.058250312814721816e+00
2.088813745536667987e+00
2.088813745536667987e+00
2.088438734092227023e+00
2.088438734092227023e+00
2.085438642536698417e+00
2.069500656147953865e+00
2.069500656147953865e+00
2.047562486648152102e+00
2.047562486648152102e+00
2.038187200537125765e+00
2.043437360759300603e+00
2.043437360759300603e+00
2.056000244148076028e+00
2.065188024536881883e+00
2.065188024536881883e+00
2.057125278481399366e+00
2.057125278481399366e+00
2.063875484481338063e+00
2.071938230536820580e+00
2.071938230536820580e+00
2.058250312814721816e+00
2.058250312814721816e+00
2.058437818536942299e+00
2.053187658314767905e+00
2.053187658314767905e+00
2.050937589648121673e+00
2.050937589648121673e+00
2.053000152592547423e+00
2.066313058870204777e+00
2.066313058870204777e+00
2.066313058870204777e+00
2.066313058870204777e+00
2.070813196203497242e+00
2.056562761314737475e+00
2.056562761314737475e+00
2.059750358592486119e+00
2.072500747703482027e+00
2.072500747703482027e+00
2.070063173314615312e+00
2.070063173314615312e+00
2.074750816370128703e+00
2.090876308481094181e+00
2.090876308481094181e+00
2.075500839259010633e+00
2.075500839259010633e+00
2.085251136814477935e+00
2.065188024536881883e+00
2.065188024536881883e+00
2.041562303537095335e+00
2.041562303537095335e+00
2.043062349314859638e+00
2.047187475203710694e+00
2.047187475203710694e+00
2.062750450148014725e+00
2.062750450148014725e+00
2.065000518814661401e+00
2.054500198370311725e+00
2.054500198370311725e+00
2.065563035981322848e+00
2.068188116092410045e+00
2.068188116092410045e+00
2.067063081759087151e+00
2.067063081759087151e+00
2.057687795648060813e+00
2.040249763481551515e+00
2.040249763481551515e+00
2.054312692648091243e+00
2.054312692648091243e+00
2.071000701925717724e+00
2.078125919370098273e+00
2.063125461592455689e+00
2.060875392925809457e+00
2.060875392925809457e+00
2.079063447981200685e+00
2.079063447981200685e+00
2.067813104647969080e+00
2.084688619647816488e+00
2.084688619647816488e+00
2.061062898648029940e+00
2.061062898648029940e+00
2.053937681203650278e+00
2.054875209814752690e+00
2.054875209814752690e+00
2.057312784203619849e+00
2.056937772759178884e+00
2.056937772759178884e+00
2.061437910092470904e+00
2.061437910092470904e+00
2.058812829981383707e+00
2.062750450148014725e+00
2.062750450148014725e+00
2.066688070314646186e+00
2.066688070314646186e+00
2.065563035981322848e+00
2.062937955870235207e+00
2.062937955870235207e+00
2.065563035981322848e+00
2.074750816370128703e+00
2.074750816370128703e+00
2.077000885036774935e+00
2.077000885036774935e+00
2.062937955870235207e+00
2.062187932981353278e+00
2.062187932981353278e+00
2.065375530259102366e+00
2.065375530259102366e+00
2.068750633259071936e+00
2.073250770592364400e+00
2.073250770592364400e+00
2.077750907925656865e+00
2.077750907925656865e+00
2.054125186925870761e+00
2.036312143314920498e+00
2.036312143314920498e+00
2.050937589648121673e+00
2.050937589648121673e+00
2.068188116092410045e+00
2.067438093203528116e+00
2.067438093203528116e+00
2.057125278481399366e+00
2.059937864314706601e+00
2.059937864314706601e+00
2.059000335703604190e+00
2.059000335703604190e+00
2.051875118259224084e+00
2.059937864314706601e+00
2.059937864314706601e+00
2.073625782036805365e+00
2.060875392925809457e+00
2.060875392925809457e+00
2.077375896481215900e+00
2.082626056703390294e+00
2.082626056703390294e+00
2.080375988036744506e+00
2.080375988036744506e+00
2.080375988036744506e+00
2.060125370036927084e+00
2.051125095370342155e+00
2.051125095370342155e+00
2.061625415814691387e+00
2.061625415814691387e+00
2.067813104647969080e+00
2.049437543870357370e+00
2.049437543870357370e+00
2.048687520981474997e+00
2.048687520981474997e+00
2.053937681203650278e+00
2.061437910092470904e+00
2.061437910092470904e+00
2.066313058870204777e+00
2.066313058870204777e+00
2.063125461592455689e+00
2.061812921536912313e+00
2.061812921536912313e+00
2.064813013092440475e+00
2.063125461592455689e+00
2.063125461592455689e+00
2.070625690481276759e+00
2.070625690481276759e+00
2.090688802758873255e+00
2.078500930814539238e+00
2.078500930814539238e+00
2.071938230536820580e+00
2.071938230536820580e+00
2.067438093203528116e+00
2.063312967314676172e+00
2.063312967314676172e+00
2.063500473036897098e+00
2.063500473036897098e+00
2.059375347148045154e+00
2.059187841425824672e+00
2.059187841425824672e+00
2.051312601092562637e+00
2.061437910092470904e+00
2.061437910092470904e+00
1.959622302926725235e+00
1.959622302926725235e+00
2.099501571703238145e+00
2.081501022370067400e+00
2.081501022370067400e+00
2.084126102481154597e+00
2.084126102481154597e+00
2.077375896481215900e+00
2.074375804925687294e+00
2.074375804925687294e+00
2.056937772759178884e+00
2.056937772759178884e+00
2.064250495925779028e+00
2.058812829981383707e+00
2.058812829981383707e+00
2.046437452314828764e+00
2.046437452314828764e+00
2.070438184759056277e+00
2.086938688314462720e+00
2.086938688314462720e+00
2.074750816370128703e+00
2.060875392925809457e+00
2.060875392925809457e+00
2.056750267036957958e+00
2.056750267036957958e+00
2.050000061037018817e+00
2.065000518814661401e+00
2.065000518814661401e+00
2.076625873592333971e+00
2.076625873592333971e+00
2.059375347148045154e+00
2.059375347148045154e+00
2.067250587481307633e+00
2.073625782036805365e+00
2.073625782036805365e+00
2.070063173314615312e+00
2.070063173314615312e+00
2.074938322092349186e+00
2.071375713370158689e+00
2.071375713370158689e+00
2.065750541703543330e+00
2.069500656147953865e+00
2.069500656147953865e+00
2.067625598925748598e+00
2.067625598925748598e+00
2.071938230536820580e+00
2.071000701925717724e+00
2.071000701925717724e+00
2.056562761314737475e+00
2.056562761314737475e+00
2.057500289925840331e+00
2.038937223426007694e+00
2.038937223426007694e+00
2.044374889370403459e+00
2.044374889370403459e+00
2.056562761314737475e+00
2.064250495925779028e+00
2.064250495925779028e+00
2.074188299203466812e+00
2.074188299203466812e+00
2.069500656147953865e+00
2.071750724814600098e+00
2.071750724814600098e+00
2.077375896481215900e+00
2.086938688314462720e+00
2.086938688314462720e+00
2.069500656147953865e+00
2.069500656147953865e+00
2.062937955870235207e+00
2.066500564592425260e+00
2.066500564592425260e+00
2.059000335703604190e+00
2.059000335703604190e+00
2.066125553147984295e+00
2.050562578203680708e+00
2.050562578203680708e+00
2.037249671926022909e+00
1.992435804315317194e+00
1.992435804315317194e+00
2.081688528092287882e+00
2.081688528092287882e+00
2.079438459425641650e+00
2.083751091036713632e+00
2.083751091036713632e+00
2.090876308481094181e+00
2.090876308481094181e+00
2.086376171147801273e+00
2.075875850703451597e+00
2.075875850703451597e+00
2.069688161870173904e+00
2.069688161870173904e+00
2.057125278481399366e+00
2.035937131870479533e+00
2.035937131870479533e+00
2.063500473036897098e+00
2.062562944425794242e+00
2.062562944425794242e+00
2.053187658314767905e+00
2.065938047425763813e+00
2.065938047425763813e+00
2.062000427259132795e+00
2.062000427259132795e+00
2.071375713370158689e+00
2.065750541703543330e+00
2.065750541703543330e+00
2.059000335703604190e+00
2.059000335703604190e+00
2.064250495925779028e+00
2.061625415814691387e+00
2.061625415814691387e+00
2.060875392925809457e+00
2.060875392925809457e+00
2.067250587481307633e+00
2.073063264870143918e+00
2.073063264870143918e+00
2.068750633259071936e+00
2.068750633259071936e+00
2.073438276314584883e+00
2.072313241981261545e+00
2.072313241981261545e+00
2.066688070314646186e+00
2.053562669759208870e+00
2.053562669759208870e+00
2.057125278481399366e+00
2.057125278481399366e+00
2.066875576036866669e+00
2.077188390758995418e+00
2.077188390758995418e+00
2.067063081759087151e+00
2.067063081759087151e+00
2.056750267036957958e+00
2.062187932981353278e+00
2.062187932981353278e+00
2.070813196203497242e+00
2.070813196203497242e+00
2.076625873592333971e+00
2.069313150425733383e+00
2.069313150425733383e+00
2.060125370036927084e+00
2.062937955870235207e+00
2.062937955870235207e+00
2.064813013092440475e+00
2.064813013092440475e+00
2.078313425092318756e+00
2.062000427259132795e+00
2.062000427259132795e+00
2.044374889370403459e+00
2.044374889370403459e+00
2.054312692648091243e+00
2.073813287759025847e+00
2.073813287759025847e+00
2.072688253425702509e+00
2.072688253425702509e+00
2.045874935148167761e+00
2.051687612537003602e+00
2.051687612537003602e+00
2.064062990203558545e+00
2.064062990203558545e+00
2.079438459425641650e+00
2.087688711203345093e+00
2.087688711203345093e+00
2.074938322092349186e+00
2.074938322092349186e+00
2.084688619647816488e+00
2.084688619647816488e+00
2.080000976592303541e+00
2.050375072481459782e+00
2.050375072481459782e+00
2.054312692648091243e+00
2.048687520981474997e+00
2.048687520981474997e+00
2.048875026703695923e+00
2.048875026703695923e+00
2.058625324259163225e+00
2.059375347148045154e+00
2.059375347148045154e+00
2.067813104647969080e+00
2.067813104647969080e+00
2.058812829981383707e+00
2.068563127536851454e+00
2.068563127536851454e+00
2.084313608203375079e+00
2.084313608203375079e+00
2.068375621814630971e+00
2.077375896481215900e+00
2.077375896481215900e+00
2.071375713370158689e+00
2.071375713370158689e+00
2.069875667592394830e+00
2.066125553147984295e+00
2.066125553147984295e+00
2.066875576036866669e+00
2.065938047425763813e+00
2.065938047425763813e+00
2.068375621814630971e+00
2.068375621814630971e+00
2.057312784203619849e+00
2.060687887203588975e+00
2.060687887203588975e+00
2.068563127536851454e+00
2.068563127536851454e+00
2.073438276314584883e+00
2.067438093203528116e+00
2.067438093203528116e+00
2.060875392925809457e+00
2.060875392925809457e+00
2.070813196203497242e+00
2.051125095370342155e+00
2.051125095370342155e+00
2.037812189092684800e+00
2.042687337870418673e+00
2.042687337870418673e+00
2.063687978759117581e+00
2.063687978759117581e+00
2.080938505203405953e+00
2.060875392925809457e+00
2.060875392925809457e+00
2.059000335703604190e+00
2.059000335703604190e+00
2.075125827814569668e+00
2.079250953703421168e+00
2.079250953703421168e+00
2.083751091036713632e+00
2.083751091036713632e+00
2.089751274147770843e+00
2.081313516647846917e+00
2.081313516647846917e+00
2.057875301370280852e+00
2.053187658314767905e+00
2.053187658314767905e+00
2.054500198370311725e+00
2.057875301370280852e+00
2.057875301370280852e+00
2.065563035981322848e+00
2.065563035981322848e+00
2.063875484481338063e+00
2.057875301370280852e+00
2.057875301370280852e+00
2.057500289925840331e+00
2.060500381481368493e+00
2.060500381481368493e+00
2.063500473036897098e+00
2.063500473036897098e+00
2.065000518814661401e+00
2.070063173314615312e+00
2.070063173314615312e+00
2.063875484481338063e+00
2.063875484481338063e+00
2.062750450148014725e+00
2.071188207647938206e+00
2.071188207647938206e+00
2.076438367870113488e+00
2.076438367870113488e+00
2.085063631092257452e+00
2.080563493758964988e+00
2.080563493758964988e+00
2.065750541703543330e+00
2.065750541703543330e+00
2.065938047425763813e+00
2.060125370036927084e+00
2.060125370036927084e+00
2.061062898648029940e+00
2.061062898648029940e+00
2.057687795648060813e+00
2.053000152592547423e+00
2.053000152592547423e+00
2.053375164036988387e+00
2.062375438703573760e+00
2.062375438703573760e+00
2.053375164036988387e+00
2.053375164036988387e+00
2.071000701925717724e+00
2.059187841425824672e+00
2.059187841425824672e+00
2.065375530259102366e+00
2.065375530259102366e+00
2.064438001647999510e+00
2.057312784203619849e+00
2.057312784203619849e+00
2.053750175481429796e+00
2.053750175481429796e+00
2.066500564592425260e+00
2.084688619647816488e+00
2.084688619647816488e+00
2.084126102481154597e+00
2.084126102481154597e+00
2.089188756981108952e+00
2.090688802758873255e+00
2.090688802758873255e+00
2.081501022370067400e+00
2.088063722647786058e+00
2.088063722647786058e+00
2.042874843592639156e+00
2.042874843592639156e+00
2.026936857203894160e+00
2.040624774925992480e+00
2.028061891537217498e+00
2.068000610370189563e+00
2.068000610370189563e+00
2.066125553147984295e+00
2.066125553147984295e+00
2.068563127536851454e+00
2.053375164036988387e+00
2.053375164036988387e+00
2.053375164036988387e+00
2.053375164036988387e+00
2.064250495925779028e+00
2.074938322092349186e+00
2.074938322092349186e+00
2.083563585314493150e+00
2.093126377147739969e+00
2.093126377147739969e+00
2.083001068147831703e+00
2.083001068147831703e+00
2.074188299203466812e+00
2.053000152592547423e+00
2.053000152592547423e+00
2.034437086092715230e+00
2.034437086092715230e+00
2.046624958037049247e+00
2.067625598925748598e+00
2.067625598925748598e+00
2.088438734092227023e+00
2.088438734092227023e+00
2.080375988036744506e+00
2.066875576036866669e+00
2.066875576036866669e+00
2.074750816370128703e+00
2.074750816370128703e+00
2.065938047425763813e+00
2.057687795648060813e+00
2.057687795648060813e+00
2.070625690481276759e+00
2.051875118259224084e+00
2.051875118259224084e+00
2.040249763481551515e+00
2.040249763481551515e+00
2.061250404370250422e+00
2.069875667592394830e+00
2.069875667592394830e+00
2.047749992370372585e+00
2.047749992370372585e+00
2.064625507370219992e+00
2.064438001647999510e+00
2.064438001647999510e+00
2.062937955870235207e+00
2.062937955870235207e+00
2.058812829981383707e+00
2.064438001647999510e+00
2.064438001647999510e+00
2.059750358592486119e+00
2.059750358592486119e+00
2.065938047425763813e+00
2.050750083925901190e+00
2.050750083925901190e+00
2.063312967314676172e+00
2.096501480147709540e+00
2.096501480147709540e+00
2.087126194036683202e+00
2.087126194036683202e+00
2.074000793481246330e+00
2.058062807092501334e+00
2.058062807092501334e+00
2.063312967314676172e+00
2.071188207647938206e+00
2.071188207647938206e+00
2.086001159703360308e+00
2.074188299203466812e+00
2.074188299203466812e+00
2.071188207647938206e+00
2.071188207647938206e+00
2.059187841425824672e+00
2.056000244148076028e+00
2.056000244148076028e+00
2.069875667592394830e+00
2.069875667592394830e+00
2.079438459425641650e+00
2.051500106814783120e+00
2.051500106814783120e+00
2.043624866481521085e+00
2.043624866481521085e+00
2.056375255592516993e+00
2.033312051759392336e+00
2.033312051759392336e+00
2.036687154759361462e+00
2.036687154759361462e+00
2.085438642536698417e+00
2.098001525925473842e+00
2.098001525925473842e+00
2.046062440870388244e+00
2.043437360759300603e+00
2.043437360759300603e+00
2.046249946592608282e+00
2.046249946592608282e+00
2.063687978759117581e+00
2.083563585314493150e+00
2.083563585314493150e+00
2.074375804925687294e+00
2.074375804925687294e+00
2.076063356425672080e+00
2.071375713370158689e+00
2.071375713370158689e+00
2.090688802758873255e+00
2.090688802758873255e+00
2.077188390758995418e+00
2.065563035981322848e+00
2.065563035981322848e+00
2.064062990203558545e+00
2.064062990203558545e+00
2.074375804925687294e+00
2.062375438703573760e+00
2.062375438703573760e+00
2.056937772759178884e+00
2.092751365703299449e+00
2.092751365703299449e+00
2.085626148258918899e+00
2.085626148258918899e+00
2.063875484481338063e+00
2.050000061037018817e+00
2.050000061037018817e+00
2.047937498092593067e+00
2.047937498092593067e+00
2.046437452314828764e+00
2.051687612537003602e+00
2.051687612537003602e+00
2.061437910092470904e+00
2.061437910092470904e+00
2.069688161870173904e+00
2.056750267036957958e+00
2.045312417981505870e+00
2.046812463759269729e+00
2.046812463759269729e+00
2.084876125370036970e+00
2.088063722647786058e+00
2.088063722647786058e+00
2.086376171147801273e+00
2.086376171147801273e+00
2.074563310647907777e+00
2.050375072481459782e+00
2.050375072481459782e+00
2.068938138981292418e+00
2.068938138981292418e+00
2.054687704092532208e+00
2.054687704092532208e+00
2.054687704092532208e+00
2.051500106814783120e+00
2.051500106814783120e+00
2.034999603259376677e+00
2.069313150425733383e+00
2.069313150425733383e+00
2.062187932981353278e+00
2.062187932981353278e+00
2.074563310647907777e+00
2.074750816370128703e+00
2.074750816370128703e+00
2.082438550981169811e+00
2.075500839259010633e+00
2.075500839259010633e+00
2.052250129703665493e+00
2.052250129703665493e+00
2.093501388592180934e+00
2.092001342814417075e+00
2.092001342814417075e+00
2.042687337870418673e+00
2.042687337870418673e+00
2.020561662648396428e+00
2.016624042481765411e+00
2.016624042481765411e+00
2.012498916592913467e+00
2.053937681203650278e+00
2.053937681203650278e+00
2.034062074648274265e+00
2.034062074648274265e+00
2.039124729148228621e+00
2.068938138981292418e+00
2.068938138981292418e+00
2.087688711203345093e+00
2.087688711203345093e+00
2.079625965147862576e+00
2.078875942258980203e+00
2.078875942258980203e+00
2.059937864314706601e+00
2.059937864314706601e+00
2.075875850703451597e+00
2.111876949369793088e+00
2.111876949369793088e+00
2.089188756981108952e+00
2.089188756981108952e+00
2.071188207647938206e+00
2.061625415814691387e+00
2.061625415814691387e+00
2.073438276314584883e+00
2.057875301370280852e+00
2.057875301370280852e+00
2.062187932981353278e+00
2.048875026703695923e+00
2.048875026703695923e+00
2.074750816370128703e+00
2.074750816370128703e+00
2.056375255592516993e+00
2.036874660481581945e+00
2.036874660481581945e+00
2.034999603259376677e+00
2.034999603259376677e+00
2.025624317148350340e+00
2.050562578203680708e+00
2.050562578203680708e+00
2.082813562425611220e+00
2.138315256202887316e+00
2.138315256202887316e+00
2.102876674703207716e+00
2.102876674703207716e+00
2.074375804925687294e+00
2.062187932981353278e+00
2.062187932981353278e+00
2.075688344981231115e+00
2.075688344981231115e+00
2.073813287759025847e+00
2.065750541703543330e+00
2.065750541703543330e+00
2.064062990203558545e+00
2.064062990203558545e+00
2.056375255592516993e+00
2.052625141148106458e+00
2.052625141148106458e+00
2.036874660481581945e+00
2.030311960203863730e+00
2.030311960203863730e+00
2.053375164036988387e+00
2.053375164036988387e+00
2.065000518814661401e+00
2.070063173314615312e+00
2.070063173314615312e+00
2.048687520981474997e+00
2.048687520981474997e+00
2.035187108981597159e+00
2.047374980925931620e+00
2.047374980925931620e+00
2.055437726981414581e+00
2.055437726981414581e+00
2.036312143314920498e+00
2.067438093203528116e+00
2.067438093203528116e+00
2.067438093203528116e+00
2.067438093203528116e+00
2.056000244148076028e+00
2.076063356425672080e+00
2.076063356425672080e+00
2.080563493758964988e+00
2.091813837092196593e+00
2.091813837092196593e+00
2.096876491592150504e+00
2.096876491592150504e+00
2.077188390758995418e+00
2.060500381481368493e+00
2.060500381481368493e+00
2.066313058870204777e+00
2.066313058870204777e+00
2.065750541703543330e+00
2.054687704092532208e+00
2.054687704092532208e+00
2.070250679036835795e+00
2.070250679036835795e+00
2.037999694814905283e+00
2.027124362926114642e+00
2.040437269203771997e+00
2.040437269203771997e+00
2.039874752037110550e+00
2.039874752037110550e+00
2.021124179815057875e+00
2.008936307870723859e+00
2.008936307870723859e+00
2.062562944425794242e+00
2.062562944425794242e+00
2.130627521591845319e+00
2.138315256202887316e+00
2.138315256202887316e+00
2.079813470870083059e+00
2.079813470870083059e+00
2.041187292092654371e+00
2.022061708426160731e+00
2.022061708426160731e+00
2.018686605426191161e+00
2.047749992370372585e+00
2.047749992370372585e+00
2.063500473036897098e+00
2.063500473036897098e+00
2.064250495925779028e+00
2.061625415814691387e+00
2.061625415814691387e+00
2.056187749870296511e+00
2.056187749870296511e+00
2.053562669759208870e+00
2.037624683370464318e+00
2.037624683370464318e+00
2.032749534592730889e+00
2.032749534592730889e+00
2.046437452314828764e+00
2.056187749870296511e+00
2.056187749870296511e+00
2.065750541703543330e+00
2.064438001647999510e+00
2.064438001647999510e+00
2.035749626148258606e+00
2.035749626148258606e+00
2.045124912259285388e+00
2.084126102481154597e+00
2.084126102481154597e+00
2.093313882869960452e+00
2.093313882869960452e+00
2.080188482314524023e+00
2.070438184759056277e+00
2.070438184759056277e+00
2.045499923703726353e+00
2.045499923703726353e+00
2.065563035981322848e+00
2.087313699758903685e+00
2.087313699758903685e+00
2.079063447981200685e+00
2.079063447981200685e+00
2.094438917203283790e+00
2.066313058870204777e+00
2.066313058870204777e+00
2.026374340037232713e+00
2.038562211981566730e+00
2.038562211981566730e+00
2.054312692648091243e+00
2.054312692648091243e+00
2.060500381481368493e+00
2.045499923703726353e+00
2.045499923703726353e+00
2.050750083925901190e+00
2.064062990203558545e+00
2.064062990203558545e+00
2.046624958037049247e+00
2.025811822870570822e+00
2.025811822870570822e+00
2.064438001647999510e+00
2.064438001647999510e+00
2.093876400036621899e+00
2.098564043092135289e+00
2.098564043092135289e+00
2.045312417981505870e+00
2.045312417981505870e+00
2.057687795648060813e+00
2.119564683980834197e+00
2.119564683980834197e+00
2.145440473647266977e+00
2.145440473647266977e+00
2.081501022370067400e+00
2.052625141148106458e+00
2.052625141148106458e+00
2.051125095370342155e+00
2.051125095370342155e+00
2.068938138981292418e+00
2.039124729148228621e+00
2.039124729148228621e+00
1.974060243537705706e+00
2.006498733481856700e+00
2.006498733481856700e+00
2.055812738425855546e+00
2.055812738425855546e+00
2.111689443647572162e+00
2.112439466536454535e+00
2.112439466536454535e+00
2.037062166203802427e+00
2.037062166203802427e+00
2.020936674092837393e+00
2.021124179815057875e+00
2.021124179815057875e+00
2.059750358592486119e+00
2.059750358592486119e+00
2.097626514481032878e+00
2.110001892147587377e+00
2.110001892147587377e+00
2.105314249092073986e+00
2.091438825647755628e+00
2.091438825647755628e+00
2.087688711203345093e+00
2.087688711203345093e+00
2.046624958037049247e+00
1.999936033204138486e+00
1.999936033204138486e+00
2.031812005981628033e+00
2.031812005981628033e+00
2.068000610370189563e+00
2.105126743369853504e+00
2.105126743369853504e+00
2.086563676870021755e+00
2.086563676870021755e+00
2.072500747703482027e+00
2.082813562425611220e+00
2.082813562425611220e+00
2.018874111148411643e+00
2.018874111148411643e+00
2.004811181981871915e+00
2.072500747703482027e+00
2.072500747703482027e+00
2.102876674703207716e+00
2.157815851313821920e+00
2.157815851313821920e+00
2.088251228370006540e+00
2.088251228370006540e+00
2.040812280648213406e+00
2.056562761314737475e+00
2.056562761314737475e+00
2.096313974425489057e+00
2.090876308481094181e+00
2.090876308481094181e+00
2.066313058870204777e+00
2.066313058870204777e+00
2.071188207647938206e+00
2.076438367870113488e+00
2.076438367870113488e+00
2.058812829981383707e+00
2.058812829981383707e+00
2.079063447981200685e+00
2.082063539536728847e+00
2.082063539536728847e+00
2.059937864314706601e+00
2.059937864314706601e+00
2.090126285592211808e+00
2.110564409314249268e+00
2.110564409314249268e+00
2.042312326425977265e+00
1.967122531815546083e+00
1.967122531815546083e+00
1.989060701315347846e+00
1.989060701315347846e+00
2.062000427259132795e+00
2.061062898648029940e+00
2.061062898648029940e+00
2.119752189703054679e+00
2.119752189703054679e+00
2.095188940092165719e+00
2.081876033814508364e+00
2.081876033814508364e+00
2.146753013702810797e+00
2.146753013702810797e+00
2.187254249702444309e+00
2.238068300424207457e+00
2.238068300424207457e+00
2.188004272591326682e+00
2.174128849147007880e+00
2.174128849147007880e+00
2.152565691091647082e+00
2.152565691091647082e+00
2.096501480147709540e+00
2.014561479537339217e+00
2.014561479537339217e+00
1.945934385204626693e+00
1.945934385204626693e+00
1.937121616260262025e+00
1.996560930204168693e+00
1.996560930204168693e+00
1.977247840815454571e+00
1.919871089815973431e+00
1.919871089815973431e+00
1.916870998260445047e+00
2.028061891537217498e+00
2.028061891537217498e+00
2.022249214148381213e+00
2.022249214148381213e+00
2.068750633259071936e+00
2.097251503036591469e+00
2.097251503036591469e+00
2.114689535203100768e+00
2.114689535203100768e+00
2.139627796258431136e+00
2.152190679647205673e+00
2.152190679647205673e+00
2.179379009369182274e+00
2.179379009369182274e+00
2.153503219702749494e+00
2.096501480147709540e+00
2.096501480147709540e+00
2.052062623981445011e+00
2.138502761925107798e+00
2.138502761925107798e+00
2.132877590258491995e+00
2.132877590258491995e+00
1.973872737815485001e+00
1.941059236426893042e+00
1.941059236426893042e+00
1.977622852259895758e+00
1.977622852259895758e+00
2.036499649037140980e+00
2.017374065370647340e+00
2.017374065370647340e+00
1.964872463148899850e+00
1.964872463148899850e+00
1.975185277871028822e+00
2.053750175481429796e+00
2.053750175481429796e+00
2.036499649037140980e+00
2.036499649037140980e+00
2.021686696981719766e+00
2.030686971648304695e+00
2.030686971648304695e+00
2.243130954924161813e+00
2.204879787591174090e+00
2.204879787591174090e+00
2.155753288369396170e+00
2.155753288369396170e+00
2.082438550981169811e+00
2.087501205481124167e+00
2.087501205481124167e+00
2.090313791314432290e+00
2.087688711203345093e+00
2.087688711203345093e+00
2.095938962981048093e+00
2.095938962981048093e+00
2.119752189703054679e+00
2.102126651814325342e+00
2.102126651814325342e+00
2.103251686147648680e+00
2.103251686147648680e+00
2.003686147648549021e+00
1.988123172704245212e+00
1.988123172704245212e+00
1.918371044038209350e+00
1.918371044038209350e+00
1.895495345927304953e+00
1.991123264259773595e+00
1.991123264259773595e+00
2.111126926480910715e+00
2.132315073091830104e+00
2.132315073091830104e+00
2.179379009369182274e+00
2.179379009369182274e+00
2.316258186590166801e+00
2.212755027924436124e+00
2.212755027924436124e+00
2.116189580980865070e+00
2.116189580980865070e+00
2.028624408703878945e+00
1.967122531815546083e+00
1.967122531815546083e+00
1.969560106204413019e+00
1.882932462538529750e+00
1.882932462538529750e+00
1.904683126316110808e+00
1.904683126316110808e+00
2.100626606036561483e+00
2.127814935758537640e+00
2.127814935758537640e+00
2.132877590258491995e+00
2.132877590258491995e+00
2.123502304147465658e+00
2.166441114535965884e+00
2.166441114535965884e+00
2.089938779869991325e+00
2.089938779869991325e+00
1.925121250038148268e+00
1.800054933317056793e+00
1.800054933317056793e+00
1.846181340983306329e+00
1.846181340983306329e+00
2.098751548814355772e+00
2.115814569536424106e+00
2.115814569536424106e+00
2.016249031037324002e+00
2.160253425702688634e+00
2.160253425702688634e+00
2.181441572313608468e+00
2.181441572313608468e+00
2.067813104647969080e+00
2.003686147648549021e+00
2.003686147648549021e+00
2.005561204870754288e+00
2.005561204870754288e+00
2.047937498092593067e+00
2.147315530869472244e+00
2.147315530869472244e+00
2.189691824091311467e+00
2.189691824091311467e+00
2.092001342814417075e+00
2.087313699758903685e+00
2.087313699758903685e+00
2.084126102481154597e+00
2.090313791314432290e+00
2.090313791314432290e+00
2.065750541703543330e+00
2.065750541703543330e+00
2.035749626148258606e+00
1.962059877315591949e+00
1.962059877315591949e+00
1.960184820093386682e+00
1.960184820093386682e+00
2.034249580370494748e+00
2.121439741203039464e+00
2.121439741203039464e+00
2.088063722647786058e+00
2.088063722647786058e+00
2.022436719870601696e+00
1.967685048982207752e+00
1.967685048982207752e+00
1.974997772148808339e+00
1.974997772148808339e+00
2.075875850703451597e+00
2.120502212591937052e+00
2.120502212591937052e+00
2.150690633869442259e+00
2.151253151036103706e+00
2.151253151036103706e+00
2.219880245368816230e+00
2.219880245368816230e+00
2.218192693868831444e+00
2.155565782647175688e+00
2.155565782647175688e+00
2.062562944425794242e+00
2.062562944425794242e+00
1.888182622760704366e+00
1.854806604205450737e+00
1.854806604205450737e+00
1.943121799371318792e+00
1.943121799371318792e+00
2.013998962370677770e+00
2.036687154759361462e+00
2.036687154759361462e+00
1.990935758537552891e+00
1.973872737815485001e+00
1.973872737815485001e+00
2.040999786370433888e+00
2.040999786370433888e+00
2.116564592425305591e+00
2.152378185369426600e+00
2.152378185369426600e+00
2.104751731925412539e+00
2.104751731925412539e+00
2.170753746147038310e+00
2.165503585924863472e+00
2.165503585924863472e+00
2.069688161870173904e+00
2.069688161870173904e+00
1.947809442426831961e+00
1.940496719260231373e+00
1.940496719260231373e+00
1.975560289315469786e+00
1.975560289315469786e+00
2.065750541703543330e+00
2.187441755424664791e+00
2.187441755424664791e+00
2.173003814813684542e+00
2.026186834315011787e+00
2.026186834315011787e+00
1.966747520371105118e+00
1.966747520371105118e+00
2.011748893704031538e+00
2.063312967314676172e+00
2.063312967314676172e+00
2.022811731315042216e+00
2.022811731315042216e+00
2.007998779259621003e+00
2.163066011535996758e+00
2.163066011535996758e+00
2.172253791924802613e+00
2.172253791924802613e+00
2.159503402813806705e+00
2.112439466536454535e+00
2.112439466536454535e+00
2.075688344981231115e+00
2.035374614703817642e+00
2.035374614703817642e+00
1.935434064760277240e+00
1.935434064760277240e+00
1.801742484817041579e+00
1.811680288094729585e+00
1.811680288094729585e+00
1.995060884426404613e+00
2.077563402203436382e+00
2.077563402203436382e+00
2.111501937925351680e+00
2.111501937925351680e+00
2.213880062257759462e+00
2.202817224646748340e+00
2.202817224646748340e+00
2.045499923703726353e+00
2.045499923703726353e+00
1.915933469649342413e+00
2.070813196203497242e+00
2.070813196203497242e+00
2.209379924924466998e+00
2.209379924924466998e+00
2.202817224646748340e+00
2.119939695425275605e+00
2.119939695425275605e+00
2.141315347758415477e+00
2.141315347758415477e+00
1.931121433149205036e+00
2.032374523148289480e+00
2.032374523148289480e+00
2.044187383648182976e+00
2.008561296426282894e+00
2.008561296426282894e+00
1.954372142704550397e+00
1.954372142704550397e+00
2.011936399426252020e+00
2.065000518814661401e+00
2.065000518814661401e+00
2.048687520981474997e+00
2.048687520981474997e+00
2.086938688314462720e+00
2.189129306924649576e+00
2.189129306924649576e+00
2.228880520035401602e+00
2.228880520035401602e+00
2.159128391369365740e+00
2.166628620258186366e+00
2.166628620258186366e+00
2.030311960203863730e+00
2.030311960203863730e+00
1.893245277260658721e+00
1.814492873928037486e+00
1.814492873928037486e+00
1.886307565538499098e+00
1.962247383037812432e+00
1.962247383037812432e+00
1.959809808648945717e+00
1.959809808648945717e+00
2.000123538926358524e+00
1.996185918759727951e+00
1.996185918759727951e+00
2.148253059480575100e+00
2.110564409314249268e+00
2.110564409314249268e+00
2.169253700369274007e+00
2.169253700369274007e+00
2.120127201147496088e+00
2.080750999481185470e+00
2.080750999481185470e+00
2.010061342204047197e+00
2.010061342204047197e+00
1.966185003204443671e+00
2.031812005981628033e+00
2.031812005981628033e+00
2.113939512314218838e+00
2.113939512314218838e+00
2.095751457258827610e+00
2.146753013702810797e+00
2.146753013702810797e+00
2.190816858424634361e+00
2.160440931424909561e+00
2.160440931424909561e+00
2.192504409924619146e+00
2.192504409924619146e+00
2.176003906369212704e+00
2.093688894314401416e+00
2.093688894314401416e+00
2.111876949369793088e+00
2.111876949369793088e+00
2.036124637592700015e+00
2.035937131870479533e+00
2.035937131870479533e+00
2.070063173314615312e+00
2.070063173314615312e+00
2.129877498702963390e+00
1.935246559038056535e+00
1.935246559038056535e+00
1.781866878261665788e+00
1.783741935483871055e+00
1.783741935483871055e+00
2.006686239204077182e+00
2.006686239204077182e+00
2.058812829981383707e+00
1.947059419537949809e+00
1.947059419537949809e+00
2.042312326425977265e+00
2.042312326425977265e+00
2.129314981536301499e+00
2.097814020203253360e+00
2.097814020203253360e+00
2.084126102481154597e+00
2.084126102481154597e+00
2.072688253425702509e+00
2.036499649037140980e+00
2.036499649037140980e+00
2.173941343424787398e+00
2.101751640369884377e+00
2.101751640369884377e+00
2.153315713980529011e+00
2.153315713980529011e+00
2.156128299813837135e+00
2.065375530259102366e+00
2.065375530259102366e+00
1.953809625537888728e+00
1.953809625537888728e+00
2.080188482314524023e+00
2.197567064424573946e+00
2.197567064424573946e+00
2.082438550981169811e+00
2.082438550981169811e+00
2.032562028870509963e+00
2.089376262703329878e+00
2.089376262703329878e+00
2.058250312814721816e+00
2.058250312814721816e+00
2.110751915036469750e+00
2.102314157536546269e+00
2.041749809259315818e+00
2.041749809259315818e+00
2.047937498092593067e+00
2.047937498092593067e+00
2.024499282815027001e+00
2.062375438703573760e+00
2.062375438703573760e+00
2.204692281868953607e+00
2.198317087313455875e+00
2.198317087313455875e+00
2.069500656147953865e+00
2.069500656147953865e+00
2.122377269814142320e+00
2.025811822870570822e+00
2.025811822870570822e+00
1.922683675649281332e+00
1.922683675649281332e+00
1.845993835261085847e+00
1.828368297372356288e+00
1.828368297372356288e+00
1.971247657704397804e+00
1.971247657704397804e+00
2.161565965758232455e+00
2.210504959257789892e+00
2.210504959257789892e+00
2.222692831202123909e+00
2.222692831202123909e+00
2.113376995147556947e+00
2.091438825647755628e+00
2.091438825647755628e+00
1.986435621204260427e+00
1.839431134983367411e+00
1.839431134983367411e+00
2.047374980925931620e+00
2.047374980925931620e+00
2.035937131870479533e+00
2.084876125370036970e+00
2.084876125370036970e+00
2.228130497146519229e+00
2.228130497146519229e+00
2.225880428479872997e+00
2.164941068758201581e+00
2.164941068758201581e+00
2.115814569536424106e+00
2.115814569536424106e+00
1.932621478926969116e+00
1.877869808038575394e+00
1.877869808038575394e+00
2.053750175481429796e+00
2.098001525925473842e+00
2.098001525925473842e+00
2.140190313425092139e+00
2.140190313425092139e+00
2.108689352092044000e+00
1.917996032593768163e+00
1.909183263649403273e+00
1.909183263649403273e+00
1.920808618427076064e+00
1.920808618427076064e+00
1.972185186315500438e+00
2.229443037202063049e+00
2.229443037202063049e+00
2.311008026367992407e+00
2.311008026367992407e+00
2.226442945646534444e+00
2.281007110812707683e+00
2.281007110812707683e+00
2.254568803979613900e+00
2.131377544480727693e+00
2.131377544480727693e+00
2.016624042481765411e+00
2.016624042481765411e+00
1.864556901760918040e+00
1.886495071260719580e+00
1.886495071260719580e+00
1.918558549760429832e+00
1.918558549760429832e+00
2.238818323313089387e+00
2.142440382091738371e+00
2.142440382091738371e+00
2.074563310647907777e+00
2.074563310647907777e+00
2.136065187536240639e+00
1.927933835871455948e+00
1.927933835871455948e+00
1.733115390484328611e+00
1.980810449537644624e+00
1.980810449537644624e+00
2.183879146702475182e+00
2.183879146702475182e+00
2.204504776146733125e+00
2.111689443647572162e+00
2.111689443647572162e+00
2.080188482314524023e+00
2.080188482314524023e+00
2.225880428479872997e+00
2.104751731925412539e+00
2.104751731925412539e+00
1.914433423871578110e+00
1.887620105594042919e+00
1.887620105594042919e+00
2.054125186925870761e+00
2.054125186925870761e+00
2.087313699758903685e+00
2.308382946256904766e+00
2.308382946256904766e+00
2.273319376201666131e+00
2.273319376201666131e+00
2.198317087313455875e+00
2.134377636036255854e+00
2.134377636036255854e+00
1.963747428815576734e+00
1.963747428815576734e+00
1.769679006317331549e+00
1.925496261482589233e+00
1.925496261482589233e+00
1.994685872981963648e+00
2.060125370036927084e+00
2.060125370036927084e+00
2.051875118259224084e+00
2.051875118259224084e+00
2.231130588702047834e+00
2.078875942258980203e+00
2.078875942258980203e+00
2.079250953703421168e+00
2.079250953703421168e+00
2.014373973815118735e+00
1.999373516037476817e+00
1.999373516037476817e+00
2.106814294869838289e+00
2.106814294869838289e+00
2.005561204870754288e+00
2.005561204870754288e+00
2.061062898648029940e+00
2.015311502426221590e+00
2.015311502426221590e+00
2.222692831202123909e+00
2.367634754478591397e+00
2.367634754478591397e+00
2.280069582201605716e+00
2.280069582201605716e+00
2.122377269814142320e+00
1.883494979705191197e+00
1.883494979705191197e+00
1.861931821649830621e+00
1.861931821649830621e+00
1.811117770928067916e+00
1.814117862483596522e+00
1.814117862483596522e+00
1.981747978148747258e+00
1.981747978148747258e+00
2.186316721091342341e+00
2.263569078646198829e+00
2.263569078646198829e+00
2.155565782647175688e+00
2.155565782647175688e+00
1.994310861537522683e+00
2.026561845759453195e+00
2.026561845759453195e+00
2.004811181981871915e+00
2.030311960203863730e+00
2.030311960203863730e+00
1.975935300759910973e+00
1.975935300759910973e+00
2.226442945646534444e+00
2.296007568590349823e+00
2.296007568590349823e+00
2.422386425366985119e+00
2.422386425366985119e+00
2.228693014313181120e+00
2.037999694814905283e+00
2.037999694814905283e+00
1.913870906704916663e+00
1.913870906704916663e+00
1.869244544816431208e+00
2.026186834315011787e+00
2.026186834315011787e+00
1.971810174871059473e+00
1.955872188482314478e+00
1.955872188482314478e+00
1.935246559038056535e+00
1.935246559038056535e+00
1.935621570482497722e+00
2.064438001647999510e+00
2.064438001647999510e+00
2.245006012146367080e+00
2.245006012146367080e+00
2.338758873256630455e+00
2.052812646870326940e+00
2.052812646870326940e+00
1.962247383037812432e+00
1.962247383037812432e+00
1.984373058259834677e+00
2.105876766258735877e+00
2.105876766258735877e+00
2.004061159092989985e+00
2.004061159092989985e+00
2.046624958037049247e+00
2.238630817590868904e+00
2.238630817590868904e+00
2.207692373424482213e+00
2.296570085757011714e+00
2.296570085757011714e+00
2.102126651814325342e+00
1.968810083315530868e+00
1.968810083315530868e+00
1.956434705648976147e+00
1.956434705648976147e+00
2.035374614703817642e+00
2.194379467146824858e+00
2.194379467146824858e+00
2.133252601702932960e+00
2.133252601702932960e+00
2.066500564592425260e+00
2.113564500869777874e+00
2.113564500869777874e+00
1.985498092593157793e+00
1.985498092593157793e+00
1.967872554704428234e+00
2.050375072481459782e+00
2.050375072481459782e+00
2.035937131870479533e+00
2.035937131870479533e+00
2.025061799981688893e+00
2.085251136814477935e+00
2.085251136814477935e+00
1.993373332926419828e+00
1.993373332926419828e+00
2.049250038148136888e+00
2.062375438703573760e+00
2.062375438703573760e+00
2.061437910092470904e+00
2.050562578203680708e+00
2.050562578203680708e+00
2.027499374370555607e+00
2.027499374370555607e+00
2.127252418591876193e+00
2.215567613757744247e+00
2.215567613757744247e+00
2.090688802758873255e+00
2.090688802758873255e+00
2.028249397259437981e+00
2.097251503036591469e+00
2.097251503036591469e+00
2.264131595812860720e+00
2.264131595812860720e+00
2.153503219702749494e+00
2.004811181981871915e+00
2.004811181981871915e+00
1.988310678426465694e+00
1.988310678426465694e+00
1.958122257148960932e+00
1.924933744315927786e+00
1.924933744315927786e+00
1.938434156315805401e+00
2.111501937925351680e+00
2.111501937925351680e+00
2.001998596148564236e+00
2.001998596148564236e+00
2.024686788537247928e+00
2.085626148258918899e+00
2.085626148258918899e+00
2.184441663869136629e+00
2.184441663869136629e+00
2.312133060701315301e+00
1.939371684926908257e+00
1.939371684926908257e+00
1.995435895870845799e+00
1.995435895870845799e+00
2.003873653370769503e+00
1.995810907315286764e+00
1.995810907315286764e+00
2.108876857814264483e+00
2.108876857814264483e+00
2.149003082369457029e+00
2.095938962981048093e+00
2.095938962981048093e+00
2.074000793481246330e+00
2.074000793481246330e+00
2.036499649037140980e+00
2.002748619037446165e+00
2.002748619037446165e+00
2.007623767815180038e+00
2.092188848536637558e+00
2.092188848536637558e+00
2.156690816980498582e+00
2.156690816980498582e+00
2.117877132480849411e+00
2.062000427259132795e+00
2.062000427259132795e+00
2.084126102481154597e+00
2.084126102481154597e+00
2.040437269203771997e+00
2.037999694814905283e+00
2.037999694814905283e+00
2.085626148258918899e+00
2.085626148258918899e+00
2.113376995147556947e+00
2.173378826258125951e+00
2.173378826258125951e+00
2.128752464369640052e+00
2.128752464369640052e+00
2.053000152592547423e+00
2.013811456648457288e+00
2.013811456648457288e+00
2.022999237037263143e+00
2.133065095980712478e+00
2.133065095980712478e+00
2.173566331980346433e+00
2.173566331980346433e+00
2.113376995147556947e+00
2.062750450148014725e+00
2.062750450148014725e+00
2.076438367870113488e+00
2.076438367870113488e+00
2.016811548203985893e+00
1.980060426648762473e+00
1.980060426648762473e+00
1.951934568315683460e+00
1.951934568315683460e+00
1.959059785760063566e+00
2.014748985259559699e+00
2.014748985259559699e+00
2.094063905758842381e+00
2.101376628925443413e+00
2.101376628925443413e+00
2.109251869258705447e+00
2.109251869258705447e+00
2.110001892147587377e+00
2.089188756981108952e+00
2.089188756981108952e+00
2.090501297036652772e+00
2.108501846369823074e+00
2.108501846369823074e+00
2.214442579424420909e+00
2.214442579424420909e+00
2.089563768425550361e+00
2.126877407147435228e+00
2.126877407147435228e+00
2.112626972258675018e+00
2.112626972258675018e+00
2.076250862147892562e+00
1.968810083315530868e+00
1.968810083315530868e+00
2.034624591814935712e+00
2.036124637592700015e+00
2.036124637592700015e+00
1.998810998870815148e+00
1.998810998870815148e+00
2.117502121036408447e+00
2.065563035981322848e+00
2.065563035981322848e+00
2.014561479537339217e+00
2.014561479537339217e+00
2.022249214148381213e+00
2.040999786370433888e+00
2.040999786370433888e+00
2.064813013092440475e+00
2.064813013092440475e+00
2.051312601092562637e+00
1.993935850093081497e+00
1.993935850093081497e+00
2.016249031037324002e+00
2.016249031037324002e+00
2.053750175481429796e+00
2.071000701925717724e+00
2.071000701925717724e+00
2.089376262703329878e+00
2.081876033814508364e+00
2.081876033814508364e+00
2.114127018036439321e+00
2.114127018036439321e+00
2.125377361369670925e+00
2.141502853480635959e+00
2.141502853480635959e+00
2.170003723258155937e+00
2.170003723258155937e+00
2.102126651814325342e+00
2.030686971648304695e+00
2.030686971648304695e+00
2.064625507370219992e+00
2.064625507370219992e+00
2.092938871425519931e+00
2.034812097537156195e+00
2.034812097537156195e+00
2.070438184759056277e+00
2.070438184759056277e+00
2.043812372203741567e+00
2.049250038148136888e+00
2.049250038148136888e+00
2.039312234870449103e+00
2.067063081759087151e+00
2.067063081759087151e+00
2.066125553147984295e+00
2.066125553147984295e+00
2.039124729148228621e+00
2.052062623981445011e+00
2.052062623981445011e+00
2.085251136814477935e+00
2.080000976592303541e+00
2.074375804925687294e+00
2.074375804925687294e+00
2.119939695425275605e+00
2.115439558091983141e+00
2.115439558091983141e+00
2.043062349314859638e+00
2.081876033814508364e+00
2.081876033814508364e+00
2.077000885036774935e+00
2.077000885036774935e+00
2.076625873592333971e+00
2.020749168370616911e+00
2.020749168370616911e+00
1.986060609759819240e+00
1.986060609759819240e+00
2.000686056093020415e+00
2.135690176091799675e+00
2.135690176091799675e+00
2.173191320535905025e+00
2.173191320535905025e+00
2.140565324869533104e+00
2.117314615314187964e+00
2.117314615314187964e+00
2.093501388592180934e+00
2.093501388592180934e+00
2.063312967314676172e+00
1.999748527481917781e+00
1.999748527481917781e+00
2.022061708426160731e+00
1.995435895870845799e+00
1.995435895870845799e+00
2.034624591814935712e+00
2.034624591814935712e+00
2.100064088869899592e+00
2.121252235480818982e+00
2.121252235480818982e+00
2.079813470870083059e+00
2.079813470870083059e+00
2.046624958037049247e+00
2.024124271370586037e+00
2.024124271370586037e+00
2.030686971648304695e+00
2.030686971648304695e+00
2.052437635425885976e+00
2.054312692648091243e+00
2.054312692648091243e+00
2.046437452314828764e+00
2.046437452314828764e+00
2.078125919370098273e+00
2.106626789147617806e+00
2.106626789147617806e+00
2.099314065981017663e+00
2.093126377147739969e+00
2.093126377147739969e+00
2.122939786980803767e+00
2.122939786980803767e+00
2.164566057313760616e+00
2.104751731925412539e+00
2.104751731925412539e+00
2.020749168370616911e+00
2.020749168370616911e+00
2.035187108981597159e+00
1.993560838648640532e+00
1.993560838648640532e+00
1.975747795037690491e+00
1.990373241370891666e+00
1.990373241370891666e+00
2.055625232703635064e+00
2.075313333536790150e+00
2.075313333536790150e+00
2.061250404370250422e+00
2.061250404370250422e+00
2.082813562425611220e+00
2.114502029480880285e+00
2.114502029480880285e+00
2.083938596758934114e+00
2.083938596758934114e+00
2.042874843592639156e+00
2.126314889980773337e+00
2.126314889980773337e+00
2.139252784813989727e+00
2.139252784813989727e+00
2.112251960814234053e+00
2.126127384258552855e+00
2.126127384258552855e+00
2.142627887813959298e+00
2.142627887813959298e+00
2.123127292703024249e+00
2.077750907925656865e+00
2.077750907925656865e+00
2.062187932981353278e+00
2.032749534592730889e+00
2.032749534592730889e+00
1.986810632648701391e+00
1.986810632648701391e+00
1.978372875148777910e+00
1.968247566148869199e+00
1.968247566148869199e+00
1.977622852259895758e+00
1.977622852259895758e+00
2.044749900814844423e+00
2.114502029480880285e+00
2.114502029480880285e+00
2.136065187536240639e+00
2.136065187536240639e+00
2.074000793481246330e+00
1.995060884426404613e+00
1.995060884426404613e+00
2.061625415814691387e+00
2.061625415814691387e+00
2.086563676870021755e+00
2.059750358592486119e+00
2.059750358592486119e+00
2.102126651814325342e+00
2.080938505203405953e+00
2.080938505203405953e+00
2.058812829981383707e+00
2.058812829981383707e+00
2.045874935148167761e+00
2.015499008148442073e+00
2.015499008148442073e+00
2.039499740592669585e+00
2.039499740592669585e+00
2.056750267036957958e+00
2.040437269203771997e+00
2.040437269203771997e+00
2.059187841425824672e+00
2.059187841425824672e+00
2.104751731925412539e+00
2.126127384258552855e+00
2.126127384258552855e+00
2.105689260536515395e+00
2.105689260536515395e+00
2.090501297036652772e+00
2.093876400036621899e+00
2.093876400036621899e+00
2.073438276314584883e+00
2.073438276314584883e+00
2.058812829981383707e+00
2.030311960203863730e+00
2.030311960203863730e+00
2.087876216925565576e+00
2.087876216925565576e+00
2.091063814203314664e+00
2.094438917203283790e+00
2.094438917203283790e+00
2.084876125370036970e+00
2.084876125370036970e+00
2.034999603259376677e+00
2.011186376537369647e+00
2.011186376537369647e+00
2.028624408703878945e+00
2.041374797814874853e+00
2.041374797814874853e+00
2.025249305703909375e+00
2.025249305703909375e+00
2.041937314981536300e+00
2.058812829981383707e+00
2.058812829981383707e+00
2.085626148258918899e+00
2.085626148258918899e+00
2.054687704092532208e+00
2.102314157536546269e+00
2.102314157536546269e+00
2.151440656758324188e+00
2.151440656758324188e+00
2.135502670369579192e+00
2.101189123203222930e+00
2.101189123203222930e+00
2.073625782036805365e+00
2.084501113925596005e+00
2.084501113925596005e+00
2.056750267036957958e+00
2.056750267036957958e+00
2.028061891537217498e+00
2.044562395092623941e+00
2.044562395092623941e+00
2.039312234870449103e+00
2.039312234870449103e+00
2.059187841425824672e+00
2.066500564592425260e+00
2.066500564592425260e+00
2.037812189092684800e+00
2.037812189092684800e+00
2.031061983092746104e+00
2.058812829981383707e+00
2.058812829981383707e+00
2.086563676870021755e+00
2.090126285592211808e+00
2.090126285592211808e+00
2.067438093203528116e+00
2.067438093203528116e+00
2.074188299203466812e+00
2.063687978759117581e+00
2.063687978759117581e+00
2.042499832148198191e+00
2.042499832148198191e+00
2.110001892147587377e+00
2.215755119479964730e+00
2.215755119479964730e+00
2.181629078035828950e+00
2.149940610980559885e+00
2.149940610980559885e+00
2.127439924314096675e+00
2.127439924314096675e+00
2.089563768425550361e+00
1.979122898037659839e+00
1.979122898037659839e+00
1.908995757927182790e+00
1.956247199926755442e+00
1.956247199926755442e+00
2.004998687704092397e+00
2.004998687704092397e+00
2.045687429425947279e+00
2.094813928647724754e+00
2.094813928647724754e+00
2.039687246314890068e+00
2.039687246314890068e+00
1.998810998870815148e+00
2.046999969481490211e+00
2.046999969481490211e+00
2.088626239814447505e+00
2.088626239814447505e+00
2.093688894314401416e+00
2.105501754814294912e+00
2.105501754814294912e+00
2.100814111758781966e+00
2.100814111758781966e+00
2.096313974425489057e+00
2.117877132480849411e+00
2.117877132480849411e+00
2.119377178258613714e+00
2.119377178258613714e+00
2.065188024536881883e+00
2.050187566759239299e+00
2.050187566759239299e+00
2.061250404370250422e+00
2.062750450148014725e+00
2.062750450148014725e+00
2.059562852870265637e+00
2.059562852870265637e+00
2.042499832148198191e+00
2.036124637592700015e+00
2.036124637592700015e+00
2.062187932981353278e+00
2.062187932981353278e+00
2.105314249092073986e+00
2.078875942258980203e+00
2.078875942258980203e+00
2.067063081759087151e+00
2.067063081759087151e+00
2.060875392925809457e+00
2.084688619647816488e+00
2.084688619647816488e+00
2.093501388592180934e+00
2.083001068147831703e+00
2.083001068147831703e+00
2.084688619647816488e+00
2.084688619647816488e+00
2.084313608203375079e+00
2.065188024536881883e+00
2.065188024536881883e+00
2.063500473036897098e+00
2.063500473036897098e+00
2.054312692648091243e+00
2.041187292092654371e+00
2.041187292092654371e+00
2.119564683980834197e+00
2.119564683980834197e+00
2.112064455092013571e+00
2.076438367870113488e+00
2.076438367870113488e+00
2.082438550981169811e+00
2.082438550981169811e+00
2.073813287759025847e+00
2.089563768425550361e+00
2.089563768425550361e+00
2.049625049592577852e+00
2.049625049592577852e+00
2.028061891537217498e+00
2.035749626148258606e+00
2.035749626148258606e+00
2.029374431592760875e+00
2.029374431592760875e+00
2.046249946592608282e+00
2.090876308481094181e+00
2.090876308481094181e+00
2.099501571703238145e+00
2.099501571703238145e+00
2.097063997314370987e+00
2.079625965147862576e+00
2.079625965147862576e+00
2.084501113925596005e+00
2.084501113925596005e+00
2.072313241981261545e+00
2.032937040314951371e+00
2.032937040314951371e+00
2.049437543870357370e+00
2.053750175481429796e+00
2.053750175481429796e+00
2.045687429425947279e+00
2.045687429425947279e+00
2.043249855037080120e+00
2.082251045258949329e+00
2.082251045258949329e+00
2.071938230536820580e+00
2.071938230536820580e+00
2.082063539536728847e+00
2.065000518814661401e+00
2.065000518814661401e+00
2.046437452314828764e+00
2.046437452314828764e+00
2.065375530259102366e+00
2.088063722647786058e+00
2.088063722647786058e+00
2.069125644703512901e+00
2.069125644703512901e+00
2.054125186925870761e+00
2.065750541703543330e+00
2.065750541703543330e+00
2.078500930814539238e+00
2.087126194036683202e+00
2.087126194036683202e+00
2.069688161870173904e+00
2.069688161870173904e+00
2.071000701925717724e+00
2.063500473036897098e+00
2.063500473036897098e+00
2.079063447981200685e+00
2.079063447981200685e+00
2.083001068147831703e+00
2.069688161870173904e+00
2.069688161870173904e+00
2.066125553147984295e+00
2.072500747703482027e+00
2.072500747703482027e+00
2.080563493758964988e+00
2.079438459425641650e+00
2.079438459425641650e+00
2.096313974425489057e+00
2.096313974425489057e+00
2.091063814203314664e+00
2.089563768425550361e+00
2.089563768425550361e+00
2.005373699148533806e+00
2.005373699148533806e+00
1.949496993926816524e+00
2.011936399426252020e+00
2.011936399426252020e+00
2.071188207647938206e+00
2.077750907925656865e+00
2.077750907925656865e+00
2.054312692648091243e+00
2.054312692648091243e+00
2.050000061037018817e+00
2.063875484481338063e+00
2.063875484481338063e+00
2.086751182592242237e+00
2.086751182592242237e+00
2.075313333536790150e+00
2.083751091036713632e+00
2.083751091036713632e+00
2.088813745536667987e+00
2.088813745536667987e+00
2.084501113925596005e+00
2.091063814203314664e+00
2.091063814203314664e+00
2.087876216925565576e+00
2.087876216925565576e+00
2.099689077425458628e+00
2.087501205481124167e+00
2.087501205481124167e+00
2.079625965147862576e+00
2.061437910092470904e+00
2.061437910092470904e+00
2.021124179815057875e+00
2.021124179815057875e+00
2.062562944425794242e+00
2.070625690481276759e+00
2.070625690481276759e+00
2.063500473036897098e+00
2.063500473036897098e+00
2.052437635425885976e+00
2.055437726981414581e+00
2.055437726981414581e+00
2.041562303537095335e+00
2.041562303537095335e+00
2.049625049592577852e+00
2.061250404370250422e+00
2.061250404370250422e+00
2.064813013092440475e+00
2.074000793481246330e+00
2.074000793481246330e+00
2.088063722647786058e+00
2.088063722647786058e+00
2.089751274147770843e+00
2.114502029480880285e+00
2.114502029480880285e+00
2.084313608203375079e+00
2.084313608203375079e+00
2.085438642536698417e+00
2.095938962981048093e+00
2.101189123203222930e+00
2.068188116092410045e+00
2.068188116092410045e+00
2.071375713370158689e+00
2.052812646870326940e+00
2.052812646870326940e+00
2.084313608203375079e+00
2.084313608203375079e+00
2.089001251258888470e+00
2.070438184759056277e+00
2.070438184759056277e+00
2.050375072481459782e+00
2.068750633259071936e+00
2.068750633259071936e+00
2.086563676870021755e+00
2.086563676870021755e+00
2.076625873592333971e+00
2.063500473036897098e+00
2.063500473036897098e+00
2.075688344981231115e+00
2.075688344981231115e+00
2.063500473036897098e+00
2.029561937314981801e+00
2.029561937314981801e+00
2.046437452314828764e+00
2.046437452314828764e+00
2.017561571092867823e+00
2.022624225592822178e+00
2.022624225592822178e+00
2.057500289925840331e+00
2.057500289925840331e+00
2.071750724814600098e+00
2.081501022370067400e+00
2.081501022370067400e+00
2.071563219092379615e+00
2.063875484481338063e+00
2.063875484481338063e+00
2.068188116092410045e+00
2.068188116092410045e+00
2.035937131870479533e+00
2.057687795648060813e+00
2.057687795648060813e+00
2.068188116092410045e+00
2.068188116092410045e+00
2.071000701925717724e+00
2.085063631092257452e+00
2.085063631092257452e+00
2.066500564592425260e+00
2.066500564592425260e+00
2.072500747703482027e+00
2.060875392925809457e+00
2.060875392925809457e+00
2.076250862147892562e+00
2.060687887203588975e+00
2.060687887203588975e+00
2.070063173314615312e+00
2.064438001647999510e+00
2.064438001647999510e+00
2.042312326425977265e+00
2.071000701925717724e+00
2.071000701925717724e+00
2.092563859981078966e+00
2.092563859981078966e+00
2.064625507370219992e+00
2.050000061037018817e+00
2.050000061037018817e+00
2.059000335703604190e+00
2.053937681203650278e+00
2.053937681203650278e+00
2.039874752037110550e+00
2.039874752037110550e+00
2.063500473036897098e+00
2.074750816370128703e+00
2.074750816370128703e+00
2.064625507370219992e+00
2.064625507370219992e+00
2.059375347148045154e+00
2.065938047425763813e+00
2.065938047425763813e+00
2.073063264870143918e+00
2.073063264870143918e+00
2.076250862147892562e+00
2.068188116092410045e+00
2.068188116092410045e+00
2.069125644703512901e+00
2.071750724814600098e+00
2.071750724814600098e+00
2.073438276314584883e+00
2.073438276314584883e+00
2.074000793481246330e+00
2.054125186925870761e+00
2.054125186925870761e+00
2.063875484481338063e+00
2.063875484481338063e+00
2.061625415814691387e+00
2.054500198370311725e+00
2.054500198370311725e+00
2.055437726981414581e+00
2.055437726981414581e+00
2.078313425092318756e+00
2.079813470870083059e+00
2.079813470870083059e+00
2.056562761314737475e+00
2.050750083925901190e+00
2.050750083925901190e+00
2.056937772759178884e+00
2.056937772759178884e+00
2.100251594592120075e+00
2.084313608203375079e+00
2.084313608203375079e+00
2.048125003814813549e+00
2.048125003814813549e+00
2.071938230536820580e+00
2.074938322092349186e+00
2.074938322092349186e+00
2.108314340647602592e+00
2.108314340647602592e+00
2.104564226203192501e+00
2.089938779869991325e+00
2.089938779869991325e+00
2.049437543870357370e+00
2.046812463759269729e+00
2.046812463759269729e+00
2.082438550981169811e+00
2.082438550981169811e+00
2.037249671926022909e+00
2.030686971648304695e+00
2.030686971648304695e+00
2.028811914426099428e+00
2.028811914426099428e+00
2.042874843592639156e+00
2.058625324259163225e+00
2.058625324259163225e+00
2.074375804925687294e+00
2.076625873592333971e+00
2.076625873592333971e+00
2.062750450148014725e+00
2.062750450148014725e+00
2.079813470870083059e+00
2.083563585314493150e+00
2.083563585314493150e+00
2.068750633259071936e+00
2.068750633259071936e+00
2.064625507370219992e+00
2.070813196203497242e+00
2.070813196203497242e+00
2.059375347148045154e+00
2.059375347148045154e+00
2.064062990203558545e+00
2.068750633259071936e+00
2.068750633259071936e+00
2.066875576036866669e+00
2.071750724814600098e+00
2.071750724814600098e+00
2.079625965147862576e+00
2.079625965147862576e+00
2.067250587481307633e+00
2.056000244148076028e+00
2.056000244148076028e+00
2.057687795648060813e+00
2.057687795648060813e+00
2.052625141148106458e+00
2.060312875759148010e+00
2.060312875759148010e+00
2.003498641926328094e+00
2.003498641926328094e+00
2.092376354258858040e+00
2.082251045258949329e+00
2.082251045258949329e+00
2.079438459425641650e+00
2.079438459425641650e+00
2.069500656147953865e+00
2.047749992370372585e+00
2.047749992370372585e+00
2.037999694814905283e+00
2.049437543870357370e+00
2.049437543870357370e+00
2.067438093203528116e+00
2.067438093203528116e+00
2.087501205481124167e+00
2.087126194036683202e+00
2.087126194036683202e+00
2.064250495925779028e+00
2.064250495925779028e+00
2.050562578203680708e+00
2.076063356425672080e+00
2.076063356425672080e+00
2.060875392925809457e+00
2.060875392925809457e+00
2.060500381481368493e+00
2.056000244148076028e+00
2.056000244148076028e+00
2.062375438703573760e+00
2.062562944425794242e+00
2.062562944425794242e+00
2.071750724814600098e+00
2.075125827814569668e+00
2.075125827814569668e+00
2.062937955870235207e+00
2.062937955870235207e+00
2.043999877925962494e+00
2.052062623981445011e+00
2.052062623981445011e+00
2.062375438703573760e+00
2.079813470870083059e+00
2.079813470870083059e+00
2.068938138981292418e+00
2.068938138981292418e+00
2.060312875759148010e+00
2.056375255592516993e+00
2.056375255592516993e+00
2.064438001647999510e+00
2.064438001647999510e+00
2.070625690481276759e+00
2.075688344981231115e+00
2.075688344981231115e+00
2.072500747703482027e+00
2.072500747703482027e+00
2.053750175481429796e+00
2.051125095370342155e+00
2.051125095370342155e+00
2.068000610370189563e+00
2.068000610370189563e+00
2.074000793481246330e+00
2.055625232703635064e+00
2.055625232703635064e+00
2.053750175481429796e+00
2.065750541703543330e+00
2.065750541703543330e+00
2.061062898648029940e+00
2.061062898648029940e+00
2.061625415814691387e+00
2.070438184759056277e+00
2.070438184759056277e+00
2.063875484481338063e+00
2.063875484481338063e+00
2.047562486648152102e+00
2.057875301370280852e+00
2.057875301370280852e+00
2.061625415814691387e+00
2.061625415814691387e+00
2.062562944425794242e+00
2.067813104647969080e+00
2.067813104647969080e+00
2.070438184759056277e+00
2.069125644703512901e+00
2.069125644703512901e+00
2.083376079592272667e+00
2.083376079592272667e+00
2.092001342814417075e+00
2.070438184759056277e+00
2.070438184759056277e+00
2.058812829981383707e+00
2.058812829981383707e+00
2.058812829981383707e+00
2.055437726981414581e+00
2.055437726981414581e+00
2.073250770592364400e+00
2.073250770592364400e+00
2.078125919370098273e+00
2.070625690481276759e+00
2.070625690481276759e+00
2.078500930814539238e+00
2.078500930814539238e+00
2.068563127536851454e+00
2.052062623981445011e+00
2.052062623981445011e+00
2.032937040314951371e+00
2.050937589648121673e+00
2.050937589648121673e+00
2.070813196203497242e+00
2.070813196203497242e+00
2.074375804925687294e+00
2.053937681203650278e+00
2.053937681203650278e+00
2.046437452314828764e+00
2.046437452314828764e+00
2.051125095370342155e+00
2.054500198370311725e+00
2.054500198370311725e+00
2.037062166203802427e+00
2.037062166203802427e+00
2.064062990203558545e+00
2.095188940092165719e+00
2.095188940092165719e+00
2.078875942258980203e+00
2.068188116092410045e+00
2.068188116092410045e+00
2.073813287759025847e+00
2.073813287759025847e+00
2.069313150425733383e+00
2.069313150425733383e+00
2.069313150425733383e+00
2.055625232703635064e+00
2.055625232703635064e+00
2.065000518814661401e+00
2.070063173314615312e+00
2.070063173314615312e+00
2.060125370036927084e+00
2.060125370036927084e+00
2.061625415814691387e+00
2.074750816370128703e+00
2.074750816370128703e+00
2.079813470870083059e+00
2.079813470870083059e+00
2.074188299203466812e+00
2.071375713370158689e+00
2.071375713370158689e+00
2.059000335703604190e+00
2.062937955870235207e+00
2.062937955870235207e+00
2.063125461592455689e+00
2.063125461592455689e+00
2.061625415814691387e+00
2.056562761314737475e+00
2.056562761314737475e+00
2.052437635425885976e+00
2.052437635425885976e+00
2.052437635425885976e+00
2.055625232703635064e+00
2.055625232703635064e+00
2.060687887203588975e+00
2.060687887203588975e+00
2.057312784203619849e+00
2.061437910092470904e+00
2.061437910092470904e+00
2.065000518814661401e+00
2.065000518814661401e+00
2.051500106814783120e+00
2.061437910092470904e+00
2.061437910092470904e+00
2.071188207647938206e+00
2.071563219092379615e+00
2.071563219092379615e+00
2.066688070314646186e+00
2.066688070314646186e+00
2.062937955870235207e+00
2.076063356425672080e+00
2.076063356425672080e+00
2.066500564592425260e+00
2.066500564592425260e+00
2.056750267036957958e+00
2.059375347148045154e+00
2.059375347148045154e+00
2.063687978759117581e+00
2.062000427259132795e+00
2.062000427259132795e+00
2.051500106814783120e+00
2.051500106814783120e+00
2.057312784203619849e+00
2.059562852870265637e+00
2.059562852870265637e+00
2.056937772759178884e+00
2.056937772759178884e+00
2.058250312814721816e+00
2.068750633259071936e+00
2.068750633259071936e+00
2.071563219092379615e+00
2.071563219092379615e+00
2.054875209814752690e+00
2.060500381481368493e+00
2.060500381481368493e+00
2.065938047425763813e+00
2.065938047425763813e+00
2.059000335703604190e+00
2.066500564592425260e+00
2.066500564592425260e+00
2.074750816370128703e+00
2.056562761314737475e+00
2.056562761314737475e+00
2.077750907925656865e+00
2.077750907925656865e+00
2.093876400036621899e+00
2.082438550981169811e+00
2.082438550981169811e+00
2.058437818536942299e+00
2.058437818536942299e+00
2.059375347148045154e+00
2.069688161870173904e+00
2.069688161870173904e+00
2.053375164036988387e+00
2.053375164036988387e+00
2.056187749870296511e+00
2.048500015259254514e+00
2.048500015259254514e+00
2.038374706259346247e+00
2.038374706259346247e+00
2.051687612537003602e+00
2.040062257759331033e+00
2.040062257759331033e+00
2.045499923703726353e+00
2.045499923703726353e+00
2.068938138981292418e+00
2.077938413647877791e+00
2.077938413647877791e+00
2.079813470870083059e+00
2.057500289925840331e+00
2.057500289925840331e+00
2.060687887203588975e+00
2.063500473036897098e+00
2.060687887203588975e+00
2.060687887203588975e+00
2.073438276314584883e+00
2.073438276314584883e+00
2.067625598925748598e+00
2.077188390758995418e+00
2.077188390758995418e+00
2.071750724814600098e+00
2.071750724814600098e+00
2.069500656147953865e+00
2.079063447981200685e+00
2.079063447981200685e+00
2.071563219092379615e+00
2.071563219092379615e+00
2.054687704092532208e+00
2.052062623981445011e+00
2.052062623981445011e+00
2.059937864314706601e+00
2.047562486648152102e+00
2.047562486648152102e+00
2.055250221259193655e+00
2.055250221259193655e+00
2.051312601092562637e+00
2.056187749870296511e+00
2.056187749870296511e+00
2.069688161870173904e+00
2.069688161870173904e+00
2.081126010925626435e+00
2.082813562425611220e+00
2.082813562425611220e+00
2.062000427259132795e+00
2.062000427259132795e+00
2.071188207647938206e+00
2.064813013092440475e+00
2.064813013092440475e+00
2.068375621814630971e+00
2.068375621814630971e+00
2.072125736259041062e+00
2.068563127536851454e+00
2.068563127536851454e+00
2.068938138981292418e+00
2.064250495925779028e+00
2.064250495925779028e+00
2.053937681203650278e+00
2.053937681203650278e+00
2.044749900814844423e+00
2.036499649037140980e+00
2.036499649037140980e+00
2.069125644703512901e+00
2.069125644703512901e+00
2.068000610370189563e+00
2.071000701925717724e+00
2.071000701925717724e+00
2.066125553147984295e+00
2.053187658314767905e+00
2.053187658314767905e+00
2.055062715536973172e+00
2.061437910092470904e+00
2.061437910092470904e+00
2.063875484481338063e+00
2.063875484481338063e+00
2.066313058870204777e+00
2.080375988036744506e+00
2.080375988036744506e+00
2.069875667592394830e+00
2.071188207647938206e+00
2.071188207647938206e+00
2.075688344981231115e+00
2.075688344981231115e+00
2.081313516647846917e+00
2.082813562425611220e+00
2.082813562425611220e+00
2.066875576036866669e+00
2.066875576036866669e+00
2.062000427259132795e+00
2.067250587481307633e+00
2.067250587481307633e+00
2.054312692648091243e+00
2.057125278481399366e+00
2.057125278481399366e+00
2.067250587481307633e+00
2.067250587481307633e+00
2.070625690481276759e+00
2.052437635425885976e+00
2.052437635425885976e+00
2.064813013092440475e+00
2.064813013092440475e+00
2.077750907925656865e+00
2.079063447981200685e+00
2.079063447981200685e+00
2.063125461592455689e+00
2.063125461592455689e+00
2.060875392925809457e+00
2.066500564592425260e+00
2.066500564592425260e+00
2.071938230536820580e+00
2.071938230536820580e+00
2.084876125370036970e+00
2.100814111758781966e+00
2.100814111758781966e+00
2.096501480147709540e+00
2.062187932981353278e+00
2.062187932981353278e+00
2.009686330759605788e+00
2.009686330759605788e+00
2.098564043092135289e+00
2.079438459425641650e+00
2.079438459425641650e+00
2.058062807092501334e+00
2.058062807092501334e+00
2.047562486648152102e+00
2.056562761314737475e+00
2.056562761314737475e+00
2.067250587481307633e+00
2.060687887203588975e+00
2.060687887203588975e+00
2.068000610370189563e+00
2.068000610370189563e+00
2.077188390758995418e+00
2.086938688314462720e+00
2.086938688314462720e+00
2.075688344981231115e+00
2.075688344981231115e+00
2.066875576036866669e+00
2.047374980925931620e+00
2.047374980925931620e+00
2.056187749870296511e+00
2.056187749870296511e+00
2.051312601092562637e+00
2.054875209814752690e+00
2.060125370036927084e+00
2.060125370036927084e+00
2.069875667592394830e+00
2.078125919370098273e+00
2.078125919370098273e+00
2.087501205481124167e+00
2.078688436536759720e+00
2.078688436536759720e+00
2.072688253425702509e+00
2.072688253425702509e+00
2.059562852870265637e+00
2.054875209814752690e+00
2.054875209814752690e+00
2.050562578203680708e+00
2.050562578203680708e+00
2.073250770592364400e+00
2.069125644703512901e+00
2.069125644703512901e+00
2.050750083925901190e+00
2.050750083925901190e+00
2.071563219092379615e+00
2.084313608203375079e+00
2.084313608203375079e+00
2.085251136814477935e+00
2.085251136814477935e+00
2.079063447981200685e+00
2.076813379314554453e+00
2.076813379314554453e+00
2.084688619647816488e+00
2.079438459425641650e+00
2.079438459425641650e+00
2.064438001647999510e+00
2.064438001647999510e+00
2.058812829981383707e+00
1.990748252815332409e+00
1.990748252815332409e+00
2.074563310647907777e+00
2.079813470870083059e+00
2.079813470870083059e+00
2.082626056703390294e+00
2.082626056703390294e+00
2.084501113925596005e+00
2.060500381481368493e+00
2.060500381481368493e+00
2.051687612537003602e+00
2.051687612537003602e+00
2.063312967314676172e+00
2.066500564592425260e+00
2.066500564592425260e+00
2.071188207647938206e+00
2.071188207647938206e+00
2.065188024536881883e+00
2.079250953703421168e+00
2.079250953703421168e+00
2.081126010925626435e+00
2.057687795648060813e+00
2.057687795648060813e+00
2.032749534592730889e+00
2.032749534592730889e+00
2.038562211981566730e+00
2.042312326425977265e+00
2.042312326425977265e+00
2.077563402203436382e+00
2.077563402203436382e+00
2.084876125370036970e+00
2.074938322092349186e+00
2.074938322092349186e+00
2.072500747703482027e+00
2.072500747703482027e+00
2.053000152592547423e+00
2.036499649037140980e+00
2.036499649037140980e+00
2.067063081759087151e+00
2.067063081759087151e+00
2.079813470870083059e+00
2.066875576036866669e+00
2.066875576036866669e+00
2.071938230536820580e+00
2.067250587481307633e+00
2.067250587481307633e+00
2.062000427259132795e+00
2.062000427259132795e+00
2.078125919370098273e+00
2.081313516647846917e+00
2.081313516647846917e+00
2.075125827814569668e+00
2.075125827814569668e+00
2.080938505203405953e+00
2.081126010925626435e+00
2.081126010925626435e+00
2.066125553147984295e+00
2.041749809259315818e+00
2.041749809259315818e+00
2.053000152592547423e+00
2.053000152592547423e+00
2.073438276314584883e+00
2.074938322092349186e+00
2.074938322092349186e+00
2.069500656147953865e+00
2.069500656147953865e+00
2.067438093203528116e+00
2.058812829981383707e+00
2.058812829981383707e+00
2.062937955870235207e+00
2.062937955870235207e+00
2.057687795648060813e+00
2.049437543870357370e+00
2.049437543870357370e+00
2.065375530259102366e+00
2.065375530259102366e+00
2.070438184759056277e+00
2.056562761314737475e+00
2.056562761314737475e+00
2.047374980925931620e+00
2.047374980925931620e+00
2.041937314981536300e+00
2.053187658314767905e+00
2.053187658314767905e+00
2.074375804925687294e+00
2.106626789147617806e+00
2.106626789147617806e+00
2.099876583147679110e+00
2.099876583147679110e+00
2.068375621814630971e+00
2.061250404370250422e+00
2.061250404370250422e+00
2.051687612537003602e+00
2.051687612537003602e+00
2.042312326425977265e+00
2.043062349314859638e+00
2.043062349314859638e+00
2.057312784203619849e+00
2.057312784203619849e+00
2.066875576036866669e+00
2.083188573870052185e+00
2.083188573870052185e+00
2.086001159703360308e+00
2.074000793481246330e+00
2.074000793481246330e+00
2.069875667592394830e+00
2.069875667592394830e+00
2.080000976592303541e+00
2.080750999481185470e+00
2.080750999481185470e+00
2.044749900814844423e+00
2.044749900814844423e+00
2.047562486648152102e+00
2.038562211981566730e+00
2.038562211981566730e+00
2.052062623981445011e+00
2.052062623981445011e+00
2.069500656147953865e+00
2.065563035981322848e+00
2.065563035981322848e+00
2.046249946592608282e+00
2.083376079592272667e+00
2.083376079592272667e+00
2.070625690481276759e+00
2.070625690481276759e+00
2.044937406537064906e+00
2.054875209814752690e+00
2.054875209814752690e+00
2.064250495925779028e+00
2.064250495925779028e+00
2.049250038148136888e+00
2.050750083925901190e+00
2.050750083925901190e+00
2.070625690481276759e+00
2.070625690481276759e+00
2.077188390758995418e+00
2.068563127536851454e+00
2.068563127536851454e+00
2.040062257759331033e+00
2.040062257759331033e+00
2.030874477370525177e+00
2.068188116092410045e+00
2.068188116092410045e+00
2.086376171147801273e+00
2.085251136814477935e+00
2.085251136814477935e+00
2.088626239814447505e+00
2.088626239814447505e+00
2.072125736259041062e+00
2.065375530259102366e+00
2.065375530259102366e+00
2.068188116092410045e+00
2.068188116092410045e+00
2.074000793481246330e+00
2.074563310647907777e+00
2.074563310647907777e+00
2.073813287759025847e+00
2.073813287759025847e+00
2.056750267036957958e+00
2.056187749870296511e+00
2.056187749870296511e+00
2.068563127536851454e+00
2.068563127536851454e+00
2.028811914426099428e+00
2.020186651203955464e+00
2.020186651203955464e+00
2.030311960203863730e+00
2.030311960203863730e+00
2.047937498092593067e+00
2.058625324259163225e+00
2.058625324259163225e+00
2.080188482314524023e+00
2.058812829981383707e+00
2.058812829981383707e+00
2.074188299203466812e+00
2.074188299203466812e+00
2.080188482314524023e+00
2.072313241981261545e+00
2.072313241981261545e+00
2.076438367870113488e+00
2.076438367870113488e+00
2.051687612537003602e+00
2.057875301370280852e+00
2.057875301370280852e+00
2.058062807092501334e+00
2.058062807092501334e+00
2.036312143314920498e+00
2.027124362926114642e+00
2.027124362926114642e+00
2.070250679036835795e+00
2.116752098147526517e+00
2.116752098147526517e+00
2.091626331369976111e+00
2.091626331369976111e+00
2.076813379314554453e+00
2.072313241981261545e+00
2.072313241981261545e+00
2.052625141148106458e+00
2.052625141148106458e+00
2.048687520981474997e+00
2.050562578203680708e+00
2.050562578203680708e+00
2.038374706259346247e+00
2.038374706259346247e+00
2.048687520981474997e+00
2.096688985869930022e+00
2.096688985869930022e+00
2.069875667592394830e+00
2.069875667592394830e+00
2.057312784203619849e+00
2.040062257759331033e+00
2.040062257759331033e+00
2.033874568926053783e+00
2.016061525315103520e+00
2.016061525315103520e+00
2.064062990203558545e+00
2.064062990203558545e+00
2.076625873592333971e+00
2.088251228370006540e+00
2.088251228370006540e+00
2.095376445814386202e+00
2.095376445814386202e+00
2.112064455092013571e+00
2.117314615314187964e+00
2.117314615314187964e+00
2.056562761314737475e+00
2.056562761314737475e+00
2.051125095370342155e+00
2.004811181981871915e+00
2.004811181981871915e+00
2.002748619037446165e+00
2.002748619037446165e+00
2.049062532425916405e+00
2.112814477980895500e+00
2.112814477980895500e+00
2.095001434369945237e+00
2.070813196203497242e+00
2.070813196203497242e+00
2.070438184759056277e+00
2.070438184759056277e+00
2.077188390758995418e+00
2.065000518814661401e+00
2.065000518814661401e+00
2.069125644703512901e+00
2.069125644703512901e+00
2.075125827814569668e+00
2.060875392925809457e+00
2.060875392925809457e+00
2.033124546037171854e+00
2.024124271370586037e+00
2.024124271370586037e+00
2.024686788537247928e+00
2.024686788537247928e+00
2.036312143314920498e+00
2.079813470870083059e+00
2.079813470870083059e+00
2.122189764091921838e+00
2.122189764091921838e+00
2.093126377147739969e+00
2.054875209814752690e+00
2.054875209814752690e+00
2.075688344981231115e+00
2.075688344981231115e+00
2.046624958037049247e+00
2.010061342204047197e+00
2.010061342204047197e+00
2.068188116092410045e+00
2.068188116092410045e+00
2.054312692648091243e+00
2.066313058870204777e+00
2.066313058870204777e+00
2.075313333536790150e+00
2.075313333536790150e+00
2.063687978759117581e+00
2.017374065370647340e+00
2.017374065370647340e+00
2.033499557481612818e+00
2.080000976592303541e+00
2.080000976592303541e+00
2.078125919370098273e+00
2.078125919370098273e+00
2.123502304147465658e+00
2.113001983703115982e+00
2.113001983703115982e+00
2.090876308481094181e+00
2.090876308481094181e+00
2.069875667592394830e+00
2.019999145481734981e+00
2.019999145481734981e+00
2.056000244148076028e+00
2.041562303537095335e+00
2.041562303537095335e+00
2.037249671926022909e+00
2.037249671926022909e+00
2.036312143314920498e+00
2.031249488814966586e+00
2.031249488814966586e+00
2.030311960203863730e+00
2.030311960203863730e+00
2.021124179815057875e+00
2.068375621814630971e+00
2.068375621814630971e+00
2.063312967314676172e+00
2.063312967314676172e+00
2.069688161870173904e+00
2.058062807092501334e+00
2.058062807092501334e+00
2.050000061037018817e+00
2.046437452314828764e+00
2.046437452314828764e+00
2.060125370036927084e+00
2.060125370036927084e+00
2.106626789147617806e+00
2.093688894314401416e+00
2.093688894314401416e+00
2.071938230536820580e+00
2.071938230536820580e+00
2.060687887203588975e+00
2.038562211981566730e+00
2.038562211981566730e+00
2.055250221259193655e+00
2.055250221259193655e+00
2.075875850703451597e+00
2.065938047425763813e+00
2.065938047425763813e+00
2.028436902981658463e+00
2.028436902981658463e+00
2.022249214148381213e+00
2.093876400036621899e+00
2.093876400036621899e+00
2.138502761925107798e+00
2.119939695425275605e+00
2.119939695425275605e+00
2.134002624591814889e+00
2.134002624591814889e+00
2.107001800592058771e+00
2.081126010925626435e+00
2.081126010925626435e+00
2.057875301370280852e+00
2.057875301370280852e+00
2.026561845759453195e+00
2.028811914426099428e+00
2.028811914426099428e+00
1.959247291482284048e+00
1.959247291482284048e+00
2.030124454481643248e+00
2.029186925870540392e+00
2.029186925870540392e+00
2.051312601092562637e+00
2.051312601092562637e+00
2.055812738425855546e+00
2.056187749870296511e+00
2.056187749870296511e+00
2.079625965147862576e+00
2.079625965147862576e+00
2.071375713370158689e+00
2.080000976592303541e+00
2.080000976592303541e+00
2.064625507370219992e+00
2.049812555314798335e+00
2.049812555314798335e+00
2.062937955870235207e+00
2.062937955870235207e+00
2.081688528092287882e+00
2.065563035981322848e+00
2.065563035981322848e+00
2.046812463759269729e+00
2.046812463759269729e+00
2.022999237037263143e+00
2.036874660481581945e+00
2.036874660481581945e+00
2.038562211981566730e+00
2.038562211981566730e+00
2.003123630481887130e+00
2.023749259926145072e+00
2.023749259926145072e+00
2.090688802758873255e+00
2.089376262703329878e+00
2.089376262703329878e+00
2.103064180425428198e+00
2.103064180425428198e+00
2.125377361369670925e+00
2.108689352092044000e+00
2.108689352092044000e+00
2.070625690481276759e+00
2.070625690481276759e+00
2.039687246314890068e+00
2.040437269203771997e+00
2.040437269203771997e+00
2.052625141148106458e+00
2.055812738425855546e+00
2.055812738425855546e+00
2.060125370036927084e+00
2.060125370036927084e+00
2.083563585314493150e+00
2.062000427259132795e+00
2.062000427259132795e+00
2.052062623981445011e+00
2.052062623981445011e+00
2.083188573870052185e+00
2.065000518814661401e+00
2.065000518814661401e+00
2.054312692648091243e+00
2.054312692648091243e+00
2.069875667592394830e+00
2.089001251258888470e+00
2.089001251258888470e+00
2.079813470870083059e+00
2.079813470870083059e+00
2.062000427259132795e+00
2.010811365092929126e+00
2.010811365092929126e+00
2.000873561815240897e+00
2.000873561815240897e+00
2.035562120426038124e+00
2.122752281258583285e+00
2.122752281258583285e+00
2.133815118869594407e+00
2.133815118869594407e+00
2.093876400036621899e+00
2.097626514481032878e+00
2.097626514481032878e+00
2.079813470870083059e+00
2.072313241981261545e+00
2.072313241981261545e+00
2.049437543870357370e+00
2.049437543870357370e+00
2.015311502426221590e+00
2.008936307870723859e+00
2.008936307870723859e+00
2.009686330759605788e+00
2.009686330759605788e+00
2.033499557481612818e+00
2.064625507370219992e+00
2.064625507370219992e+00
2.104376720480972018e+00
2.104376720480972018e+00
2.121252235480818982e+00
2.151815668202764709e+00
2.151815668202764709e+00
2.125189855647450443e+00
2.125189855647450443e+00
2.086376171147801273e+00
2.094438917203283790e+00
2.094438917203283790e+00
2.077188390758995418e+00
2.038374706259346247e+00
2.038374706259346247e+00
2.055812738425855546e+00
2.055812738425855546e+00
2.075500839259010633e+00
2.046999969481490211e+00
2.046999969481490211e+00
2.001248573259681862e+00
2.001248573259681862e+00
2.002936124759666647e+00
2.037624683370464318e+00
2.037624683370464318e+00
2.043624866481521085e+00
2.043624866481521085e+00
2.038749717703787212e+00
2.059187841425824672e+00
2.059187841425824672e+00
2.094063905758842381e+00
2.094063905758842381e+00
2.086188665425580790e+00
2.110189397869807859e+00
2.110189397869807859e+00
2.098189031647694325e+00
2.129314981536301499e+00
2.129314981536301499e+00
2.085626148258918899e+00
2.085626148258918899e+00
2.075688344981231115e+00
2.083938596758934114e+00
2.083938596758934114e+00
2.063312967314676172e+00
2.063312967314676172e+00
2.151628162480544670e+00
2.142815393536179780e+00
2.142815393536179780e+00
2.081126010925626435e+00
2.081126010925626435e+00
2.046062440870388244e+00
2.071188207647938206e+00
2.071188207647938206e+00
2.095188940092165719e+00
2.095188940092165719e+00
2.053750175481429796e+00
1.995435895870845799e+00
1.995435895870845799e+00
2.015874019592883037e+00
2.108314340647602592e+00
2.108314340647602592e+00
2.119564683980834197e+00
2.119564683980834197e+00
2.056000244148076028e+00
2.075313333536790150e+00
2.075313333536790150e+00
2.091251319925535146e+00
2.091251319925535146e+00
2.101001617481002448e+00
2.026374340037232713e+00
2.026374340037232713e+00
1.924933744315927786e+00
1.924933744315927786e+00
1.868119510483107870e+00
1.932058961760307669e+00
1.932058961760307669e+00
2.023749259926145072e+00
2.133440107425153442e+00
2.133440107425153442e+00
2.214630085146641392e+00
2.214630085146641392e+00
2.259256447035126847e+00
2.214630085146641392e+00
2.214630085146641392e+00
2.147315530869472244e+00
2.147315530869472244e+00
2.135315164647358710e+00
2.125564867091891408e+00
2.125564867091891408e+00
2.018311593981750196e+00
2.000873561815240897e+00
2.000873561815240897e+00
1.975560289315469786e+00
1.975560289315469786e+00
1.983998046815393712e+00
2.074188299203466812e+00
2.074188299203466812e+00
2.109064363536484965e+00
2.109064363536484965e+00
2.134190130314035372e+00
2.108501846369823074e+00
2.108501846369823074e+00
2.065750541703543330e+00
2.065750541703543330e+00
1.988685689870906881e+00
2.019436628315073090e+00
2.019436628315073090e+00
2.135127658925138228e+00
2.135127658925138228e+00
2.031999511703848516e+00
2.022061708426160731e+00
2.022061708426160731e+00
2.013623950926236805e+00
1.950997039704580827e+00
1.950997039704580827e+00
2.022436719870601696e+00
2.022436719870601696e+00
2.025249305703909375e+00
1.987560655537583543e+00
1.987560655537583543e+00
2.134565141758476781e+00
2.134565141758476781e+00
2.154065736869411385e+00
2.090313791314432290e+00
2.090313791314432290e+00
2.061812921536912313e+00
2.061812921536912313e+00
2.068750633259071936e+00
2.102876674703207716e+00
2.102876674703207716e+00
2.104751731925412539e+00
2.104751731925412539e+00
2.122189764091921838e+00
2.098939054536576698e+00
2.098939054536576698e+00
2.081501022370067400e+00
2.120502212591937052e+00
2.120502212591937052e+00
2.074375804925687294e+00
2.074375804925687294e+00
1.947434430982390996e+00
1.967497543259987047e+00
1.967497543259987047e+00
1.960747337260048351e+00
1.960747337260048351e+00
2.015123996704001108e+00
2.083001068147831703e+00
2.083001068147831703e+00
2.084501113925596005e+00
2.084501113925596005e+00
2.059937864314706601e+00
2.099689077425458628e+00
2.099689077425458628e+00
2.128377452925199087e+00
2.138877773369548763e+00
2.138877773369548763e+00
2.112439466536454535e+00
2.112439466536454535e+00
2.136815210425123013e+00
2.134002624591814889e+00
2.134002624591814889e+00
2.079813470870083059e+00
2.079813470870083059e+00
2.039312234870449103e+00
1.953809625537888728e+00
1.953809625537888728e+00
1.989435712759789032e+00
1.989435712759789032e+00
1.995060884426404613e+00
2.065750541703543330e+00
2.065750541703543330e+00
2.184441663869136629e+00
2.184441663869136629e+00
2.250818689535202921e+00
2.248756126590777171e+00
2.248756126590777171e+00
2.131377544480727693e+00
2.131377544480727693e+00
2.056562761314737475e+00
2.016624042481765411e+00
2.016624042481765411e+00
1.943496810815759979e+00
1.923058687093722297e+00
1.923058687093722297e+00
1.995998413037507468e+00
1.995998413037507468e+00
2.046999969481490211e+00
2.113939512314218838e+00
2.113939512314218838e+00
2.116377086703085553e+00
2.116377086703085553e+00
2.120127201147496088e+00
2.061812921536912313e+00
2.061812921536912313e+00
1.926433790093691867e+00
1.926433790093691867e+00
1.924371227149266117e+00
1.990935758537552891e+00
1.990935758537552891e+00
1.998060975981932996e+00
1.968435071871089903e+00
1.968435071871089903e+00
2.052250129703665493e+00
2.052250129703665493e+00
2.125002349925229961e+00
2.178441480758079862e+00
2.178441480758079862e+00
2.151628162480544670e+00
2.151628162480544670e+00
2.131190038758506766e+00
2.062187932981353278e+00
2.062187932981353278e+00
2.014936490981780626e+00
2.035187108981597159e+00
2.037249671926022909e+00
2.037249671926022909e+00
2.072313241981261545e+00
2.072313241981261545e+00
1.990748252815332409e+00
1.903558091982787470e+00
1.903558091982787470e+00
2.013623950926236805e+00
2.013623950926236805e+00
2.025811822870570822e+00
2.012686422315133949e+00
2.012686422315133949e+00
2.089001251258888470e+00
2.089001251258888470e+00
2.127627430036317158e+00
2.161378460036011973e+00
2.161378460036011973e+00
2.183316629535813735e+00
2.183316629535813735e+00
2.106626789147617806e+00
2.067813104647969080e+00
2.067813104647969080e+00
2.048500015259254514e+00
2.074375804925687294e+00
2.074375804925687294e+00
2.030499465926084213e+00
2.030499465926084213e+00
2.013436445204016323e+00
2.111876949369793088e+00
2.111876949369793088e+00
2.142065370647297406e+00
2.142065370647297406e+00
2.038937223426007694e+00
1.931121433149205036e+00
1.931121433149205036e+00
1.949872005371257710e+00
1.949872005371257710e+00
2.100064088869899592e+00
2.148440565202795582e+00
2.148440565202795582e+00
2.131565050202948175e+00
2.131565050202948175e+00
2.037999694814905283e+00
2.047562486648152102e+00
2.047562486648152102e+00
2.069688161870173904e+00
2.193254432813501520e+00
2.193254432813501520e+00
2.190441846980193397e+00
2.190441846980193397e+00
2.135690176091799675e+00
2.134190130314035372e+00
2.134190130314035372e+00
2.141127842036194995e+00
2.141127842036194995e+00
2.060875392925809457e+00
1.890995208594012267e+00
1.825743217261269091e+00
1.825743217261269091e+00
1.735177953428754583e+00
1.735177953428754583e+00
1.745115756706442367e+00
1.908808252204962308e+00
1.908808252204962308e+00
2.062750450148014725e+00
2.065188024536881883e+00
2.065188024536881883e+00
2.119939695425275605e+00
2.119939695425275605e+00
2.148253059480575100e+00
2.159315897091586223e+00
2.159315897091586223e+00
2.154440748313852350e+00
2.154440748313852350e+00
2.128752464369640052e+00
2.058250312814721816e+00
2.058250312814721816e+00
2.105876766258735877e+00
2.105876766258735877e+00
2.066500564592425260e+00
2.108689352092044000e+00
2.108689352092044000e+00
2.128189947202978605e+00
2.128189947202978605e+00
2.117689626758628929e+00
2.235818231757560781e+00
2.235818231757560781e+00
2.152190679647205673e+00
2.152190679647205673e+00
2.051875118259224084e+00
1.948559465315714112e+00
1.948559465315714112e+00
1.939746696371349222e+00
1.949684499649037006e+00
1.949684499649037006e+00
1.970122623371074688e+00
1.970122623371074688e+00
2.069688161870173904e+00
2.247631092257453833e+00
2.247631092257453833e+00
2.197192052980132537e+00
2.197192052980132537e+00
2.160065919980468152e+00
2.056000244148076028e+00
2.056000244148076028e+00
1.959059785760063566e+00
1.959059785760063566e+00
2.010623859370708644e+00
1.980060426648762473e+00
1.980060426648762473e+00
1.862306833094271585e+00
1.821618091372417370e+00
1.821618091372417370e+00
2.212755027924436124e+00
2.212755027924436124e+00
2.293945005645924073e+00
2.198129581591235393e+00
2.198129581591235393e+00
2.129314981536301499e+00
2.129314981536301499e+00
2.069125644703512901e+00
2.144502945036164565e+00
2.144502945036164565e+00
2.011748893704031538e+00
1.880682393871883296e+00
1.880682393871883296e+00
1.836056031983398062e+00
1.836056031983398062e+00
1.957934751426740450e+00
2.095938962981048093e+00
2.095938962981048093e+00
2.129314981536301499e+00
2.213692556535538980e+00
2.213692556535538980e+00
2.201317178868984037e+00
2.201317178868984037e+00
2.079813470870083059e+00
1.953809625537888728e+00
1.953809625537888728e+00
1.824055665761284306e+00
1.824055665761284306e+00
1.881994933927427116e+00
1.991310769981994078e+00
1.991310769981994078e+00
2.170566240424817828e+00
2.170566240424817828e+00
2.239380840479750834e+00
2.216130130924405695e+00
2.216130130924405695e+00
2.179379009369182274e+00
2.168691183202612560e+00
2.168691183202612560e+00
2.093688894314401416e+00
2.093688894314401416e+00
2.031624500259407551e+00
2.023186742759483625e+00
2.023186742759483625e+00
2.012873928037354432e+00
2.012873928037354432e+00
1.941621753593554489e+00
2.039687246314890068e+00
2.039687246314890068e+00
2.180691549424726094e+00
2.180691549424726094e+00
2.098001525925473842e+00
2.105689260536515395e+00
2.105689260536515395e+00
2.099126560258797181e+00
2.099126560258797181e+00
2.064438001647999510e+00
2.020749168370616911e+00
2.020749168370616911e+00
2.010061342204047197e+00
2.061437910092470904e+00
2.061437910092470904e+00
2.122002258369701355e+00
2.122002258369701355e+00
2.120314706869716570e+00
2.107564317758720662e+00
2.107564317758720662e+00
2.081313516647846917e+00
2.081313516647846917e+00
2.131002533036286284e+00
2.110939420758690233e+00
2.110939420758690233e+00
1.975935300759910973e+00
1.897557908871730703e+00
1.897557908871730703e+00
2.013248939481795396e+00
2.013248939481795396e+00
1.997123447370830363e+00
2.126127384258552855e+00
2.126127384258552855e+00
2.083376079592272667e+00
2.170941251869258792e+00
2.170941251869258792e+00
2.215192602313302839e+00
2.215192602313302839e+00
2.142440382091738371e+00
2.097251503036591469e+00
2.097251503036591469e+00
1.973122714926602850e+00
1.973122714926602850e+00
1.948934476760155077e+00
1.936746604815820838e+00
1.936746604815820838e+00
2.016811548203985893e+00
2.016811548203985893e+00
2.145627979369487459e+00
2.131752555925168657e+00
2.131752555925168657e+00
2.003498641926328094e+00
2.003498641926328094e+00
1.912370860927152361e+00
1.953247108371227281e+00
1.953247108371227281e+00
2.167003631702627775e+00
2.167003631702627775e+00
2.294132511368144556e+00
2.381510177922910199e+00
2.381510177922910199e+00
2.311945554979094819e+00
2.311945554979094819e+00
2.181254066591387542e+00
2.110939420758690233e+00
2.110939420758690233e+00
2.081313516647846917e+00
1.887432599871822214e+00
1.887432599871822214e+00
1.910683309427167575e+00
1.910683309427167575e+00
1.918371044038209350e+00
1.969747611926633502e+00
1.969747611926633502e+00
1.853494064149906917e+00
1.853494064149906917e+00
1.885182531205175982e+00
1.989623218482009515e+00
1.989623218482009515e+00
2.037437177648243392e+00
2.037437177648243392e+00
2.054875209814752690e+00
2.110376903592028786e+00
2.110376903592028786e+00
2.118252143925290376e+00
2.118252143925290376e+00
2.148065553758354618e+00
2.126877407147435228e+00
2.126877407147435228e+00
2.286632282479323930e+00
2.286632282479323930e+00
2.414323679311502602e+00
2.442637043366802097e+00
2.442637043366802097e+00
2.288319833979308715e+00
2.288319833979308715e+00
2.021124179815057875e+00
1.974435254982146670e+00
1.974435254982146670e+00
1.936371593371379873e+00
2.016061525315103520e+00
2.016061525315103520e+00
1.980060426648762473e+00
1.980060426648762473e+00
2.098189031647694325e+00
1.985310586870937088e+00
1.985310586870937088e+00
1.932058961760307669e+00
1.932058961760307669e+00
1.834930997650074724e+00
1.845993835261085847e+00
1.845993835261085847e+00
1.969560106204413019e+00
2.083188573870052185e+00
2.083188573870052185e+00
2.028811914426099428e+00
2.028811914426099428e+00
2.018311593981750196e+00
1.975185277871028822e+00
1.975185277871028822e+00
1.919496078371532466e+00
1.919496078371532466e+00
2.057687795648060813e+00
2.266944181646168399e+00
2.266944181646168399e+00
2.117877132480849411e+00
2.117877132480849411e+00
2.087126194036683202e+00
2.163253517258217240e+00
2.163253517258217240e+00
2.157065828424939546e+00
2.157065828424939546e+00
2.008186284981841485e+00
2.012498916592913467e+00
2.012498916592913467e+00
2.072125736259041062e+00
2.287944822534867306e+00
2.287944822534867306e+00
2.247818597979674760e+00
2.247818597979674760e+00
2.100626606036561483e+00
2.094438917203283790e+00
2.094438917203283790e+00
1.998810998870815148e+00
1.998810998870815148e+00
1.957934751426740450e+00
2.030311960203863730e+00
2.030311960203863730e+00
2.011373882259590129e+00
2.011373882259590129e+00
2.062000427259132795e+00
2.072125736259041062e+00
2.072125736259041062e+00
2.172066286202582130e+00
2.172066286202582130e+00
2.254943815424054865e+00
2.314383129367961978e+00
2.314383129367961978e+00
2.184066652424695665e+00
2.105689260536515395e+00
2.105689260536515395e+00
1.995248390148625317e+00
1.995248390148625317e+00
1.933559007538071750e+00
2.018686605426191161e+00
2.018686605426191161e+00
2.042874843592639156e+00
2.042874843592639156e+00
2.112814477980895500e+00
2.088251228370006540e+00
2.088251228370006540e+00
2.005936216315195253e+00
2.005936216315195253e+00
2.189316812646870059e+00
2.269569261757255596e+00
2.269569261757255596e+00
2.076625873592333971e+00
2.076625873592333971e+00
1.894745323038422802e+00
1.965622486037782002e+00
1.965622486037782002e+00
1.920246101260414395e+00
1.920246101260414395e+00
1.956059694204534960e+00
2.016061525315103520e+00
2.016061525315103520e+00
2.013436445204016323e+00
2.073625782036805365e+00
2.073625782036805365e+00
2.116377086703085553e+00
2.116377086703085553e+00
2.193066927091281038e+00
2.194379467146824858e+00
2.194379467146824858e+00
2.231130588702047834e+00
2.231130588702047834e+00
2.134377636036255854e+00
2.075125827814569668e+00
2.075125827814569668e+00
2.044562395092623941e+00
2.044562395092623941e+00
1.968060060426648716e+00
2.036499649037140980e+00
2.036499649037140980e+00
2.037812189092684800e+00
2.037812189092684800e+00
2.005936216315195253e+00
2.099314065981017663e+00
2.099314065981017663e+00
2.044562395092623941e+00
2.037999694814905283e+00
2.037999694814905283e+00
2.089563768425550361e+00
2.089563768425550361e+00
2.133627613147373925e+00
2.070625690481276759e+00
2.070625690481276759e+00
2.125939878536332373e+00
2.125939878536332373e+00
2.069500656147953865e+00
2.141127842036194995e+00
2.141127842036194995e+00
2.266944181646168399e+00
2.266944181646168399e+00
2.177128940702536042e+00
2.155378276924954761e+00
2.155378276924954761e+00
2.017936582537308787e+00
2.017936582537308787e+00
1.812617816705832219e+00
1.792929715872676688e+00
1.792929715872676688e+00
1.836806054872280214e+00
1.996935941648609880e+00
1.996935941648609880e+00
2.086188665425580790e+00
2.086188665425580790e+00
2.116752098147526517e+00
2.101189123203222930e+00
2.101189123203222930e+00
2.136440198980682048e+00
2.136440198980682048e+00
2.111314432203131197e+00
2.061062898648029940e+00
2.061062898648029940e+00
2.113939512314218838e+00
2.071000701925717724e+00
2.055437726981414581e+00
2.055437726981414581e+00
2.107376812036500180e+00
2.107376812036500180e+00
2.155190771202734279e+00
2.115627063814203623e+00
2.115627063814203623e+00
2.078500930814539238e+00
2.078500930814539238e+00
2.040062257759331033e+00
2.001248573259681862e+00
2.001248573259681862e+00
2.028249397259437981e+00
2.093313882869960452e+00
2.093313882869960452e+00
2.137377727591784460e+00
2.137377727591784460e+00
2.115252052369762659e+00
2.117314615314187964e+00
2.117314615314187964e+00
2.061812921536912313e+00
2.061812921536912313e+00
2.029936948759422766e+00
2.055625232703635064e+00
2.055625232703635064e+00
2.102501663258766751e+00
2.102501663258766751e+00
2.072875759147922992e+00
2.143377910702841227e+00
2.143377910702841227e+00
2.146190496536149350e+00
2.146190496536149350e+00
2.094813928647724754e+00
2.046437452314828764e+00
2.046437452314828764e+00
