2.065375530259102366e+00
2.076438367870113488e+00
2.076438367870113488e+00
2.063125461592455689e+00
2.063125461592455689e+00
2.030499465926084213e+00
2.077375896481215900e+00
2.077375896481215900e+00
2.092938871425519931e+00
2.092938871425519931e+00
2.034624591814935712e+00
2.049250038148136888e+00
2.049250038148136888e+00
2.071375713370158689e+00
2.071375713370158689e+00
2.067250587481307633e+00
2.024874294259468410e+00
2.024874294259468410e+00
2.048312509537034032e+00
2.048312509537034032e+00
2.088063722647786058e+00
2.072500747703482027e+00
2.072500747703482027e+00
2.060875392925809457e+00
2.060875392925809457e+00
2.057875301370280852e+00
2.068938138981292418e+00
2.068938138981292418e+00
2.086751182592242237e+00
2.086751182592242237e+00
2.081688528092287882e+00
2.062000427259132795e+00
2.062000427259132795e+00
2.043249855037080120e+00
2.043999877925962494e+00
2.043999877925962494e+00
2.059937864314706601e+00
2.087501205481124167e+00
2.087501205481124167e+00
2.079625965147862576e+00
2.102876674703207716e+00
2.102876674703207716e+00
2.070813196203497242e+00
2.070813196203497242e+00
2.027874385814997016e+00
2.025999328592791304e+00
2.025999328592791304e+00
2.020749168370616911e+00
2.020749168370616911e+00
2.025436811426129857e+00
2.010998870815149164e+00
2.010998870815149164e+00
2.078688436536759720e+00
2.121064729758598499e+00
2.121064729758598499e+00
2.121252235480818982e+00
2.121252235480818982e+00
2.096126468703268575e+00
2.068188116092410045e+00
2.068188116092410045e+00
2.065563035981322848e+00
2.065563035981322848e+00
2.066688070314646186e+00
2.080000976592303541e+00
2.080000976592303541e+00
2.071375713370158689e+00
2.068750633259071936e+00
2.068750633259071936e+00
2.088251228370006540e+00
2.088251228370006540e+00
2.151815668202764709e+00
2.116939603869747000e+00
2.116939603869747000e+00
2.071938230536820580e+00
2.071938230536820580e+00
2.046999969481490211e+00
2.095001434369945237e+00
2.095001434369945237e+00
2.053375164036988387e+00
2.053375164036988387e+00
2.044374889370403459e+00
2.073250770592364400e+00
2.073250770592364400e+00
2.078313425092318756e+00
2.078313425092318756e+00
2.123502304147465658e+00
2.002561113315225683e+00
2.002561113315225683e+00
2.144315439313944083e+00
2.119564683980834197e+00
2.119564683980834197e+00
2.149378093813898438e+00
2.149378093813898438e+00
2.112814477980895500e+00
2.060875392925809457e+00
2.060875392925809457e+00
2.096126468703268575e+00
2.096126468703268575e+00
2.022999237037263143e+00
2.003686147648549021e+00
2.003686147648549021e+00
2.043624866481521085e+00
1.986060609759819240e+00
1.986060609759819240e+00
1.986248115482039944e+00
1.986248115482039944e+00
2.043062349314859638e+00
2.076625873592333971e+00
2.076625873592333971e+00
2.119377178258613714e+00
2.119377178258613714e+00
2.099126560258797181e+00
2.078125919370098273e+00
2.078125919370098273e+00
2.073813287759025847e+00
2.061062898648029940e+00
2.061062898648029940e+00
2.043812372203741567e+00
2.043812372203741567e+00
2.042874843592639156e+00
2.018124088259529714e+00
2.018124088259529714e+00
2.003686147648549021e+00
2.003686147648549021e+00
2.016811548203985893e+00
2.064438001647999510e+00
2.064438001647999510e+00
2.113001983703115982e+00
2.113001983703115982e+00
2.127439924314096675e+00
2.086938688314462720e+00
2.086938688314462720e+00
2.055250221259193655e+00
2.055250221259193655e+00
2.018686605426191161e+00
2.031249488814966586e+00
2.031249488814966586e+00
2.050375072481459782e+00
2.057875301370280852e+00
2.057875301370280852e+00
2.033499557481612818e+00
2.033499557481612818e+00
2.026936857203894160e+00
2.039499740592669585e+00
2.039499740592669585e+00
1.997873470259712514e+00
1.997873470259712514e+00
1.998623493148594665e+00
2.000873561815240897e+00
2.000873561815240897e+00
2.108876857814264483e+00
2.108876857814264483e+00
2.172816309091464060e+00
2.184816675313578038e+00
2.184816675313578038e+00
2.170941251869258792e+00
2.124627338480788552e+00
2.124627338480788552e+00
2.062750450148014725e+00
2.062750450148014725e+00
2.050562578203680708e+00
2.040437269203771997e+00
2.040437269203771997e+00
2.018874111148411643e+00
2.018874111148411643e+00
2.036312143314920498e+00
2.044187383648182976e+00
2.044187383648182976e+00
2.096688985869930022e+00
2.096688985869930022e+00
2.067438093203528116e+00
2.053187658314767905e+00
2.053187658314767905e+00
2.052625141148106458e+00
2.052625141148106458e+00
2.047374980925931620e+00
2.024499282815027001e+00
2.024499282815027001e+00
2.073625782036805365e+00
2.084126102481154597e+00
2.084126102481154597e+00
2.054500198370311725e+00
2.054500198370311725e+00
2.070250679036835795e+00
2.121064729758598499e+00
2.121064729758598499e+00
2.125002349925229961e+00
2.125002349925229961e+00
2.096501480147709540e+00
2.051312601092562637e+00
2.051312601092562637e+00
2.128752464369640052e+00
2.128752464369640052e+00
2.107376812036500180e+00
2.084126102481154597e+00
2.084126102481154597e+00
2.071938230536820580e+00
2.049062532425916405e+00
2.049062532425916405e+00
2.008373790704061967e+00
2.008373790704061967e+00
2.025061799981688893e+00
2.039499740592669585e+00
2.039499740592669585e+00
2.040624774925992480e+00
2.040624774925992480e+00
2.067625598925748598e+00
2.026374340037232713e+00
2.026374340037232713e+00
2.037812189092684800e+00
2.037812189092684800e+00
2.094438917203283790e+00
2.121439741203039464e+00
2.121439741203039464e+00
2.028061891537217498e+00
2.006498733481856700e+00
2.006498733481856700e+00
2.031436994537187068e+00
2.031436994537187068e+00
2.088813745536667987e+00
2.062937955870235207e+00
2.062937955870235207e+00
2.061812921536912313e+00
2.061812921536912313e+00
2.048687520981474997e+00
2.044374889370403459e+00
2.044374889370403459e+00
2.064813013092440475e+00
2.064813013092440475e+00
2.104939237647633021e+00
2.053562669759208870e+00
2.053562669759208870e+00
2.055062715536973172e+00
2.055062715536973172e+00
2.098564043092135289e+00
2.075688344981231115e+00
2.075688344981231115e+00
2.079438459425641650e+00
2.079438459425641650e+00
2.066125553147984295e+00
2.027874385814997016e+00
2.027874385814997016e+00
2.027499374370555607e+00
2.084313608203375079e+00
2.084313608203375079e+00
2.088813745536667987e+00
2.088813745536667987e+00
2.054500198370311725e+00
2.036874660481581945e+00
2.036874660481581945e+00
2.048875026703695923e+00
2.048875026703695923e+00
2.057875301370280852e+00
2.082626056703390294e+00
2.082626056703390294e+00
2.094438917203283790e+00
2.094438917203283790e+00
2.093501388592180934e+00
2.034999603259376677e+00
2.034999603259376677e+00
1.988123172704245212e+00
1.987748161259804025e+00
1.987748161259804025e+00
2.023186742759483625e+00
2.023186742759483625e+00
2.143752922147282192e+00
2.049812555314798335e+00
2.049812555314798335e+00
2.056187749870296511e+00
2.056187749870296511e+00
2.123127292703024249e+00
2.141315347758415477e+00
2.141315347758415477e+00
2.150503128147221332e+00
2.150503128147221332e+00
2.037999694814905283e+00
2.033499557481612818e+00
2.033499557481612818e+00
2.120502212591937052e+00
2.131940061647389140e+00
2.131940061647389140e+00
2.008186284981841485e+00
2.008186284981841485e+00
2.003686147648549021e+00
1.958684774315622379e+00
1.958684774315622379e+00
1.983060518204291078e+00
1.983060518204291078e+00
2.047187475203710694e+00
2.087688711203345093e+00
2.087688711203345093e+00
2.064813013092440475e+00
2.064813013092440475e+00
2.128189947202978605e+00
2.107189306314279698e+00
2.107189306314279698e+00
2.068938138981292418e+00
2.068938138981292418e+00
2.025811822870570822e+00
2.022061708426160731e+00
2.022061708426160731e+00
2.042312326425977265e+00
2.089001251258888470e+00
2.089001251258888470e+00
2.040437269203771997e+00
2.040437269203771997e+00
2.033687063203833301e+00
2.094063905758842381e+00
2.094063905758842381e+00
2.120502212591937052e+00
2.120502212591937052e+00
2.121252235480818982e+00
2.147690542313913653e+00
2.147690542313913653e+00
2.112064455092013571e+00
2.112064455092013571e+00
2.013623950926236805e+00
2.053750175481429796e+00
2.053750175481429796e+00
2.095938962981048093e+00
2.095938962981048093e+00
2.028811914426099428e+00
2.001436078981902345e+00
2.001436078981902345e+00
2.008561296426282894e+00
2.059187841425824672e+00
2.059187841425824672e+00
2.067813104647969080e+00
2.067813104647969080e+00
1.973685232093264519e+00
1.986998138370922096e+00
1.986998138370922096e+00
2.121252235480818982e+00
2.121252235480818982e+00
2.145252967925046494e+00
2.111501937925351680e+00
2.111501937925351680e+00
2.095376445814386202e+00
2.041187292092654371e+00
2.041187292092654371e+00
2.003311136204107612e+00
2.003311136204107612e+00
2.025811822870570822e+00
2.090501297036652772e+00
2.090501297036652772e+00
2.053187658314767905e+00
2.053187658314767905e+00
1.969935117648853984e+00
1.962434888760032914e+00
1.962434888760032914e+00
2.087876216925565576e+00
2.078313425092318756e+00
2.078313425092318756e+00
2.091626331369976111e+00
2.091626331369976111e+00
2.137752739036225869e+00
2.098001525925473842e+00
2.098001525925473842e+00
2.101189123203222930e+00
2.101189123203222930e+00
2.116939603869747000e+00
2.039687246314890068e+00
2.039687246314890068e+00
2.094626422925504272e+00
2.094626422925504272e+00
2.019624134037293572e+00
2.028249397259437981e+00
2.028249397259437981e+00
2.042124820703756782e+00
2.042124820703756782e+00
2.015123996704001108e+00
2.017936582537308787e+00
2.017936582537308787e+00
2.030499465926084213e+00
2.030499465926084213e+00
2.032937040314951371e+00
2.065563035981322848e+00
2.065563035981322848e+00
2.125564867091891408e+00
2.082438550981169811e+00
2.082438550981169811e+00
2.097814020203253360e+00
2.097814020203253360e+00
2.103626697592089645e+00
2.038374706259346247e+00
2.038374706259346247e+00
2.017936582537308787e+00
2.017936582537308787e+00
2.079813470870083059e+00
2.182941618091372327e+00
2.182941618091372327e+00
2.183691640980254700e+00
2.098751548814355772e+00
2.098751548814355772e+00
1.996748435926389398e+00
1.996748435926389398e+00
2.049625049592577852e+00
2.047187475203710694e+00
2.047187475203710694e+00
2.046062440870388244e+00
2.046062440870388244e+00
2.106814294869838289e+00
2.116002075258644588e+00
2.116002075258644588e+00
2.052062623981445011e+00
2.052062623981445011e+00
2.166441114535965884e+00
2.053000152592547423e+00
2.053000152592547423e+00
1.900182988982818122e+00
1.900182988982818122e+00
1.869057039094210726e+00
2.118439649647511303e+00
2.118439649647511303e+00
2.141690359202856442e+00
2.141690359202856442e+00
2.115627063814203623e+00
2.035937131870479533e+00
2.035937131870479533e+00
2.137565233314004942e+00
2.119752189703054679e+00
2.119752189703054679e+00
2.030311960203863730e+00
2.030311960203863730e+00
1.975372783593249304e+00
2.035937131870479533e+00
2.035937131870479533e+00
2.036312143314920498e+00
2.036312143314920498e+00
2.001623584704122827e+00
2.024874294259468410e+00
2.024874294259468410e+00
2.072125736259041062e+00
2.072125736259041062e+00
2.134752647480697263e+00
2.046249946592608282e+00
2.046249946592608282e+00
2.055437726981414581e+00
2.055437726981414581e+00
2.007811273537400520e+00
2.026186834315011787e+00
2.026186834315011787e+00
2.071750724814600098e+00
2.100814111758781966e+00
2.100814111758781966e+00
2.133440107425153442e+00
2.133440107425153442e+00
2.125189855647450443e+00
2.029749443037202283e+00
2.029749443037202283e+00
2.037624683370464318e+00
2.037624683370464318e+00
1.989060701315347846e+00
2.056562761314737475e+00
2.056562761314737475e+00
2.065750541703543330e+00
2.065750541703543330e+00
2.111501937925351680e+00
2.056187749870296511e+00
2.056187749870296511e+00
2.008748802148503376e+00
2.008748802148503376e+00
2.104189214758751536e+00
2.108876857814264483e+00
2.108876857814264483e+00
1.974810266426587635e+00
1.906370677816095593e+00
1.906370677816095593e+00
2.044562395092623941e+00
2.044562395092623941e+00
2.118627155369731785e+00
2.227380474257637299e+00
2.227380474257637299e+00
2.128752464369640052e+00
2.128752464369640052e+00
2.167378643147068740e+00
2.179566515091402756e+00
2.179566515091402756e+00
2.138690267647328280e+00
2.138690267647328280e+00
2.227005462813196335e+00
2.243880977813043742e+00
2.243880977813043742e+00
2.149565599536118921e+00
2.149565599536118921e+00
2.052812646870326940e+00
2.065750541703543330e+00
2.065750541703543330e+00
2.020186651203955464e+00
2.036124637592700015e+00
2.036124637592700015e+00
1.877307290871913947e+00
1.877307290871913947e+00
1.623987060151982131e+00
1.797429853205969374e+00
1.797429853205969374e+00
1.954559648426770879e+00
1.954559648426770879e+00
1.927558824427014983e+00
2.036499649037140980e+00
2.036499649037140980e+00
1.984935575426496124e+00
1.984935575426496124e+00
2.025061799981688893e+00
2.212192510757774677e+00
2.212192510757774677e+00
2.496451185644092963e+00
2.496451185644092963e+00
2.438324411755729670e+00
2.287569811090426342e+00
2.287569811090426342e+00
2.001436078981902345e+00
2.001436078981902345e+00
1.939184179204687553e+00
2.050187566759239299e+00
2.050187566759239299e+00
1.968622577593310385e+00
2.016811548203985893e+00
2.016811548203985893e+00
2.240505874813074172e+00
2.240505874813074172e+00
2.034999603259376677e+00
1.936746604815820838e+00
1.936746604815820838e+00
2.026936857203894160e+00
2.026936857203894160e+00
2.089001251258888470e+00
2.203567247535630269e+00
2.203567247535630269e+00
2.306320383312479017e+00
2.085626148258918899e+00
2.085626148258918899e+00
1.896245368816187105e+00
1.896245368816187105e+00
2.034812097537156195e+00
2.143190404980620745e+00
2.143190404980620745e+00
2.074938322092349186e+00
2.074938322092349186e+00
2.102876674703207716e+00
2.086376171147801273e+00
2.086376171147801273e+00
2.009498825037385306e+00
2.009498825037385306e+00
2.151065645313883223e+00
2.072875759147922992e+00
2.072875759147922992e+00
1.984373058259834677e+00
1.984373058259834677e+00
2.009311319315164823e+00
2.112626972258675018e+00
2.112626972258675018e+00
2.202067201757865966e+00
2.045499923703726353e+00
2.045499923703726353e+00
2.050937589648121673e+00
2.050937589648121673e+00
2.001811090426343309e+00
1.952684591204565612e+00
1.952684591204565612e+00
1.787304544206060886e+00
1.787304544206060886e+00
1.902433057649464576e+00
1.888557634205145552e+00
1.888557634205145552e+00
1.829493331705679626e+00
1.829493331705679626e+00
2.254006286812952009e+00
2.286257271034882521e+00
2.286257271034882521e+00
2.254568803979613900e+00
2.254568803979613900e+00
2.017186559648426858e+00
2.074375804925687294e+00
2.074375804925687294e+00
2.271631824701681346e+00
2.299007660145878429e+00
2.299007660145878429e+00
2.253631275368511044e+00
2.253631275368511044e+00
2.220255256813257638e+00
2.265444135868404540e+00
2.265444135868404540e+00
1.972185186315500438e+00
1.972185186315500438e+00
1.893995300149540650e+00
1.792929715872676688e+00
1.792929715872676688e+00
1.986060609759819240e+00
1.986060609759819240e+00
2.089376262703329878e+00
2.048875026703695923e+00
2.048875026703695923e+00
2.144502945036164565e+00
2.144502945036164565e+00
2.122189764091921838e+00
2.261881527146214044e+00
2.261881527146214044e+00
2.198504593035676358e+00
2.198504593035676358e+00
1.883307473982970714e+00
1.944059327982421204e+00
1.944059327982421204e+00
2.068938138981292418e+00
2.246881069368571904e+00
2.246881069368571904e+00
1.979497909482100804e+00
1.979497909482100804e+00
1.903370586260566988e+00
1.766866420484023648e+00
1.766866420484023648e+00
2.081126010925626435e+00
2.312133060701315301e+00
2.312133060701315301e+00
2.331071138645588459e+00
2.331071138645588459e+00
2.218192693868831444e+00
2.050000061037018817e+00
2.050000061037018817e+00
2.097626514481032878e+00
2.097626514481032878e+00
2.005561204870754288e+00
1.900933011871700273e+00
1.900933011871700273e+00
1.918371044038209350e+00
1.918371044038209350e+00
1.990560747093111926e+00
2.074938322092349186e+00
2.074938322092349186e+00
1.972372692037720920e+00
1.972372692037720920e+00
2.306132877590258534e+00
2.351134250923184954e+00
2.351134250923184954e+00
2.271256813257240381e+00
2.271256813257240381e+00
2.078313425092318756e+00
1.898495437482833337e+00
1.898495437482833337e+00
1.899995483260597640e+00
1.918183538315988645e+00
1.918183538315988645e+00
2.030499465926084213e+00
2.030499465926084213e+00
1.978185369426557427e+00
2.096313974425489057e+00
2.096313974425489057e+00
2.190254341257972914e+00
2.190254341257972914e+00
2.264694112979522167e+00
2.135690176091799675e+00
2.135690176091799675e+00
1.908620746482741826e+00
1.908620746482741826e+00
1.917433515427106494e+00
2.103626697592089645e+00
2.103626697592089645e+00
2.220630268257698603e+00
2.270131778923917043e+00
2.270131778923917043e+00
2.201317178868984037e+00
2.201317178868984037e+00
2.047374980925931620e+00
1.971435163426618287e+00
1.971435163426618287e+00
1.814492873928037486e+00
1.814492873928037486e+00
1.973122714926602850e+00
2.219130222479934300e+00
2.219130222479934300e+00
2.140190313425092139e+00
2.140190313425092139e+00
2.152003173924985191e+00
2.119564683980834197e+00
2.119564683980834197e+00
2.146378002258369833e+00
2.056937772759178884e+00
2.056937772759178884e+00
2.068750633259071936e+00
2.068750633259071936e+00
2.091813837092196593e+00
2.028999420148319910e+00
2.028999420148319910e+00
2.040249763481551515e+00
2.040249763481551515e+00
2.043062349314859638e+00
2.106439283425397324e+00
2.106439283425397324e+00
2.105689260536515395e+00
2.105689260536515395e+00
2.012873928037354432e+00
2.017749076815088305e+00
2.017749076815088305e+00
2.138315256202887316e+00
2.003311136204107612e+00
2.003311136204107612e+00
2.022436719870601696e+00
2.022436719870601696e+00
2.125002349925229961e+00
2.104939237647633021e+00
2.104939237647633021e+00
2.040437269203771997e+00
2.040437269203771997e+00
2.088063722647786058e+00
2.101001617481002448e+00
2.101001617481002448e+00
2.058062807092501334e+00
2.058062807092501334e+00
2.100814111758781966e+00
2.056750267036957958e+00
2.056750267036957958e+00
2.122377269814142320e+00
2.071188207647938206e+00
2.071188207647938206e+00
2.066313058870204777e+00
2.066313058870204777e+00
2.045687429425947279e+00
2.012123905148472502e+00
2.012123905148472502e+00
1.953809625537888728e+00
1.953809625537888728e+00
1.987560655537583543e+00
2.035937131870479533e+00
2.035937131870479533e+00
2.166253608813745402e+00
2.166253608813745402e+00
2.178441480758079862e+00
2.170191228980376863e+00
2.170191228980376863e+00
2.167941160313730187e+00
2.167941160313730187e+00
2.140377819147312621e+00
2.077188390758995418e+00
2.077188390758995418e+00
2.064062990203558545e+00
2.064062990203558545e+00
2.052062623981445011e+00
2.079063447981200685e+00
2.079063447981200685e+00
2.002561113315225683e+00
1.983623035370952525e+00
1.983623035370952525e+00
2.007998779259621003e+00
2.007998779259621003e+00
2.041937314981536300e+00
2.233568163090914993e+00
2.233568163090914993e+00
2.154440748313852350e+00
2.154440748313852350e+00
2.091251319925535146e+00
2.004998687704092397e+00
2.004998687704092397e+00
2.041187292092654371e+00
2.041187292092654371e+00
2.059750358592486119e+00
2.126689901425214746e+00
2.126689901425214746e+00
2.133065095980712478e+00
2.133065095980712478e+00
2.054312692648091243e+00
2.050187566759239299e+00
2.050187566759239299e+00
2.098189031647694325e+00
2.054312692648091243e+00
2.054312692648091243e+00
2.033874568926053783e+00
2.033874568926053783e+00
1.979122898037659839e+00
1.996373424481948211e+00
1.996373424481948211e+00
2.169066194647053525e+00
2.169066194647053525e+00
2.151815668202764709e+00
2.044187383648182976e+00
2.044187383648182976e+00
2.089938779869991325e+00
2.089938779869991325e+00
2.150315622425000850e+00
2.116002075258644588e+00
2.116002075258644588e+00
2.001061067537461380e+00
2.001061067537461380e+00
2.046249946592608282e+00
2.092751365703299449e+00
2.092751365703299449e+00
2.036874660481581945e+00
2.054312692648091243e+00
2.054312692648091243e+00
2.075500839259010633e+00
2.113752006591998356e+00
2.113752006591998356e+00
2.087876216925565576e+00
2.014561479537339217e+00
2.014561479537339217e+00
2.004248664815210468e+00
2.004248664815210468e+00
2.006686239204077182e+00
2.102314157536546269e+00
2.102314157536546269e+00
2.096126468703268575e+00
2.119002166814172750e+00
2.119002166814172750e+00
2.158190862758262885e+00
2.158190862758262885e+00
2.233005645924253102e+00
2.148065553758354618e+00
2.148065553758354618e+00
2.021124179815057875e+00
2.021124179815057875e+00
1.959809808648945717e+00
2.042312326425977265e+00
2.042312326425977265e+00
2.059375347148045154e+00
2.059375347148045154e+00
2.086563676870021755e+00
2.127252418591876193e+00
2.127252418591876193e+00
2.033124546037171854e+00
2.033124546037171854e+00
2.064438001647999510e+00
2.056562761314737475e+00
2.056562761314737475e+00
2.059375347148045154e+00
2.028811914426099428e+00
2.028811914426099428e+00
2.044187383648182976e+00
2.044187383648182976e+00
2.022811731315042216e+00
2.043437360759300603e+00
2.043437360759300603e+00
2.110001892147587377e+00
2.110001892147587377e+00
2.152190679647205673e+00
2.156878322702719064e+00
2.156878322702719064e+00
2.166441114535965884e+00
2.166441114535965884e+00
2.074938322092349186e+00
2.070438184759056277e+00
2.070438184759056277e+00
2.063312967314676172e+00
2.063312967314676172e+00
1.992810815759758380e+00
1.957747245704519745e+00
1.949121982482375781e+00
1.949121982482375781e+00
2.085063631092257452e+00
2.091626331369976111e+00
2.091626331369976111e+00
2.078688436536759720e+00
2.078688436536759720e+00
2.150315622425000850e+00
2.151815668202764709e+00
2.151815668202764709e+00
2.120877224036378017e+00
2.120877224036378017e+00
2.104189214758751536e+00
2.044562395092623941e+00
2.044562395092623941e+00
2.028436902981658463e+00
2.096126468703268575e+00
2.096126468703268575e+00
2.077938413647877791e+00
2.077938413647877791e+00
2.046249946592608282e+00
2.048687520981474997e+00
2.048687520981474997e+00
2.097251503036591469e+00
2.097251503036591469e+00
2.095001434369945237e+00
2.076625873592333971e+00
2.076625873592333971e+00
2.108126834925382109e+00
2.108126834925382109e+00
2.086188665425580790e+00
2.116377086703085553e+00
2.116377086703085553e+00
2.069125644703512901e+00
2.009873836481826270e+00
2.009873836481826270e+00
2.024686788537247928e+00
2.024686788537247928e+00
2.078875942258980203e+00
2.055812738425855546e+00
2.055812738425855546e+00
2.086001159703360308e+00
2.086001159703360308e+00
2.059375347148045154e+00
2.061250404370250422e+00
2.061250404370250422e+00
2.001623584704122827e+00
2.001623584704122827e+00
2.033874568926053783e+00
2.034437086092715230e+00
2.034437086092715230e+00
2.098376537369914807e+00
2.150690633869442259e+00
2.150690633869442259e+00
2.115627063814203623e+00
2.115627063814203623e+00
2.070250679036835795e+00
2.044562395092623941e+00
2.044562395092623941e+00
2.047562486648152102e+00
2.047562486648152102e+00
2.052250129703665493e+00
2.060875392925809457e+00
2.060875392925809457e+00
1.761241248817407845e+00
1.988498184148686176e+00
1.988498184148686176e+00
2.232818140202032620e+00
2.232818140202032620e+00
1.858556718649861272e+00
1.720552507095553629e+00
1.720552507095553629e+00
2.404760887478255782e+00
2.404760887478255782e+00
2.257381389812921579e+00
2.200379650257881181e+00
2.200379650257881181e+00
2.175066377758110736e+00
2.175066377758110736e+00
2.123314798425245176e+00
2.088251228370006540e+00
2.088251228370006540e+00
2.063312967314676172e+00
2.040624774925992480e+00
2.040624774925992480e+00
2.035187108981597159e+00
2.035187108981597159e+00
2.145440473647266977e+00
2.119564683980834197e+00
2.119564683980834197e+00
2.046624958037049247e+00
2.046624958037049247e+00
2.045874935148167761e+00
2.092563859981078966e+00
2.092563859981078966e+00
2.025624317148350340e+00
2.025624317148350340e+00
2.000498550370799933e+00
2.031436994537187068e+00
2.031436994537187068e+00
2.083376079592272667e+00
2.069125644703512901e+00
2.069125644703512901e+00
2.068750633259071936e+00
2.068750633259071936e+00
2.101751640369884377e+00
2.094626422925504272e+00
2.094626422925504272e+00
2.078875942258980203e+00
2.078875942258980203e+00
2.086376171147801273e+00
2.001998596148564236e+00
2.001998596148564236e+00
2.034249580370494748e+00
2.034249580370494748e+00
2.051312601092562637e+00
2.041749809259315818e+00
2.041749809259315818e+00
2.007998779259621003e+00
2.040062257759331033e+00
2.040062257759331033e+00
2.104751731925412539e+00
2.104751731925412539e+00
2.068000610370189563e+00
2.087876216925565576e+00
2.087876216925565576e+00
2.074375804925687294e+00
2.074375804925687294e+00
2.122564775536362802e+00
2.137190221869563977e+00
2.137190221869563977e+00
2.110751915036469750e+00
2.110751915036469750e+00
2.085438642536698417e+00
2.072500747703482027e+00
2.072500747703482027e+00
2.095563951536606684e+00
2.095563951536606684e+00
2.074188299203466812e+00
2.078875942258980203e+00
2.078875942258980203e+00
2.070063173314615312e+00
2.070063173314615312e+00
2.059187841425824672e+00
2.044187383648182976e+00
2.044187383648182976e+00
2.026936857203894160e+00
2.045874935148167761e+00
2.045874935148167761e+00
2.085063631092257452e+00
2.085063631092257452e+00
2.043999877925962494e+00
2.068188116092410045e+00
2.068188116092410045e+00
2.069125644703512901e+00
2.069125644703512901e+00
2.065000518814661401e+00
2.050562578203680708e+00
2.050562578203680708e+00
2.034999603259376677e+00
2.034999603259376677e+00
2.034062074648274265e+00
2.059187841425824672e+00
2.059187841425824672e+00
2.062750450148014725e+00
2.062750450148014725e+00
2.108126834925382109e+00
2.105126743369853504e+00
2.105126743369853504e+00
2.090126285592211808e+00
2.086938688314462720e+00
2.086938688314462720e+00
2.068000610370189563e+00
2.068000610370189563e+00
2.056000244148076028e+00
2.040249763481551515e+00
2.040249763481551515e+00
2.025061799981688893e+00
2.025061799981688893e+00
2.052250129703665493e+00
2.052250129703665493e+00
2.052250129703665493e+00
2.111501937925351680e+00
2.111501937925351680e+00
2.161753471480452937e+00
2.117877132480849411e+00
2.117877132480849411e+00
2.032187017426068998e+00
2.032187017426068998e+00
2.085063631092257452e+00
2.173003814813684542e+00
2.173003814813684542e+00
2.101189123203222930e+00
2.022999237037263143e+00
2.022999237037263143e+00
1.973872737815485001e+00
1.973872737815485001e+00
2.029561937314981801e+00
2.047562486648152102e+00
2.047562486648152102e+00
2.073625782036805365e+00
2.073625782036805365e+00
2.082626056703390294e+00
2.088251228370006540e+00
2.088251228370006540e+00
2.060500381481368493e+00
2.060500381481368493e+00
2.047187475203710694e+00
2.034999603259376677e+00
2.034999603259376677e+00
2.063312967314676172e+00
2.063312967314676172e+00
2.067625598925748598e+00
2.074563310647907777e+00
2.074563310647907777e+00
2.083188573870052185e+00
2.084688619647816488e+00
2.084688619647816488e+00
2.077000885036774935e+00
2.077000885036774935e+00
2.062937955870235207e+00
2.065750541703543330e+00
2.065750541703543330e+00
2.062000427259132795e+00
2.062000427259132795e+00
2.062187932981353278e+00
2.042687337870418673e+00
2.042687337870418673e+00
2.058250312814721816e+00
2.058250312814721816e+00
2.079063447981200685e+00
2.043999877925962494e+00
2.043999877925962494e+00
2.087876216925565576e+00
2.108126834925382109e+00
2.108126834925382109e+00
2.100064088869899592e+00
2.100064088869899592e+00
2.069125644703512901e+00
2.031249488814966586e+00
2.031249488814966586e+00
2.045874935148167761e+00
2.045874935148167761e+00
2.046437452314828764e+00
2.054875209814752690e+00
2.054875209814752690e+00
2.058812829981383707e+00
2.058812829981383707e+00
2.037812189092684800e+00
2.060125370036927084e+00
2.060125370036927084e+00
2.079250953703421168e+00
2.066500564592425260e+00
2.066500564592425260e+00
2.082063539536728847e+00
2.082063539536728847e+00
2.068563127536851454e+00
2.080563493758964988e+00
2.080563493758964988e+00
2.059937864314706601e+00
2.059937864314706601e+00
2.047374980925931620e+00
2.081688528092287882e+00
2.081688528092287882e+00
2.095938962981048093e+00
2.095938962981048093e+00
2.101376628925443413e+00
2.082063539536728847e+00
2.082063539536728847e+00
2.082626056703390294e+00
2.082626056703390294e+00
2.091251319925535146e+00
2.036312143314920498e+00
2.036312143314920498e+00
2.051875118259224084e+00
2.051875118259224084e+00
2.065938047425763813e+00
2.046999969481490211e+00
2.046999969481490211e+00
2.044562395092623941e+00
2.070813196203497242e+00
2.070813196203497242e+00
2.019436628315073090e+00
2.019436628315073090e+00
1.992998321481978863e+00
2.037999694814905283e+00
2.037999694814905283e+00
2.087501205481124167e+00
2.087501205481124167e+00
2.065750541703543330e+00
2.083001068147831703e+00
2.083001068147831703e+00
2.078500930814539238e+00
2.078500930814539238e+00
2.095188940092165719e+00
2.089938779869991325e+00
2.089938779869991325e+00
2.074000793481246330e+00
2.074000793481246330e+00
2.055812738425855546e+00
2.080375988036744506e+00
2.080375988036744506e+00
2.072688253425702509e+00
2.037812189092684800e+00
2.037812189092684800e+00
2.031061983092746104e+00
2.031061983092746104e+00
2.045499923703726353e+00
2.053187658314767905e+00
2.053187658314767905e+00
2.060875392925809457e+00
2.060875392925809457e+00
2.077188390758995418e+00
2.064813013092440475e+00
2.064813013092440475e+00
2.100251594592120075e+00
2.100251594592120075e+00
2.077000885036774935e+00
2.066500564592425260e+00
2.066500564592425260e+00
2.058250312814721816e+00
2.058250312814721816e+00
2.047749992370372585e+00
2.036687154759361462e+00
2.036687154759361462e+00
2.071375713370158689e+00
2.076250862147892562e+00
2.076250862147892562e+00
2.097626514481032878e+00
2.097626514481032878e+00
2.075313333536790150e+00
2.067438093203528116e+00
2.067438093203528116e+00
2.041937314981536300e+00
2.041937314981536300e+00
2.034812097537156195e+00
2.059562852870265637e+00
2.059562852870265637e+00
2.075500839259010633e+00
2.075500839259010633e+00
2.093126377147739969e+00
2.058062807092501334e+00
2.058062807092501334e+00
2.035749626148258606e+00
2.035749626148258606e+00
2.048500015259254514e+00
2.041374797814874853e+00
2.019811639759514499e+00
2.019811639759514499e+00
2.028436902981658463e+00
2.030499465926084213e+00
2.030499465926084213e+00
2.074375804925687294e+00
2.074375804925687294e+00
2.105876766258735877e+00
2.100439100314340557e+00
2.100439100314340557e+00
2.118814661091952267e+00
2.104564226203192501e+00
2.104564226203192501e+00
2.022061708426160731e+00
2.022061708426160731e+00
2.048125003814813549e+00
2.044562395092623941e+00
2.044562395092623941e+00
2.037812189092684800e+00
2.037812189092684800e+00
2.037999694814905283e+00
2.056750267036957958e+00
2.056750267036957958e+00
2.068000610370189563e+00
2.068000610370189563e+00
2.068000610370189563e+00
2.057875301370280852e+00
2.057875301370280852e+00
2.060875392925809457e+00
2.047749992370372585e+00
2.047749992370372585e+00
2.033124546037171854e+00
2.033124546037171854e+00
2.034624591814935712e+00
2.043999877925962494e+00
2.043999877925962494e+00
2.052437635425885976e+00
2.053375164036988387e+00
2.053375164036988387e+00
2.062750450148014725e+00
2.062750450148014725e+00
2.059937864314706601e+00
2.092376354258858040e+00
2.092376354258858040e+00
2.064250495925779028e+00
2.064250495925779028e+00
2.037999694814905283e+00
2.044562395092623941e+00
2.044562395092623941e+00
2.067625598925748598e+00
2.067625598925748598e+00
2.090501297036652772e+00
2.064438001647999510e+00
2.064438001647999510e+00
2.055812738425855546e+00
2.031436994537187068e+00
2.031436994537187068e+00
2.042499832148198191e+00
2.056750267036957958e+00
2.056750267036957958e+00
2.070438184759056277e+00
2.070438184759056277e+00
2.028811914426099428e+00
2.044562395092623941e+00
2.044562395092623941e+00
2.069688161870173904e+00
2.054500198370311725e+00
2.054500198370311725e+00
2.056000244148076028e+00
2.056000244148076028e+00
2.058812829981383707e+00
2.052625141148106458e+00
2.052625141148106458e+00
2.056750267036957958e+00
2.056750267036957958e+00
2.087126194036683202e+00
2.066688070314646186e+00
2.066688070314646186e+00
2.039499740592669585e+00
2.039499740592669585e+00
2.061062898648029940e+00
2.084501113925596005e+00
2.084501113925596005e+00
2.061625415814691387e+00
2.036124637592700015e+00
2.036124637592700015e+00
2.049625049592577852e+00
2.049625049592577852e+00
2.057687795648060813e+00
2.040999786370433888e+00
2.040999786370433888e+00
2.049625049592577852e+00
2.049625049592577852e+00
2.034062074648274265e+00
2.057125278481399366e+00
2.057125278481399366e+00
2.031999511703848516e+00
2.031999511703848516e+00
2.057312784203619849e+00
2.101939146092104860e+00
2.101939146092104860e+00
2.077938413647877791e+00
2.060125370036927084e+00
2.060125370036927084e+00
1.940871730704672338e+00
1.940871730704672338e+00
2.105126743369853504e+00
2.093501388592180934e+00
2.093501388592180934e+00
2.074938322092349186e+00
2.074938322092349186e+00
2.051312601092562637e+00
2.045499923703726353e+00
2.045499923703726353e+00
2.056937772759178884e+00
2.056937772759178884e+00
2.050937589648121673e+00
2.059187841425824672e+00
2.059187841425824672e+00
2.066313058870204777e+00
2.066313058870204777e+00
2.064625507370219992e+00
2.054500198370311725e+00
2.054500198370311725e+00
2.059937864314706601e+00
2.063687978759117581e+00
2.063687978759117581e+00
2.092376354258858040e+00
2.092376354258858040e+00
2.068750633259071936e+00
2.069500656147953865e+00
2.069500656147953865e+00
2.067813104647969080e+00
2.067813104647969080e+00
2.044187383648182976e+00
2.045687429425947279e+00
2.045687429425947279e+00
2.052437635425885976e+00
2.045687429425947279e+00
2.045687429425947279e+00
2.052625141148106458e+00
2.052625141148106458e+00
2.068750633259071936e+00
2.058812829981383707e+00
2.058812829981383707e+00
2.055812738425855546e+00
2.055812738425855546e+00
2.027311868648335125e+00
2.049250038148136888e+00
2.049250038148136888e+00
2.072500747703482027e+00
2.072500747703482027e+00
2.071938230536820580e+00
2.071938230536820580e+00
2.071938230536820580e+00
2.080188482314524023e+00
2.080188482314524023e+00
2.076063356425672080e+00
2.077750907925656865e+00
2.077750907925656865e+00
2.045312417981505870e+00
2.019061616870632125e+00
2.019061616870632125e+00
2.042687337870418673e+00
2.042687337870418673e+00
2.066688070314646186e+00
2.061250404370250422e+00
2.061250404370250422e+00
2.075875850703451597e+00
2.075875850703451597e+00
2.080563493758964988e+00
2.047937498092593067e+00
2.047937498092593067e+00
2.057312784203619849e+00
2.057312784203619849e+00
1.983060518204291078e+00
2.088063722647786058e+00
2.088063722647786058e+00
2.067438093203528116e+00
2.067438093203528116e+00
2.063687978759117581e+00
2.069313150425733383e+00
2.069313150425733383e+00
2.065188024536881883e+00
2.071750724814600098e+00
2.071750724814600098e+00
2.069125644703512901e+00
2.069125644703512901e+00
2.069125644703512901e+00
2.071750724814600098e+00
2.071750724814600098e+00
2.066500564592425260e+00
2.066500564592425260e+00
2.053562669759208870e+00
2.049437543870357370e+00
2.049437543870357370e+00
2.075313333536790150e+00
2.075313333536790150e+00
2.048312509537034032e+00
2.053937681203650278e+00
2.053937681203650278e+00
2.042312326425977265e+00
2.042312326425977265e+00
2.050000061037018817e+00
2.025624317148350340e+00
2.025624317148350340e+00
2.041187292092654371e+00
2.041187292092654371e+00
2.056937772759178884e+00
2.060875392925809457e+00
2.060875392925809457e+00
2.061250404370250422e+00
2.068938138981292418e+00
2.068938138981292418e+00
2.062562944425794242e+00
2.062562944425794242e+00
2.044187383648182976e+00
2.023936765648365554e+00
2.023936765648365554e+00
2.048312509537034032e+00
2.048312509537034032e+00
2.065375530259102366e+00
2.055625232703635064e+00
2.055625232703635064e+00
2.058625324259163225e+00
2.058625324259163225e+00
2.077000885036774935e+00
2.061437910092470904e+00
2.061437910092470904e+00
2.073625782036805365e+00
2.073625782036805365e+00
2.062187932981353278e+00
2.059750358592486119e+00
2.059750358592486119e+00
2.079813470870083059e+00
2.073063264870143918e+00
2.073063264870143918e+00
2.059000335703604190e+00
2.059000335703604190e+00
2.059375347148045154e+00
2.068000610370189563e+00
2.068000610370189563e+00
2.061250404370250422e+00
2.061250404370250422e+00
2.047187475203710694e+00
2.037624683370464318e+00
2.037624683370464318e+00
2.056937772759178884e+00
2.056937772759178884e+00
2.055250221259193655e+00
2.064438001647999510e+00
2.064438001647999510e+00
2.060312875759148010e+00
2.060312875759148010e+00
2.059937864314706601e+00
2.055437726981414581e+00
2.055437726981414581e+00
2.053937681203650278e+00
2.053937681203650278e+00
2.056187749870296511e+00
2.056375255592516993e+00
2.056375255592516993e+00
2.055250221259193655e+00
2.069500656147953865e+00
2.069500656147953865e+00
2.058812829981383707e+00
2.058812829981383707e+00
2.061812921536912313e+00
2.053562669759208870e+00
2.053562669759208870e+00
2.057500289925840331e+00
2.057500289925840331e+00
2.051125095370342155e+00
2.041749809259315818e+00
2.041749809259315818e+00
2.046249946592608282e+00
2.062562944425794242e+00
2.062562944425794242e+00
2.083376079592272667e+00
2.083376079592272667e+00
2.061437910092470904e+00
2.064625507370219992e+00
2.064625507370219992e+00
2.068563127536851454e+00
2.068563127536851454e+00
2.073438276314584883e+00
2.067625598925748598e+00
2.067625598925748598e+00
2.041749809259315818e+00
2.041749809259315818e+00
2.043249855037080120e+00
2.059000335703604190e+00
2.059000335703604190e+00
2.058625324259163225e+00
2.058625324259163225e+00
2.062562944425794242e+00
2.078500930814539238e+00
2.078500930814539238e+00
2.069125644703512901e+00
2.066688070314646186e+00
2.066688070314646186e+00
2.043999877925962494e+00
2.043999877925962494e+00
2.041562303537095335e+00
2.047187475203710694e+00
2.047187475203710694e+00
2.074938322092349186e+00
2.074938322092349186e+00
2.080375988036744506e+00
2.071750724814600098e+00
2.071750724814600098e+00
2.062937955870235207e+00
2.062937955870235207e+00
2.061062898648029940e+00
2.055625232703635064e+00
2.055625232703635064e+00
2.051125095370342155e+00
2.051125095370342155e+00
2.054500198370311725e+00
2.050375072481459782e+00
2.050375072481459782e+00
2.048125003814813549e+00
2.060500381481368493e+00
2.060500381481368493e+00
2.068375621814630971e+00
2.068375621814630971e+00
2.066125553147984295e+00
2.071000701925717724e+00
2.071000701925717724e+00
2.075688344981231115e+00
2.075688344981231115e+00
2.084313608203375079e+00
2.059937864314706601e+00
2.059937864314706601e+00
2.048687520981474997e+00
2.048687520981474997e+00
2.047749992370372585e+00
2.045124912259285388e+00
2.045124912259285388e+00
2.033874568926053783e+00
2.033874568926053783e+00
2.042124820703756782e+00
2.062187932981353278e+00
2.062187932981353278e+00
2.080375988036744506e+00
2.080375988036744506e+00
2.077375896481215900e+00
2.057687795648060813e+00
2.057687795648060813e+00
2.048875026703695923e+00
2.048875026703695923e+00
2.072125736259041062e+00
2.074750816370128703e+00
2.074750816370128703e+00
2.066313058870204777e+00
2.052062623981445011e+00
2.052062623981445011e+00
2.027874385814997016e+00
2.027874385814997016e+00
2.043812372203741567e+00
2.039312234870449103e+00
2.039312234870449103e+00
2.057125278481399366e+00
2.057125278481399366e+00
2.090688802758873255e+00
2.107001800592058771e+00
2.107001800592058771e+00
2.099126560258797181e+00
2.065563035981322848e+00
2.065563035981322848e+00
2.039874752037110550e+00
2.039874752037110550e+00
2.077375896481215900e+00
2.073063264870143918e+00
2.073063264870143918e+00
2.056000244148076028e+00
2.056000244148076028e+00
2.036687154759361462e+00
2.037624683370464318e+00
2.037624683370464318e+00
2.042312326425977265e+00
2.042312326425977265e+00
2.045124912259285388e+00
2.048312509537034032e+00
2.048312509537034032e+00
2.066875576036866669e+00
2.068375621814630971e+00
2.068375621814630971e+00
2.072313241981261545e+00
2.072313241981261545e+00
2.086188665425580790e+00
2.089751274147770843e+00
2.089751274147770843e+00
2.081876033814508364e+00
2.081876033814508364e+00
2.098564043092135289e+00
2.072125736259041062e+00
2.072125736259041062e+00
2.041749809259315818e+00
2.041749809259315818e+00
2.037437177648243392e+00
2.024686788537247928e+00
2.024686788537247928e+00
2.032562028870509963e+00
2.032562028870509963e+00
2.055250221259193655e+00
2.054687704092532208e+00
2.054687704092532208e+00
2.050937589648121673e+00
2.053375164036988387e+00
2.053375164036988387e+00
2.072125736259041062e+00
2.072125736259041062e+00
2.101751640369884377e+00
2.091438825647755628e+00
2.091438825647755628e+00
2.085813653981139382e+00
2.085813653981139382e+00
2.075688344981231115e+00
2.044374889370403459e+00
2.044374889370403459e+00
2.060500381481368493e+00
2.060500381481368493e+00
2.064438001647999510e+00
2.051312601092562637e+00
2.051312601092562637e+00
2.044749900814844423e+00
2.044749900814844423e+00
2.043999877925962494e+00
2.053375164036988387e+00
2.053375164036988387e+00
2.080188482314524023e+00
2.074938322092349186e+00
2.074938322092349186e+00
2.042499832148198191e+00
2.042499832148198191e+00
2.068375621814630971e+00
2.079438459425641650e+00
2.079438459425641650e+00
2.056187749870296511e+00
2.056187749870296511e+00
2.062187932981353278e+00
2.083188573870052185e+00
2.083188573870052185e+00
2.048875026703695923e+00
2.048875026703695923e+00
2.053937681203650278e+00
2.077000885036774935e+00
2.077000885036774935e+00
2.061250404370250422e+00
2.039312234870449103e+00
2.039312234870449103e+00
2.052250129703665493e+00
2.052250129703665493e+00
2.048312509537034032e+00
2.054500198370311725e+00
2.054500198370311725e+00
2.064250495925779028e+00
2.064250495925779028e+00
2.079063447981200685e+00
2.086001159703360308e+00
2.086001159703360308e+00
2.078688436536759720e+00
2.078688436536759720e+00
2.060312875759148010e+00
2.052812646870326940e+00
2.052812646870326940e+00
2.054312692648091243e+00
2.054312692648091243e+00
2.059000335703604190e+00
2.078688436536759720e+00
2.078688436536759720e+00
2.058625324259163225e+00
2.041937314981536300e+00
2.041937314981536300e+00
2.052250129703665493e+00
2.052250129703665493e+00
2.035937131870479533e+00
2.035187108981597159e+00
2.035187108981597159e+00
2.068000610370189563e+00
2.068000610370189563e+00
2.094626422925504272e+00
2.079813470870083059e+00
2.079813470870083059e+00
2.072875759147922992e+00
2.072875759147922992e+00
2.068000610370189563e+00
2.056562761314737475e+00
2.056562761314737475e+00
2.077375896481215900e+00
2.077375896481215900e+00
2.077563402203436382e+00
2.089376262703329878e+00
2.089376262703329878e+00
2.079063447981200685e+00
2.079063447981200685e+00
2.045687429425947279e+00
2.026561845759453195e+00
2.026561845759453195e+00
2.034437086092715230e+00
2.053750175481429796e+00
2.053750175481429796e+00
2.071563219092379615e+00
2.071563219092379615e+00
2.066500564592425260e+00
2.062375438703573760e+00
2.062375438703573760e+00
2.067438093203528116e+00
2.067438093203528116e+00
2.065188024536881883e+00
2.062375438703573760e+00
2.062375438703573760e+00
2.046437452314828764e+00
2.053375164036988387e+00
2.053375164036988387e+00
2.065375530259102366e+00
2.065375530259102366e+00
2.045687429425947279e+00
2.058625324259163225e+00
2.058625324259163225e+00
2.078313425092318756e+00
2.078313425092318756e+00
2.107376812036500180e+00
2.078500930814539238e+00
2.078500930814539238e+00
2.083563585314493150e+00
2.083563585314493150e+00
2.067063081759087151e+00
2.046437452314828764e+00
2.046437452314828764e+00
2.056937772759178884e+00
2.091626331369976111e+00
2.091626331369976111e+00
2.071938230536820580e+00
2.071938230536820580e+00
2.054312692648091243e+00
2.066313058870204777e+00
2.066313058870204777e+00
2.047749992370372585e+00
2.047749992370372585e+00
2.052062623981445011e+00
2.044937406537064906e+00
2.044937406537064906e+00
2.058062807092501334e+00
2.058062807092501334e+00
2.062375438703573760e+00
2.062000427259132795e+00
2.062000427259132795e+00
2.061250404370250422e+00
2.068563127536851454e+00
2.068563127536851454e+00
2.054687704092532208e+00
2.054687704092532208e+00
2.048500015259254514e+00
2.064250495925779028e+00
2.064250495925779028e+00
2.080375988036744506e+00
2.080375988036744506e+00
2.070063173314615312e+00
2.061062898648029940e+00
2.061062898648029940e+00
2.061812921536912313e+00
2.061812921536912313e+00
2.080375988036744506e+00
2.050187566759239299e+00
2.050187566759239299e+00
2.022436719870601696e+00
2.022436719870601696e+00
2.055625232703635064e+00
2.111126926480910715e+00
2.111126926480910715e+00
2.102126651814325342e+00
2.077750907925656865e+00
2.077750907925656865e+00
2.049812555314798335e+00
2.049812555314798335e+00
2.023749259926145072e+00
2.021124179815057875e+00
2.021124179815057875e+00
2.027874385814997016e+00
2.027874385814997016e+00
2.046812463759269729e+00
2.043437360759300603e+00
2.043437360759300603e+00
2.039687246314890068e+00
2.039687246314890068e+00
2.054500198370311725e+00
2.057312784203619849e+00
2.057312784203619849e+00
2.041187292092654371e+00
2.041187292092654371e+00
2.049250038148136888e+00
2.094626422925504272e+00
2.094626422925504272e+00
2.109814386425366894e+00
2.109814386425366894e+00
2.103251686147648680e+00
2.105126743369853504e+00
2.105126743369853504e+00
2.080000976592303541e+00
2.072875759147922992e+00
2.072875759147922992e+00
2.071188207647938206e+00
2.071188207647938206e+00
2.080375988036744506e+00
2.074000793481246330e+00
2.074000793481246330e+00
2.054125186925870761e+00
2.054125186925870761e+00
2.048125003814813549e+00
2.063687978759117581e+00
2.063687978759117581e+00
2.045499923703726353e+00
2.045499923703726353e+00
2.048687520981474997e+00
2.041187292092654371e+00
2.041187292092654371e+00
2.038374706259346247e+00
2.038374706259346247e+00
2.043062349314859638e+00
2.050562578203680708e+00
2.050562578203680708e+00
2.068188116092410045e+00
2.071938230536820580e+00
2.071938230536820580e+00
2.067813104647969080e+00
2.067813104647969080e+00
2.086001159703360308e+00
2.072500747703482027e+00
2.072500747703482027e+00
2.074188299203466812e+00
2.074188299203466812e+00
2.088813745536667987e+00
2.083563585314493150e+00
2.083563585314493150e+00
2.074188299203466812e+00
2.041562303537095335e+00
2.041562303537095335e+00
2.027874385814997016e+00
2.027874385814997016e+00
2.046812463759269729e+00
2.077188390758995418e+00
2.077188390758995418e+00
2.081313516647846917e+00
2.081313516647846917e+00
2.061250404370250422e+00
2.065375530259102366e+00
2.065375530259102366e+00
2.026749351481673678e+00
2.026749351481673678e+00
2.015686513870662555e+00
2.054312692648091243e+00
2.054312692648091243e+00
2.075688344981231115e+00
2.075688344981231115e+00
2.094626422925504272e+00
2.068563127536851454e+00
2.068563127536851454e+00
2.091063814203314664e+00
2.080938505203405953e+00
2.080938505203405953e+00
2.065188024536881883e+00
2.065188024536881883e+00
1.992998321481978863e+00
2.037437177648243392e+00
2.037437177648243392e+00
2.015686513870662555e+00
2.015686513870662555e+00
2.043624866481521085e+00
2.085063631092257452e+00
2.085063631092257452e+00
2.065000518814661401e+00
2.065000518814661401e+00
2.070813196203497242e+00
2.098001525925473842e+00
2.098001525925473842e+00
2.098001525925473842e+00
2.098001525925473842e+00
2.033874568926053783e+00
2.038749717703787212e+00
2.038749717703787212e+00
2.040624774925992480e+00
2.043624866481521085e+00
2.043624866481521085e+00
2.062375438703573760e+00
2.062375438703573760e+00
2.050750083925901190e+00
2.041749809259315818e+00
2.041749809259315818e+00
2.071563219092379615e+00
2.071563219092379615e+00
2.085063631092257452e+00
2.066313058870204777e+00
2.066313058870204777e+00
2.032562028870509963e+00
2.032562028870509963e+00
2.049250038148136888e+00
2.086001159703360308e+00
2.086001159703360308e+00
2.113752006591998356e+00
2.113752006591998356e+00
2.129689992980742907e+00
2.090126285592211808e+00
2.090126285592211808e+00
2.083001068147831703e+00
2.064438001647999510e+00
2.064438001647999510e+00
2.086563676870021755e+00
2.086563676870021755e+00
2.076813379314554453e+00
2.038374706259346247e+00
2.038374706259346247e+00
2.034437086092715230e+00
2.034437086092715230e+00
2.004061159092989985e+00
1.994123355815301979e+00
1.994123355815301979e+00
2.025249305703909375e+00
2.025249305703909375e+00
2.053000152592547423e+00
2.034062074648274265e+00
2.034062074648274265e+00
2.026936857203894160e+00
2.026936857203894160e+00
2.080938505203405953e+00
2.092188848536637558e+00
2.092188848536637558e+00
2.085813653981139382e+00
2.071750724814600098e+00
2.071750724814600098e+00
2.077750907925656865e+00
2.077750907925656865e+00
2.111314432203131197e+00
2.124064821314127105e+00
2.124064821314127105e+00
2.111314432203131197e+00
2.111314432203131197e+00
2.080188482314524023e+00
2.073813287759025847e+00
2.073813287759025847e+00
2.012498916592913467e+00
2.012498916592913467e+00
2.061625415814691387e+00
2.087126194036683202e+00
2.087126194036683202e+00
2.043624866481521085e+00
2.043624866481521085e+00
1.971997680593279956e+00
2.007811273537400520e+00
2.007811273537400520e+00
2.043249855037080120e+00
2.042312326425977265e+00
2.042312326425977265e+00
2.063125461592455689e+00
2.063125461592455689e+00
2.073813287759025847e+00
2.050375072481459782e+00
2.050375072481459782e+00
1.998248481704153479e+00
1.998248481704153479e+00
2.047562486648152102e+00
2.075313333536790150e+00
2.075313333536790150e+00
2.096126468703268575e+00
2.096126468703268575e+00
2.066875576036866669e+00
2.075875850703451597e+00
2.075875850703451597e+00
2.076438367870113488e+00
2.076438367870113488e+00
2.070438184759056277e+00
2.116377086703085553e+00
2.116377086703085553e+00
2.126314889980773337e+00
2.107376812036500180e+00
2.107376812036500180e+00
2.079813470870083059e+00
2.079813470870083059e+00
2.081501022370067400e+00
2.127064912869655711e+00
2.127064912869655711e+00
2.131940061647389140e+00
2.131940061647389140e+00
2.095001434369945237e+00
2.056562761314737475e+00
2.056562761314737475e+00
1.994685872981963648e+00
1.994685872981963648e+00
1.930371410260322884e+00
1.975935300759910973e+00
1.975935300759910973e+00
1.953434614093447763e+00
1.953434614093447763e+00
1.969372600482192537e+00
2.041187292092654371e+00
2.041187292092654371e+00
2.046249946592608282e+00
2.046249946592608282e+00
2.040437269203771997e+00
2.077188390758995418e+00
2.077188390758995418e+00
2.111501937925351680e+00
2.112439466536454535e+00
2.112439466536454535e+00
2.122377269814142320e+00
2.122377269814142320e+00
2.099689077425458628e+00
2.068375621814630971e+00
2.068375621814630971e+00
2.070063173314615312e+00
2.085063631092257452e+00
2.085063631092257452e+00
2.103814203314310571e+00
2.009686330759605788e+00
2.009686330759605788e+00
1.964872463148899850e+00
1.964872463148899850e+00
1.982685506759849892e+00
2.023749259926145072e+00
2.023749259926145072e+00
2.071938230536820580e+00
2.087688711203345093e+00
2.087688711203345093e+00
2.090313791314432290e+00
2.090313791314432290e+00
2.058812829981383707e+00
2.080750999481185470e+00
2.080750999481185470e+00
2.121627246925260390e+00
2.121627246925260390e+00
2.109439374980925930e+00
2.069688161870173904e+00
2.069688161870173904e+00
2.094438917203283790e+00
2.094438917203283790e+00
2.099876583147679110e+00
2.083188573870052185e+00
2.083188573870052185e+00
2.087313699758903685e+00
2.084126102481154597e+00
2.084126102481154597e+00
2.075500839259010633e+00
2.075500839259010633e+00
2.079438459425641650e+00
2.093501388592180934e+00
2.093501388592180934e+00
2.041937314981536300e+00
2.041937314981536300e+00
2.034999603259376677e+00
2.134940153202917745e+00
2.134940153202917745e+00
2.087313699758903685e+00
2.087313699758903685e+00
2.016436536759544484e+00
2.062187932981353278e+00
2.062187932981353278e+00
2.061812921536912313e+00
2.061812921536912313e+00
2.094438917203283790e+00
2.063125461592455689e+00
2.063125461592455689e+00
2.031249488814966586e+00
2.082626056703390294e+00
2.082626056703390294e+00
2.078688436536759720e+00
2.116377086703085553e+00
2.116377086703085553e+00
2.081688528092287882e+00
2.050562578203680708e+00
2.050562578203680708e+00
2.030874477370525177e+00
2.030874477370525177e+00
2.071188207647938206e+00
2.065750541703543330e+00
2.065750541703543330e+00
2.106439283425397324e+00
2.106439283425397324e+00
2.107751823480941145e+00
2.051500106814783120e+00
2.051500106814783120e+00
1.999748527481917781e+00
1.999748527481917781e+00
2.059375347148045154e+00
2.089563768425550361e+00
2.089563768425550361e+00
2.045499923703726353e+00
2.045499923703726353e+00
2.041749809259315818e+00
2.031249488814966586e+00
2.031249488814966586e+00
2.096688985869930022e+00
2.105126743369853504e+00
2.105126743369853504e+00
2.051500106814783120e+00
2.051500106814783120e+00
2.041187292092654371e+00
2.012873928037354432e+00
2.012873928037354432e+00
1.987748161259804025e+00
1.987748161259804025e+00
2.068188116092410045e+00
2.065750541703543330e+00
2.065750541703543330e+00
2.115627063814203623e+00
2.115627063814203623e+00
2.152940702536088047e+00
2.076625873592333971e+00
2.076625873592333971e+00
2.018874111148411643e+00
2.089376262703329878e+00
2.089376262703329878e+00
2.168878688924833043e+00
2.168878688924833043e+00
2.112064455092013571e+00
2.144127933591723156e+00
2.144127933591723156e+00
2.066313058870204777e+00
2.066313058870204777e+00
2.031249488814966586e+00
2.038374706259346247e+00
2.038374706259346247e+00
2.053937681203650278e+00
2.053937681203650278e+00
2.018311593981750196e+00
2.004998687704092397e+00
2.004998687704092397e+00
2.026749351481673678e+00
1.994310861537522683e+00
1.994310861537522683e+00
2.099876583147679110e+00
2.099876583147679110e+00
2.040812280648213406e+00
2.090126285592211808e+00
2.090126285592211808e+00
2.094251411481063307e+00
2.094251411481063307e+00
2.038749717703787212e+00
2.059937864314706601e+00
2.059937864314706601e+00
2.025436811426129857e+00
2.025436811426129857e+00
1.978372875148777910e+00
1.998623493148594665e+00
1.998623493148594665e+00
2.127064912869655711e+00
2.127064912869655711e+00
2.141690359202856442e+00
2.080563493758964988e+00
2.080563493758964988e+00
2.096313974425489057e+00
2.108501846369823074e+00
2.108501846369823074e+00
2.089188756981108952e+00
2.089188756981108952e+00
2.079813470870083059e+00
2.053187658314767905e+00
2.053187658314767905e+00
2.042687337870418673e+00
2.042687337870418673e+00
2.056750267036957958e+00
2.019624134037293572e+00
2.019624134037293572e+00
2.043062349314859638e+00
2.043062349314859638e+00
2.063125461592455689e+00
2.075500839259010633e+00
2.075500839259010633e+00
2.029936948759422766e+00
2.026561845759453195e+00
2.026561845759453195e+00
2.135690176091799675e+00
2.135690176091799675e+00
2.111314432203131197e+00
2.032562028870509963e+00
2.032562028870509963e+00
2.019249122592852608e+00
2.019249122592852608e+00
1.906370677816095593e+00
2.075688344981231115e+00
2.075688344981231115e+00
2.147503036591693171e+00
2.147503036591693171e+00
2.135502670369579192e+00
2.046249946592608282e+00
2.046249946592608282e+00
2.026936857203894160e+00
2.026936857203894160e+00
2.038374706259346247e+00
2.057312784203619849e+00
2.057312784203619849e+00
2.089938779869991325e+00
2.089938779869991325e+00
2.088438734092227023e+00
2.074563310647907777e+00
2.074563310647907777e+00
2.063875484481338063e+00
2.035374614703817642e+00
2.035374614703817642e+00
2.092563859981078966e+00
2.092563859981078966e+00
2.049250038148136888e+00
1.945371868037965024e+00
1.945371868037965024e+00
1.980435438093203437e+00
1.980435438093203437e+00
2.120314706869716570e+00
2.176003906369212704e+00
2.176003906369212704e+00
2.138690267647328280e+00
2.138690267647328280e+00
2.055250221259193655e+00
2.041374797814874853e+00
2.041374797814874853e+00
2.046062440870388244e+00
2.046062440870388244e+00
2.058437818536942299e+00
2.129689992980742907e+00
2.129689992980742907e+00
2.166628620258186366e+00
2.131002533036286284e+00
2.131002533036286284e+00
2.075875850703451597e+00
2.075875850703451597e+00
1.962247383037812432e+00
1.983435529648732043e+00
1.983435529648732043e+00
1.981935483870967740e+00
1.981935483870967740e+00
2.010998870815149164e+00
2.082063539536728847e+00
2.082063539536728847e+00
2.139815301980651618e+00
2.139815301980651618e+00
2.082251045258949329e+00
2.052625141148106458e+00
2.052625141148106458e+00
2.006123722037415735e+00
1.983623035370952525e+00
1.983623035370952525e+00
2.011936399426252020e+00
2.011936399426252020e+00
2.085626148258918899e+00
2.135315164647358710e+00
2.135315164647358710e+00
2.091063814203314664e+00
2.091063814203314664e+00
1.986810632648701391e+00
2.116939603869747000e+00
2.116939603869747000e+00
2.186316721091342341e+00
2.186316721091342341e+00
2.034437086092715230e+00
1.993373332926419828e+00
1.993373332926419828e+00
2.053375164036988387e+00
1.974622760704367153e+00
1.974622760704367153e+00
1.849743949705496382e+00
1.849743949705496382e+00
1.938809167760246588e+00
2.059750358592486119e+00
2.059750358592486119e+00
2.169066194647053525e+00
2.169066194647053525e+00
2.087126194036683202e+00
2.054312692648091243e+00
2.054312692648091243e+00
2.052250129703665493e+00
2.052250129703665493e+00
2.095938962981048093e+00
2.110939420758690233e+00
2.110939420758690233e+00
2.226067934202093479e+00
2.226067934202093479e+00
2.186691732535783306e+00
2.134002624591814889e+00
2.134002624591814889e+00
2.111126926480910715e+00
2.111126926480910715e+00
2.017186559648426858e+00
1.941621753593554489e+00
1.941621753593554489e+00
1.977622852259895758e+00
2.075688344981231115e+00
2.075688344981231115e+00
2.059562852870265637e+00
2.059562852870265637e+00
1.930183904538102402e+00
1.919496078371532466e+00
1.919496078371532466e+00
2.051500106814783120e+00
2.051500106814783120e+00
2.070625690481276759e+00
2.004623676259651432e+00
2.004623676259651432e+00
2.038187200537125765e+00
2.038187200537125765e+00
2.103626697592089645e+00
2.235255714590899334e+00
2.235255714590899334e+00
2.250818689535202921e+00
2.136252693258461566e+00
2.136252693258461566e+00
2.009498825037385306e+00
2.009498825037385306e+00
2.037249671926022909e+00
2.145627979369487459e+00
2.145627979369487459e+00
2.122564775536362802e+00
2.122564775536362802e+00
2.100064088869899592e+00
2.158190862758262885e+00
2.158190862758262885e+00
2.053000152592547423e+00
2.053000152592547423e+00
1.929433881649220250e+00
1.896807885982848552e+00
1.896807885982848552e+00
1.939559190649128739e+00
2.005373699148533806e+00
2.005373699148533806e+00
2.113189489425336465e+00
2.113189489425336465e+00
1.992248298593096711e+00
2.079625965147862576e+00
2.079625965147862576e+00
2.173378826258125951e+00
2.173378826258125951e+00
2.164191045869319652e+00
1.961309854426709798e+00
1.961309854426709798e+00
1.889870174260689151e+00
1.889870174260689151e+00
1.989248207037568328e+00
1.994873378704184130e+00
1.994873378704184130e+00
1.977997863704336723e+00
2.077750907925656865e+00
2.077750907925656865e+00
2.288132328257088233e+00
2.288132328257088233e+00
2.307257911923581428e+00
2.104564226203192501e+00
2.104564226203192501e+00
2.211254982146671821e+00
2.211254982146671821e+00
2.120877224036378017e+00
1.995435895870845799e+00
1.995435895870845799e+00
1.936371593371379873e+00
1.936371593371379873e+00
2.002561113315225683e+00
2.079250953703421168e+00
2.079250953703421168e+00
2.011373882259590129e+00
2.011373882259590129e+00
1.828555803094576770e+00
1.918371044038209350e+00
1.918371044038209350e+00
2.235255714590899334e+00
2.235255714590899334e+00
2.182941618091372327e+00
1.952497085482345129e+00
1.952497085482345129e+00
1.846931363872188481e+00
2.077750907925656865e+00
2.077750907925656865e+00
2.140565324869533104e+00
2.140565324869533104e+00
2.166441114535965884e+00
1.968435071871089903e+00
1.968435071871089903e+00
1.941059236426893042e+00
1.941059236426893042e+00
2.062562944425794242e+00
2.128752464369640052e+00
2.128752464369640052e+00
2.164753563035981099e+00
2.164753563035981099e+00
2.153503219702749494e+00
2.240505874813074172e+00
2.240505874813074172e+00
2.080938505203405953e+00
2.080938505203405953e+00
1.939371684926908257e+00
1.932996490371410303e+00
1.932996490371410303e+00
1.909745780816064942e+00
1.863994384594256370e+00
1.863994384594256370e+00
2.068563127536851454e+00
2.068563127536851454e+00
2.235443220313119816e+00
2.265819147312845505e+00
2.265819147312845505e+00
2.206942350535599839e+00
2.206942350535599839e+00
2.157065828424939546e+00
2.000873561815240897e+00
2.000873561815240897e+00
1.989810724204229997e+00
1.989810724204229997e+00
2.016624042481765411e+00
1.919121066927091501e+00
1.919121066927091501e+00
2.089001251258888470e+00
2.089001251258888470e+00
2.148440565202795582e+00
2.152190679647205673e+00
2.152190679647205673e+00
2.058625324259163225e+00
1.910495803704947093e+00
1.910495803704947093e+00
2.048312509537034032e+00
2.103814203314310571e+00
2.103814203314310571e+00
2.197379558702353020e+00
2.158190862758262885e+00
2.158190862758262885e+00
1.988685689870906881e+00
1.988685689870906881e+00
2.008186284981841485e+00
2.171878780480361648e+00
2.171878780480361648e+00
2.263756584368419311e+00
2.263756584368419311e+00
1.930746421704764071e+00
1.881994933927427116e+00
1.881994933927427116e+00
1.848993926816614453e+00
2.013061433759574914e+00
2.013061433759574914e+00
2.131377544480727693e+00
2.131377544480727693e+00
2.157440839869380955e+00
2.119939695425275605e+00
2.119939695425275605e+00
2.134565141758476781e+00
2.134565141758476781e+00
2.120314706869716570e+00
1.969747611926633502e+00
1.969747611926633502e+00
2.180316537980285130e+00
2.180316537980285130e+00
2.174316354869228363e+00
2.097814020203253360e+00
2.097814020203253360e+00
2.084876125370036970e+00
1.993373332926419828e+00
1.993373332926419828e+00
1.898307931760612854e+00
1.898307931760612854e+00
1.862306833094271585e+00
1.925871272927030420e+00
1.925871272927030420e+00
2.082063539536728847e+00
2.082063539536728847e+00
2.174128849147007880e+00
2.332196172978911797e+00
2.332196172978911797e+00
2.157253334147160473e+00
2.157253334147160473e+00
2.054875209814752690e+00
1.937684133426923250e+00
1.937684133426923250e+00
2.051500106814783120e+00
2.107376812036500180e+00
2.107376812036500180e+00
1.932808984649189599e+00
1.948559465315714112e+00
1.948559465315714112e+00
2.075688344981231115e+00
2.081126010925626435e+00
2.081126010925626435e+00
1.997310953093050845e+00
1.997310953093050845e+00
2.033687063203833301e+00
2.167003631702627775e+00
2.167003631702627775e+00
2.000311044648579006e+00
2.000311044648579006e+00
2.079438459425641650e+00
2.143565416425061709e+00
2.143565416425061709e+00
2.227005462813196335e+00
2.227005462813196335e+00
2.267506698812830290e+00
2.238443311868648422e+00
2.238443311868648422e+00
1.969185094759971832e+00
1.852181524094363319e+00
1.852181524094363319e+00
2.006873744926298109e+00
2.006873744926298109e+00
2.061437910092470904e+00
2.200192144535660699e+00
2.200192144535660699e+00
2.072313241981261545e+00
2.072313241981261545e+00
2.009498825037385306e+00
2.103814203314310571e+00
2.103814203314310571e+00
2.107564317758720662e+00
2.107564317758720662e+00
1.965247474593341037e+00
2.007998779259621003e+00
2.007998779259621003e+00
2.053187658314767905e+00
2.053187658314767905e+00
1.994873378704184130e+00
2.044937406537064906e+00
2.044937406537064906e+00
2.181441572313608468e+00
2.177878963591417971e+00
2.177878963591417971e+00
1.957747245704519745e+00
1.957747245704519745e+00
2.180316537980285130e+00
2.343071504867702437e+00
2.343071504867702437e+00
2.101939146092104860e+00
2.101939146092104860e+00
1.959997314371166199e+00
2.165316080202642990e+00
2.165316080202642990e+00
1.936371593371379873e+00
1.936371593371379873e+00
1.927558824427014983e+00
2.050375072481459782e+00
2.050375072481459782e+00
2.116189580980865070e+00
2.116189580980865070e+00
2.176378917813653668e+00
2.148815576647236547e+00
2.148815576647236547e+00
2.212380016479995160e+00
2.099501571703238145e+00
2.099501571703238145e+00
1.865119418927579709e+00
1.865119418927579709e+00
1.941621753593554489e+00
2.099501571703238145e+00
2.099501571703238145e+00
2.056187749870296511e+00
2.056187749870296511e+00
2.023186742759483625e+00
2.079438459425641650e+00
2.079438459425641650e+00
2.097251503036591469e+00
2.097251503036591469e+00
2.090876308481094181e+00
2.078875942258980203e+00
2.078875942258980203e+00
2.067813104647969080e+00
2.067813104647969080e+00
2.102314157536546269e+00
2.073250770592364400e+00
2.073250770592364400e+00
2.036687154759361462e+00
1.836056031983398062e+00
1.836056031983398062e+00
1.968060060426648716e+00
1.968060060426648716e+00
2.150315622425000850e+00
2.097251503036591469e+00
2.097251503036591469e+00
2.001811090426343309e+00
2.001811090426343309e+00
2.050375072481459782e+00
2.225130405590991067e+00
2.225130405590991067e+00
2.260381481368449741e+00
2.260381481368449741e+00
2.073813287759025847e+00
2.000123538926358524e+00
2.000123538926358524e+00
2.074188299203466812e+00
2.172441297647023095e+00
2.172441297647023095e+00
2.016999053926206376e+00
2.016999053926206376e+00
2.101751640369884377e+00
2.096688985869930022e+00
2.096688985869930022e+00
2.054687704092532208e+00
2.054687704092532208e+00
2.073625782036805365e+00
2.110376903592028786e+00
2.110376903592028786e+00
2.016811548203985893e+00
2.016811548203985893e+00
2.000311044648579006e+00
2.004436170537430950e+00
2.004436170537430950e+00
1.972935209204382367e+00
2.006311227759636218e+00
2.006311227759636218e+00
2.119752189703054679e+00
2.119752189703054679e+00
2.135127658925138228e+00
2.190254341257972914e+00
2.190254341257972914e+00
2.192691915646840073e+00
2.192691915646840073e+00
2.150128116702780368e+00
2.084501113925596005e+00
2.084501113925596005e+00
2.146565507980590315e+00
2.146565507980590315e+00
1.985873104037598758e+00
2.040624774925992480e+00
2.040624774925992480e+00
2.067063081759087151e+00
2.067063081759087151e+00
1.945746879482405989e+00
2.009123813592944341e+00
2.009123813592944341e+00
2.016624042481765411e+00
2.016624042481765411e+00
1.998998504593035630e+00
2.009498825037385306e+00
2.009498825037385306e+00
2.062187932981353278e+00
2.077000885036774935e+00
2.077000885036774935e+00
2.108501846369823074e+00
2.108501846369823074e+00
2.111689443647572162e+00
2.130627521591845319e+00
2.130627521591845319e+00
2.086188665425580790e+00
2.086188665425580790e+00
2.111126926480910715e+00
2.148440565202795582e+00
2.148440565202795582e+00
2.058437818536942299e+00
2.058437818536942299e+00
1.966747520371105118e+00
1.927371318704794501e+00
1.927371318704794501e+00
2.013248939481795396e+00
2.013248939481795396e+00
2.035749626148258606e+00
2.126877407147435228e+00
2.126877407147435228e+00
2.122189764091921838e+00
2.122189764091921838e+00
2.096876491592150504e+00
2.122377269814142320e+00
2.122377269814142320e+00
2.139252784813989727e+00
2.093126377147739969e+00
2.093126377147739969e+00
2.119752189703054679e+00
2.119752189703054679e+00
2.038937223426007694e+00
2.059937864314706601e+00
2.059937864314706601e+00
2.078688436536759720e+00
2.078688436536759720e+00
2.052437635425885976e+00
2.029749443037202283e+00
2.029749443037202283e+00
2.041374797814874853e+00
2.041374797814874853e+00
2.071000701925717724e+00
2.064813013092440475e+00
2.064813013092440475e+00
2.040062257759331033e+00
2.040062257759331033e+00
2.097063997314370987e+00
2.113752006591998356e+00
2.113752006591998356e+00
2.018686605426191161e+00
2.034249580370494748e+00
2.034249580370494748e+00
2.058062807092501334e+00
2.058062807092501334e+00
2.034062074648274265e+00
1.981560472426526776e+00
1.981560472426526776e+00
2.026749351481673678e+00
2.026749351481673678e+00
2.293382488479262626e+00
2.222880336924344391e+00
2.222880336924344391e+00
2.139252784813989727e+00
2.139252784813989727e+00
2.030311960203863730e+00
2.020749168370616911e+00
2.020749168370616911e+00
2.066313058870204777e+00
2.117314615314187964e+00
2.117314615314187964e+00
2.113189489425336465e+00
2.113189489425336465e+00
2.094813928647724754e+00
2.043249855037080120e+00
2.043249855037080120e+00
2.038374706259346247e+00
2.038374706259346247e+00
1.992060792870876229e+00
1.989060701315347846e+00
1.989060701315347846e+00
2.037812189092684800e+00
2.037812189092684800e+00
2.075313333536790150e+00
2.116752098147526517e+00
2.116752098147526517e+00
2.081688528092287882e+00
2.066688070314646186e+00
2.066688070314646186e+00
2.043812372203741567e+00
2.043812372203741567e+00
2.045124912259285388e+00
2.010998870815149164e+00
2.010998870815149164e+00
2.062750450148014725e+00
2.062750450148014725e+00
2.136065187536240639e+00
2.107939329203161627e+00
2.107939329203161627e+00
2.059562852870265637e+00
2.059562852870265637e+00
2.069313150425733383e+00
2.156690816980498582e+00
2.156690816980498582e+00
2.109064363536484965e+00
2.109064363536484965e+00
2.138315256202887316e+00
2.160628437147130043e+00
2.160628437147130043e+00
2.059562852870265637e+00
2.059562852870265637e+00
2.027311868648335125e+00
1.980060426648762473e+00
1.980060426648762473e+00
1.960747337260048351e+00
2.020749168370616911e+00
2.020749168370616911e+00
2.051312601092562637e+00
2.051312601092562637e+00
2.071750724814600098e+00
2.104376720480972018e+00
2.104376720480972018e+00
2.059937864314706601e+00
2.059937864314706601e+00
2.075500839259010633e+00
2.090313791314432290e+00
2.090313791314432290e+00
2.051500106814783120e+00
2.051500106814783120e+00
2.094063905758842381e+00
2.070625690481276759e+00
2.070625690481276759e+00
2.050000061037018817e+00
2.050000061037018817e+00
2.063125461592455689e+00
2.054687704092532208e+00
2.054687704092532208e+00
2.105314249092073986e+00
2.070438184759056277e+00
2.070438184759056277e+00
2.064062990203558545e+00
2.064062990203558545e+00
2.093876400036621899e+00
2.070625690481276759e+00
2.070625690481276759e+00
2.099876583147679110e+00
2.099876583147679110e+00
2.116752098147526517e+00
2.091813837092196593e+00
2.091813837092196593e+00
2.029749443037202283e+00
2.029749443037202283e+00
2.044749900814844423e+00
2.094626422925504272e+00
2.094626422925504272e+00
2.081126010925626435e+00
2.081126010925626435e+00
2.011373882259590129e+00
2.085813653981139382e+00
2.085813653981139382e+00
2.096688985869930022e+00
2.092001342814417075e+00
2.092001342814417075e+00
2.094438917203283790e+00
2.094438917203283790e+00
2.075313333536790150e+00
2.028249397259437981e+00
2.028249397259437981e+00
2.039687246314890068e+00
2.039687246314890068e+00
2.063125461592455689e+00
2.081876033814508364e+00
2.081876033814508364e+00
2.109251869258705447e+00
2.109251869258705447e+00
2.070250679036835795e+00
2.067250587481307633e+00
2.067250587481307633e+00
2.091251319925535146e+00
2.061062898648029940e+00
2.061062898648029940e+00
2.054875209814752690e+00
2.054875209814752690e+00
2.014748985259559699e+00
2.064062990203558545e+00
2.064062990203558545e+00
2.071938230536820580e+00
2.071938230536820580e+00
1.999748527481917781e+00
2.050562578203680708e+00
2.050562578203680708e+00
2.110376903592028786e+00
2.110376903592028786e+00
2.081126010925626435e+00
2.044374889370403459e+00
2.044374889370403459e+00
2.034437086092715230e+00
2.034437086092715230e+00
2.067625598925748598e+00
2.168128666035950669e+00
2.168128666035950669e+00
2.137752739036225869e+00
2.137752739036225869e+00
2.050937589648121673e+00
2.075875850703451597e+00
2.075875850703451597e+00
2.140565324869533104e+00
2.097814020203253360e+00
2.097814020203253360e+00
2.021124179815057875e+00
2.021124179815057875e+00
2.068750633259071936e+00
2.083188573870052185e+00
2.083188573870052185e+00
2.054312692648091243e+00
2.054312692648091243e+00
2.018311593981750196e+00
2.054687704092532208e+00
2.054687704092532208e+00
2.095751457258827610e+00
2.095751457258827610e+00
2.037624683370464318e+00
2.054125186925870761e+00
2.054125186925870761e+00
2.050937589648121673e+00
2.050937589648121673e+00
2.107751823480941145e+00
2.045874935148167761e+00
2.045874935148167761e+00
2.031999511703848516e+00
2.059187841425824672e+00
2.059187841425824672e+00
2.100064088869899592e+00
2.100064088869899592e+00
2.123689809869686140e+00
2.096688985869930022e+00
2.096688985869930022e+00
2.107564317758720662e+00
2.107564317758720662e+00
2.026561845759453195e+00
2.008561296426282894e+00
2.008561296426282894e+00
2.059562852870265637e+00
2.059562852870265637e+00
2.076625873592333971e+00
2.051312601092562637e+00
2.051312601092562637e+00
2.074375804925687294e+00
2.074375804925687294e+00
2.081126010925626435e+00
2.059375347148045154e+00
2.059375347148045154e+00
2.052250129703665493e+00
2.052250129703665493e+00
2.099689077425458628e+00
2.104751731925412539e+00
2.104751731925412539e+00
2.102689168980987233e+00
2.066125553147984295e+00
2.066125553147984295e+00
2.053562669759208870e+00
2.053562669759208870e+00
2.051500106814783120e+00
2.033874568926053783e+00
2.033874568926053783e+00
2.040812280648213406e+00
2.040812280648213406e+00
2.063875484481338063e+00
2.067813104647969080e+00
2.067813104647969080e+00
2.082813562425611220e+00
2.082813562425611220e+00
2.088813745536667987e+00
2.098189031647694325e+00
2.098189031647694325e+00
2.083563585314493150e+00
2.083563585314493150e+00
2.078688436536759720e+00
2.059562852870265637e+00
2.059562852870265637e+00
2.104376720480972018e+00
2.104376720480972018e+00
2.098939054536576698e+00
2.090313791314432290e+00
2.090313791314432290e+00
2.112251960814234053e+00
2.084688619647816488e+00
2.084688619647816488e+00
2.035562120426038124e+00
2.035562120426038124e+00
2.063312967314676172e+00
2.095751457258827610e+00
2.095751457258827610e+00
2.110189397869807859e+00
2.110189397869807859e+00
2.066313058870204777e+00
2.042874843592639156e+00
2.042874843592639156e+00
2.053187658314767905e+00
2.053187658314767905e+00
2.043812372203741567e+00
2.025436811426129857e+00
2.025436811426129857e+00
2.039312234870449103e+00
2.039312234870449103e+00
2.035562120426038124e+00
2.056000244148076028e+00
2.056000244148076028e+00
2.045687429425947279e+00
2.048500015259254514e+00
2.048500015259254514e+00
2.047562486648152102e+00
2.047562486648152102e+00
2.075500839259010633e+00
2.093688894314401416e+00
2.093688894314401416e+00
2.062375438703573760e+00
2.062375438703573760e+00
2.101189123203222930e+00
2.093126377147739969e+00
2.093126377147739969e+00
2.099501571703238145e+00
2.099501571703238145e+00
2.097063997314370987e+00
2.049812555314798335e+00
2.049812555314798335e+00
2.078125919370098273e+00
2.078125919370098273e+00
2.116377086703085553e+00
2.109626880703146412e+00
2.109626880703146412e+00
2.065563035981322848e+00
2.065563035981322848e+00
2.033687063203833301e+00
2.043249855037080120e+00
2.043249855037080120e+00
2.083563585314493150e+00
2.074938322092349186e+00
2.074938322092349186e+00
2.053187658314767905e+00
2.053187658314767905e+00
2.059750358592486119e+00
2.062750450148014725e+00
2.062750450148014725e+00
2.077938413647877791e+00
2.077938413647877791e+00
2.083938596758934114e+00
2.066125553147984295e+00
2.066125553147984295e+00
2.064813013092440475e+00
2.072125736259041062e+00
2.072125736259041062e+00
2.061625415814691387e+00
2.061625415814691387e+00
2.072688253425702509e+00
2.079063447981200685e+00
2.079063447981200685e+00
2.072875759147922992e+00
2.072875759147922992e+00
2.074563310647907777e+00
2.072125736259041062e+00
2.072125736259041062e+00
2.085251136814477935e+00
2.085251136814477935e+00
2.068563127536851454e+00
2.085251136814477935e+00
2.085251136814477935e+00
2.070250679036835795e+00
2.050375072481459782e+00
2.050375072481459782e+00
2.083001068147831703e+00
2.083001068147831703e+00
2.035562120426038124e+00
2.053562669759208870e+00
2.053562669759208870e+00
2.097626514481032878e+00
2.097626514481032878e+00
2.084501113925596005e+00
2.056750267036957958e+00
2.056750267036957958e+00
2.064625507370219992e+00
2.064625507370219992e+00
2.073250770592364400e+00
2.068938138981292418e+00
2.068938138981292418e+00
2.059375347148045154e+00
2.059375347148045154e+00
2.047187475203710694e+00
2.056000244148076028e+00
2.056000244148076028e+00
2.053375164036988387e+00
2.053375164036988387e+00
2.030499465926084213e+00
2.044937406537064906e+00
2.044937406537064906e+00
2.094813928647724754e+00
2.123502304147465658e+00
2.123502304147465658e+00
2.074750816370128703e+00
2.074750816370128703e+00
2.078875942258980203e+00
2.069313150425733383e+00
2.069313150425733383e+00
2.052250129703665493e+00
2.052250129703665493e+00
2.076063356425672080e+00
2.081501022370067400e+00
2.081501022370067400e+00
2.080938505203405953e+00
2.080938505203405953e+00
2.089376262703329878e+00
2.081501022370067400e+00
2.081501022370067400e+00
2.093501388592180934e+00
2.070063173314615312e+00
2.070063173314615312e+00
2.062187932981353278e+00
2.062187932981353278e+00
2.074000793481246330e+00
2.072875759147922992e+00
2.072875759147922992e+00
2.081876033814508364e+00
2.081876033814508364e+00
2.032562028870509963e+00
2.020561662648396428e+00
2.020561662648396428e+00
2.017186559648426858e+00
2.017186559648426858e+00
2.037249671926022909e+00
2.083751091036713632e+00
2.083751091036713632e+00
2.071563219092379615e+00
2.083376079592272667e+00
2.083376079592272667e+00
2.113001983703115982e+00
2.113001983703115982e+00
2.119939695425275605e+00
2.080188482314524023e+00
2.080188482314524023e+00
2.059187841425824672e+00
2.059187841425824672e+00
2.036687154759361462e+00
1.993748344370861014e+00
1.993748344370861014e+00
2.019999145481734981e+00
2.019999145481734981e+00
2.047937498092593067e+00
2.079063447981200685e+00
2.079063447981200685e+00
2.064438001647999510e+00
2.064438001647999510e+00
2.106439283425397324e+00
2.084501113925596005e+00
2.084501113925596005e+00
2.072500747703482027e+00
2.052437635425885976e+00
2.052437635425885976e+00
2.040437269203771997e+00
2.040437269203771997e+00
2.058062807092501334e+00
2.059937864314706601e+00
2.059937864314706601e+00
2.043812372203741567e+00
2.043812372203741567e+00
2.072500747703482027e+00
2.085251136814477935e+00
2.085251136814477935e+00
2.050562578203680708e+00
2.050562578203680708e+00
2.061250404370250422e+00
2.067438093203528116e+00
2.067438093203528116e+00
2.058437818536942299e+00
2.058437818536942299e+00
2.050000061037018817e+00
2.075688344981231115e+00
2.075688344981231115e+00
2.065563035981322848e+00
2.047562486648152102e+00
2.047562486648152102e+00
2.061250404370250422e+00
2.061250404370250422e+00
2.079813470870083059e+00
2.066688070314646186e+00
2.066688070314646186e+00
2.055062715536973172e+00
2.055062715536973172e+00
2.068938138981292418e+00
2.084688619647816488e+00
2.084688619647816488e+00
2.063312967314676172e+00
2.063312967314676172e+00
2.060687887203588975e+00
2.042312326425977265e+00
2.042312326425977265e+00
2.050937589648121673e+00
2.050937589648121673e+00
2.058250312814721816e+00
2.064438001647999510e+00
2.064438001647999510e+00
2.058812829981383707e+00
2.071563219092379615e+00
2.071563219092379615e+00
2.068375621814630971e+00
2.068375621814630971e+00
2.087501205481124167e+00
2.077375896481215900e+00
2.077375896481215900e+00
2.040812280648213406e+00
2.040812280648213406e+00
2.041374797814874853e+00
2.054312692648091243e+00
2.054312692648091243e+00
2.075313333536790150e+00
2.075313333536790150e+00
2.061250404370250422e+00
2.075313333536790150e+00
2.075313333536790150e+00
2.087126194036683202e+00
2.087126194036683202e+00
2.034249580370494748e+00
2.037999694814905283e+00
2.037999694814905283e+00
2.045499923703726353e+00
2.057687795648060813e+00
2.057687795648060813e+00
2.056000244148076028e+00
2.056000244148076028e+00
2.051125095370342155e+00
2.067813104647969080e+00
2.067813104647969080e+00
2.056375255592516993e+00
2.056375255592516993e+00
2.073438276314584883e+00
2.062375438703573760e+00
2.062375438703573760e+00
2.081313516647846917e+00
2.081313516647846917e+00
2.103251686147648680e+00
2.105501754814294912e+00
2.105501754814294912e+00
2.089563768425550361e+00
2.089563768425550361e+00
2.081126010925626435e+00
2.102314157536546269e+00
2.102314157536546269e+00
2.081313516647846917e+00
2.060312875759148010e+00
2.060312875759148010e+00
2.004623676259651432e+00
2.004623676259651432e+00
2.009311319315164823e+00
2.028624408703878945e+00
2.028624408703878945e+00
2.074938322092349186e+00
2.074938322092349186e+00
2.085063631092257452e+00
2.065563035981322848e+00
2.065563035981322848e+00
2.052625141148106458e+00
2.052625141148106458e+00
2.027311868648335125e+00
2.036874660481581945e+00
2.036874660481581945e+00
2.021311685537278358e+00
2.037812189092684800e+00
2.037812189092684800e+00
2.038187200537125765e+00
2.038187200537125765e+00
2.049437543870357370e+00
2.069125644703512901e+00
2.069125644703512901e+00
2.083563585314493150e+00
2.083563585314493150e+00
2.057125278481399366e+00
2.078125919370098273e+00
2.078125919370098273e+00
2.081501022370067400e+00
2.081501022370067400e+00
2.084126102481154597e+00
2.110001892147587377e+00
2.110001892147587377e+00
2.098751548814355772e+00
2.098751548814355772e+00
2.042687337870418673e+00
2.025061799981688893e+00
2.025061799981688893e+00
2.029561937314981801e+00
2.001248573259681862e+00
2.001248573259681862e+00
2.014373973815118735e+00
2.014373973815118735e+00
2.050000061037018817e+00
2.076250862147892562e+00
2.076250862147892562e+00
2.074563310647907777e+00
2.074563310647907777e+00
2.084126102481154597e+00
2.073250770592364400e+00
2.053000152592547423e+00
2.053000152592547423e+00
2.054125186925870761e+00
2.066500564592425260e+00
2.066500564592425260e+00
2.067625598925748598e+00
2.067625598925748598e+00
2.085063631092257452e+00
2.079063447981200685e+00
2.079063447981200685e+00
2.077563402203436382e+00
2.077563402203436382e+00
2.065375530259102366e+00
2.061062898648029940e+00
2.061062898648029940e+00
2.068000610370189563e+00
2.060875392925809457e+00
2.060875392925809457e+00
2.046999969481490211e+00
2.046999969481490211e+00
2.048312509537034032e+00
2.074938322092349186e+00
2.074938322092349186e+00
2.105314249092073986e+00
2.105314249092073986e+00
2.047562486648152102e+00
2.013248939481795396e+00
2.013248939481795396e+00
2.037249671926022909e+00
2.063687978759117581e+00
2.063687978759117581e+00
2.067813104647969080e+00
2.067813104647969080e+00
2.066500564592425260e+00
2.066313058870204777e+00
2.066313058870204777e+00
2.065375530259102366e+00
2.065375530259102366e+00
2.068375621814630971e+00
2.071188207647938206e+00
2.071188207647938206e+00
2.060125370036927084e+00
2.060125370036927084e+00
2.057500289925840331e+00
2.066313058870204777e+00
2.066313058870204777e+00
2.075500839259010633e+00
2.072688253425702509e+00
2.072688253425702509e+00
2.056187749870296511e+00
2.056187749870296511e+00
2.050187566759239299e+00
2.062000427259132795e+00
2.062000427259132795e+00
2.037999694814905283e+00
2.060312875759148010e+00
2.060312875759148010e+00
2.054500198370311725e+00
2.040999786370433888e+00
2.040999786370433888e+00
2.062000427259132795e+00
2.062000427259132795e+00
2.065563035981322848e+00
2.081688528092287882e+00
2.081688528092287882e+00
2.076438367870113488e+00
2.076438367870113488e+00
2.065938047425763813e+00
2.048687520981474997e+00
2.048687520981474997e+00
2.037249671926022909e+00
2.047374980925931620e+00
2.047374980925931620e+00
2.061812921536912313e+00
2.061812921536912313e+00
2.075875850703451597e+00
2.069875667592394830e+00
2.069875667592394830e+00
2.051500106814783120e+00
2.051500106814783120e+00
2.054687704092532208e+00
2.059000335703604190e+00
2.059000335703604190e+00
2.055062715536973172e+00
2.055062715536973172e+00
2.061437910092470904e+00
2.065000518814661401e+00
2.065000518814661401e+00
2.063687978759117581e+00
2.063687978759117581e+00
2.066688070314646186e+00
2.067250587481307633e+00
2.067250587481307633e+00
2.061250404370250422e+00
2.058625324259163225e+00
2.058625324259163225e+00
2.061250404370250422e+00
2.061250404370250422e+00
2.065563035981322848e+00
2.064438001647999510e+00
2.064438001647999510e+00
2.064062990203558545e+00
2.064062990203558545e+00
2.058625324259163225e+00
1.973310220648823554e+00
1.973310220648823554e+00
2.087126194036683202e+00
2.079813470870083059e+00
2.079813470870083059e+00
2.060125370036927084e+00
2.060125370036927084e+00
2.063500473036897098e+00
2.065750541703543330e+00
2.065750541703543330e+00
2.056750267036957958e+00
2.056750267036957958e+00
2.060312875759148010e+00
2.062750450148014725e+00
2.062750450148014725e+00
2.055062715536973172e+00
2.055062715536973172e+00
2.055437726981414581e+00
2.074750816370128703e+00
2.074750816370128703e+00
2.077375896481215900e+00
2.077375896481215900e+00
2.057312784203619849e+00
2.062375438703573760e+00
2.062375438703573760e+00
2.064250495925779028e+00
2.064250495925779028e+00
2.059187841425824672e+00
2.045687429425947279e+00
2.045687429425947279e+00
2.042124820703756782e+00
2.041562303537095335e+00
2.041562303537095335e+00
2.058437818536942299e+00
2.058437818536942299e+00
2.066313058870204777e+00
2.059375347148045154e+00
2.059375347148045154e+00
2.060500381481368493e+00
2.060500381481368493e+00
2.076063356425672080e+00
2.082251045258949329e+00
2.082251045258949329e+00
2.076625873592333971e+00
2.076625873592333971e+00
2.067813104647969080e+00
2.064250495925779028e+00
2.064250495925779028e+00
2.064438001647999510e+00
2.065375530259102366e+00
2.065375530259102366e+00
2.057500289925840331e+00
2.057500289925840331e+00
2.051312601092562637e+00
2.065938047425763813e+00
2.065938047425763813e+00
2.066688070314646186e+00
2.066688070314646186e+00
2.065563035981322848e+00
2.065000518814661401e+00
2.065000518814661401e+00
2.040624774925992480e+00
2.027499374370555607e+00
2.027499374370555607e+00
2.008186284981841485e+00
2.008186284981841485e+00
2.099314065981017663e+00
2.081126010925626435e+00
2.081126010925626435e+00
2.050562578203680708e+00
2.050562578203680708e+00
2.054312692648091243e+00
2.072125736259041062e+00
2.072125736259041062e+00
2.071000701925717724e+00
2.071000701925717724e+00
2.060312875759148010e+00
2.054500198370311725e+00
2.054500198370311725e+00
2.046999969481490211e+00
2.046999969481490211e+00
2.070063173314615312e+00
2.064438001647999510e+00
2.064438001647999510e+00
2.059000335703604190e+00
2.045687429425947279e+00
2.045687429425947279e+00
2.062187932981353278e+00
2.062187932981353278e+00
2.066313058870204777e+00
2.057875301370280852e+00
2.057875301370280852e+00
2.064813013092440475e+00
2.064813013092440475e+00
2.072500747703482027e+00
2.072875759147922992e+00
2.072875759147922992e+00
2.047374980925931620e+00
2.047374980925931620e+00
2.037999694814905283e+00
2.050562578203680708e+00
2.050562578203680708e+00
2.069313150425733383e+00
2.069313150425733383e+00
2.074938322092349186e+00
2.072688253425702509e+00
2.072688253425702509e+00
2.069688161870173904e+00
2.069688161870173904e+00
2.081501022370067400e+00
2.077000885036774935e+00
2.077000885036774935e+00
2.051687612537003602e+00
2.057875301370280852e+00
2.057875301370280852e+00
2.056000244148076028e+00
2.056000244148076028e+00
2.055625232703635064e+00
2.061625415814691387e+00
2.061625415814691387e+00
2.067625598925748598e+00
2.067625598925748598e+00
2.074188299203466812e+00
2.071750724814600098e+00
2.071750724814600098e+00
2.062937955870235207e+00
2.062937955870235207e+00
2.061625415814691387e+00
2.046999969481490211e+00
2.046999969481490211e+00
2.028999420148319910e+00
2.028999420148319910e+00
2.062750450148014725e+00
2.070250679036835795e+00
2.070250679036835795e+00
2.058062807092501334e+00
2.057312784203619849e+00
2.057312784203619849e+00
2.062000427259132795e+00
2.062000427259132795e+00
2.081688528092287882e+00
2.069313150425733383e+00
2.069313150425733383e+00
2.063312967314676172e+00
2.063312967314676172e+00
2.065750541703543330e+00
2.053187658314767905e+00
2.053187658314767905e+00
2.079625965147862576e+00
2.079625965147862576e+00
2.058437818536942299e+00
2.059562852870265637e+00
2.059562852870265637e+00
2.056187749870296511e+00
2.056187749870296511e+00
2.064625507370219992e+00
2.068563127536851454e+00
2.068563127536851454e+00
2.063687978759117581e+00
2.034999603259376677e+00
2.034999603259376677e+00
2.047562486648152102e+00
2.047562486648152102e+00
2.053937681203650278e+00
2.081501022370067400e+00
2.081501022370067400e+00
2.089938779869991325e+00
2.089938779869991325e+00
2.069688161870173904e+00
2.069500656147953865e+00
2.069500656147953865e+00
2.054500198370311725e+00
2.054500198370311725e+00
2.067063081759087151e+00
2.065375530259102366e+00
2.065375530259102366e+00
2.054312692648091243e+00
2.042124820703756782e+00
2.042124820703756782e+00
2.036312143314920498e+00
2.036312143314920498e+00
2.035562120426038124e+00
2.051500106814783120e+00
2.051500106814783120e+00
2.064438001647999510e+00
2.064438001647999510e+00
2.072500747703482027e+00
2.077563402203436382e+00
2.077563402203436382e+00
2.074563310647907777e+00
2.074563310647907777e+00
2.059000335703604190e+00
2.065000518814661401e+00
2.065000518814661401e+00
2.051125095370342155e+00
2.051125095370342155e+00
2.052250129703665493e+00
2.051125095370342155e+00
2.051125095370342155e+00
2.055437726981414581e+00
2.071375713370158689e+00
2.071375713370158689e+00
2.073813287759025847e+00
2.073813287759025847e+00
2.050937589648121673e+00
2.079250953703421168e+00
2.079250953703421168e+00
2.089376262703329878e+00
2.089376262703329878e+00
2.094438917203283790e+00
2.065938047425763813e+00
2.065938047425763813e+00
2.064438001647999510e+00
2.064438001647999510e+00
2.069125644703512901e+00
2.071750724814600098e+00
2.071750724814600098e+00
2.069875667592394830e+00
2.069875667592394830e+00
2.050000061037018817e+00
2.046624958037049247e+00
2.046624958037049247e+00
2.055625232703635064e+00
2.081126010925626435e+00
2.081126010925626435e+00
2.052812646870326940e+00
2.052812646870326940e+00
2.060312875759148010e+00
2.063125461592455689e+00
2.063125461592455689e+00
2.055437726981414581e+00
2.055437726981414581e+00
2.048875026703695923e+00
2.055812738425855546e+00
2.055812738425855546e+00
2.043624866481521085e+00
2.043624866481521085e+00
2.055812738425855546e+00
2.066688070314646186e+00
2.066688070314646186e+00
2.063875484481338063e+00
2.063875484481338063e+00
2.048875026703695923e+00
2.065000518814661401e+00
2.065000518814661401e+00
2.090876308481094181e+00
2.086938688314462720e+00
2.086938688314462720e+00
2.080375988036744506e+00
2.080375988036744506e+00
2.073625782036805365e+00
2.062375438703573760e+00
2.062375438703573760e+00
2.048875026703695923e+00
2.048875026703695923e+00
2.092938871425519931e+00
2.070250679036835795e+00
2.070250679036835795e+00
2.058437818536942299e+00
2.058437818536942299e+00
2.086001159703360308e+00
2.061812921536912313e+00
2.061812921536912313e+00
2.043812372203741567e+00
2.043812372203741567e+00
2.039499740592669585e+00
2.044562395092623941e+00
2.044562395092623941e+00
2.050937589648121673e+00
2.065188024536881883e+00
2.065188024536881883e+00
2.053937681203650278e+00
2.053937681203650278e+00
2.050750083925901190e+00
2.065750541703543330e+00
2.065750541703543330e+00
2.060875392925809457e+00
2.060875392925809457e+00
2.071375713370158689e+00
2.076438367870113488e+00
2.076438367870113488e+00
2.074750816370128703e+00
2.074750816370128703e+00
2.070250679036835795e+00
2.070063173314615312e+00
2.070063173314615312e+00
2.077188390758995418e+00
2.066313058870204777e+00
2.066313058870204777e+00
2.054312692648091243e+00
2.054312692648091243e+00
2.049625049592577852e+00
2.055062715536973172e+00
2.055062715536973172e+00
2.067438093203528116e+00
2.067438093203528116e+00
2.075688344981231115e+00
2.070063173314615312e+00
2.070063173314615312e+00
2.046812463759269729e+00
2.057125278481399366e+00
2.057125278481399366e+00
2.047937498092593067e+00
2.044562395092623941e+00
2.044562395092623941e+00
2.060500381481368493e+00
2.060500381481368493e+00
2.054500198370311725e+00
2.072313241981261545e+00
2.072313241981261545e+00
2.073625782036805365e+00
2.077563402203436382e+00
2.077563402203436382e+00
2.083563585314493150e+00
2.083563585314493150e+00
2.068563127536851454e+00
2.061250404370250422e+00
2.061250404370250422e+00
2.076813379314554453e+00
2.076813379314554453e+00
2.080000976592303541e+00
2.061062898648029940e+00
2.061062898648029940e+00
2.067063081759087151e+00
2.081313516647846917e+00
2.081313516647846917e+00
2.077750907925656865e+00
2.077750907925656865e+00
2.060125370036927084e+00
2.052625141148106458e+00
2.052625141148106458e+00
2.041562303537095335e+00
2.041562303537095335e+00
2.057125278481399366e+00
2.066875576036866669e+00
2.066875576036866669e+00
2.075313333536790150e+00
2.075313333536790150e+00
2.082438550981169811e+00
2.043812372203741567e+00
2.043812372203741567e+00
2.033312051759392336e+00
2.033312051759392336e+00
2.037624683370464318e+00
2.047749992370372585e+00
2.047749992370372585e+00
2.044937406537064906e+00
2.044937406537064906e+00
2.079438459425641650e+00
2.106064271980956359e+00
2.106064271980956359e+00
2.086751182592242237e+00
2.078125919370098273e+00
2.078125919370098273e+00
2.044749900814844423e+00
2.030124454481643248e+00
2.030124454481643248e+00
2.056937772759178884e+00
2.087501205481124167e+00
2.087501205481124167e+00
2.058250312814721816e+00
2.058250312814721816e+00
2.070438184759056277e+00
2.096688985869930022e+00
2.096688985869930022e+00
2.105126743369853504e+00
2.105126743369853504e+00
2.066125553147984295e+00
2.050750083925901190e+00
2.050750083925901190e+00
2.062750450148014725e+00
2.062750450148014725e+00
2.046437452314828764e+00
2.048500015259254514e+00
2.048500015259254514e+00
2.058250312814721816e+00
2.058250312814721816e+00
2.057500289925840331e+00
2.061250404370250422e+00
2.061250404370250422e+00
2.058812829981383707e+00
2.062187932981353278e+00
2.062187932981353278e+00
2.077750907925656865e+00
2.077750907925656865e+00
2.088438734092227023e+00
2.087313699758903685e+00
2.087313699758903685e+00
2.099126560258797181e+00
2.099126560258797181e+00
2.112064455092013571e+00
2.059562852870265637e+00
2.059562852870265637e+00
2.039499740592669585e+00
2.039499740592669585e+00
1.974810266426587635e+00
1.996935941648609880e+00
1.996935941648609880e+00
2.062562944425794242e+00
2.062562944425794242e+00
2.107564317758720662e+00
2.104001709036531054e+00
2.104001709036531054e+00
2.072125736259041062e+00
1.951372051149021791e+00
1.951372051149021791e+00
2.081876033814508364e+00
2.081876033814508364e+00
2.055812738425855546e+00
2.046062440870388244e+00
2.046062440870388244e+00
2.056000244148076028e+00
2.056000244148076028e+00
2.078688436536759720e+00
2.075688344981231115e+00
2.075688344981231115e+00
2.057875301370280852e+00
2.057875301370280852e+00
2.059187841425824672e+00
2.056187749870296511e+00
2.056187749870296511e+00
2.056562761314737475e+00
2.065938047425763813e+00
2.065938047425763813e+00
2.068750633259071936e+00
2.068750633259071936e+00
2.049437543870357370e+00
2.050937589648121673e+00
2.050937589648121673e+00
2.062000427259132795e+00
2.062000427259132795e+00
2.081501022370067400e+00
2.080750999481185470e+00
2.080750999481185470e+00
2.084876125370036970e+00
2.084876125370036970e+00
2.043437360759300603e+00
2.059562852870265637e+00
2.059562852870265637e+00
2.069875667592394830e+00
2.069875667592394830e+00
2.093313882869960452e+00
2.089001251258888470e+00
2.089001251258888470e+00
2.064438001647999510e+00
2.064438001647999510e+00
2.057312784203619849e+00
2.067813104647969080e+00
2.067813104647969080e+00
2.062187932981353278e+00
2.047374980925931620e+00
2.047374980925931620e+00
2.040249763481551515e+00
2.040249763481551515e+00
2.037624683370464318e+00
2.050187566759239299e+00
2.050187566759239299e+00
2.068375621814630971e+00
2.068375621814630971e+00
2.114689535203100768e+00
2.092001342814417075e+00
2.092001342814417075e+00
2.068938138981292418e+00
2.037062166203802427e+00
2.037062166203802427e+00
1.993185827204199345e+00
1.993185827204199345e+00
2.027124362926114642e+00
2.080563493758964988e+00
2.080563493758964988e+00
2.097251503036591469e+00
2.097251503036591469e+00
2.084313608203375079e+00
2.080375988036744506e+00
2.080375988036744506e+00
1.988685689870906881e+00
1.988685689870906881e+00
2.092376354258858040e+00
2.062750450148014725e+00
2.062750450148014725e+00
2.044374889370403459e+00
2.059187841425824672e+00
2.059187841425824672e+00
2.071188207647938206e+00
2.071188207647938206e+00
2.054875209814752690e+00
2.048687520981474997e+00
2.048687520981474997e+00
2.055625232703635064e+00
2.055625232703635064e+00
2.067063081759087151e+00
2.079813470870083059e+00
2.079813470870083059e+00
2.083938596758934114e+00
2.083938596758934114e+00
2.060312875759148010e+00
2.090126285592211808e+00
2.090126285592211808e+00
2.099314065981017663e+00
2.099314065981017663e+00
2.080563493758964988e+00
2.044749900814844423e+00
2.044749900814844423e+00
2.021874202703940249e+00
2.029561937314981801e+00
2.029561937314981801e+00
2.067063081759087151e+00
2.067063081759087151e+00
2.065563035981322848e+00
2.081126010925626435e+00
2.081126010925626435e+00
2.083188573870052185e+00
2.083188573870052185e+00
2.077563402203436382e+00
2.065563035981322848e+00
2.065563035981322848e+00
2.044937406537064906e+00
2.044937406537064906e+00
2.045124912259285388e+00
2.043437360759300603e+00
2.043437360759300603e+00
2.026186834315011787e+00
2.026186834315011787e+00
2.044374889370403459e+00
2.082626056703390294e+00
2.082626056703390294e+00
2.096313974425489057e+00
2.096313974425489057e+00
2.079813470870083059e+00
2.035749626148258606e+00
2.035749626148258606e+00
2.046249946592608282e+00
2.065188024536881883e+00
2.065188024536881883e+00
2.056750267036957958e+00
2.056750267036957958e+00
2.029936948759422766e+00
2.044749900814844423e+00
2.044749900814844423e+00
2.078500930814539238e+00
2.078500930814539238e+00
2.069313150425733383e+00
2.062187932981353278e+00
2.062187932981353278e+00
2.062750450148014725e+00
2.062750450148014725e+00
2.083563585314493150e+00
2.060312875759148010e+00
2.060312875759148010e+00
2.055812738425855546e+00
2.046437452314828764e+00
2.046437452314828764e+00
2.052625141148106458e+00
2.052625141148106458e+00
2.071938230536820580e+00
2.049625049592577852e+00
2.049625049592577852e+00
2.058625324259163225e+00
2.058625324259163225e+00
2.084313608203375079e+00
2.070250679036835795e+00
2.070250679036835795e+00
2.067438093203528116e+00
2.067438093203528116e+00
2.080375988036744506e+00
2.090313791314432290e+00
2.090313791314432290e+00
2.052062623981445011e+00
2.052062623981445011e+00
2.037437177648243392e+00
2.060125370036927084e+00
2.060125370036927084e+00
2.074000793481246330e+00
2.074000793481246330e+00
2.078125919370098273e+00
2.068375621814630971e+00
2.068375621814630971e+00
2.067063081759087151e+00
2.031812005981628033e+00
2.031812005981628033e+00
2.018499099703970678e+00
2.018499099703970678e+00
2.047562486648152102e+00
2.054875209814752690e+00
2.054875209814752690e+00
2.054687704092532208e+00
2.054687704092532208e+00
2.039874752037110550e+00
2.032937040314951371e+00
2.032937040314951371e+00
2.052062623981445011e+00
2.052062623981445011e+00
2.069500656147953865e+00
2.063312967314676172e+00
2.063312967314676172e+00
2.059937864314706601e+00
2.088251228370006540e+00
2.088251228370006540e+00
2.038749717703787212e+00
2.038749717703787212e+00
2.050187566759239299e+00
2.079063447981200685e+00
2.079063447981200685e+00
2.064250495925779028e+00
2.064250495925779028e+00
2.098564043092135289e+00
2.138502761925107798e+00
2.138502761925107798e+00
2.076438367870113488e+00
2.076438367870113488e+00
2.028999420148319910e+00
2.029186925870540392e+00
2.029186925870540392e+00
2.007811273537400520e+00
2.041187292092654371e+00
2.041187292092654371e+00
2.055625232703635064e+00
2.055625232703635064e+00
2.081876033814508364e+00
2.110564409314249268e+00
2.110564409314249268e+00
2.105314249092073986e+00
2.105314249092073986e+00
2.070250679036835795e+00
2.049062532425916405e+00
2.049062532425916405e+00
2.054312692648091243e+00
2.054312692648091243e+00
2.064625507370219992e+00
2.053000152592547423e+00
2.053000152592547423e+00
2.046437452314828764e+00
2.046437452314828764e+00
2.052625141148106458e+00
2.043249855037080120e+00
2.043249855037080120e+00
2.058625324259163225e+00
2.052812646870326940e+00
2.052812646870326940e+00
2.070813196203497242e+00
2.070813196203497242e+00
2.011186376537369647e+00
2.051687612537003602e+00
2.051687612537003602e+00
2.105126743369853504e+00
2.105126743369853504e+00
2.098939054536576698e+00
2.094063905758842381e+00
2.094063905758842381e+00
2.093688894314401416e+00
2.093688894314401416e+00
2.032562028870509963e+00
2.017374065370647340e+00
2.017374065370647340e+00
2.007436262092959556e+00
2.007436262092959556e+00
2.041187292092654371e+00
2.089188756981108952e+00
2.089188756981108952e+00
2.109251869258705447e+00
2.109251869258705447e+00
2.077938413647877791e+00
2.070250679036835795e+00
2.070250679036835795e+00
2.095376445814386202e+00
2.064625507370219992e+00
2.064625507370219992e+00
2.028249397259437981e+00
2.028249397259437981e+00
2.045124912259285388e+00
2.050562578203680708e+00
2.050562578203680708e+00
2.071750724814600098e+00
2.071750724814600098e+00
2.053375164036988387e+00
2.072125736259041062e+00
2.072125736259041062e+00
2.118627155369731785e+00
2.078875942258980203e+00
2.078875942258980203e+00
2.039687246314890068e+00
2.039687246314890068e+00
2.060500381481368493e+00
2.064625507370219992e+00
2.064625507370219992e+00
2.033312051759392336e+00
2.033312051759392336e+00
2.033124546037171854e+00
2.057687795648060813e+00
2.057687795648060813e+00
2.074000793481246330e+00
2.074000793481246330e+00
2.078688436536759720e+00
2.052812646870326940e+00
2.052812646870326940e+00
2.073625782036805365e+00
2.073625782036805365e+00
2.090126285592211808e+00
2.081313516647846917e+00
2.081313516647846917e+00
2.114314523758659803e+00
2.065563035981322848e+00
2.065563035981322848e+00
2.028061891537217498e+00
2.028061891537217498e+00
2.045124912259285388e+00
2.072875759147922992e+00
2.072875759147922992e+00
2.079063447981200685e+00
2.079063447981200685e+00
2.060687887203588975e+00
1.999748527481917781e+00
1.999748527481917781e+00
2.032187017426068998e+00
2.032187017426068998e+00
2.084126102481154597e+00
2.096688985869930022e+00
2.096688985869930022e+00
2.090876308481094181e+00
2.090876308481094181e+00
2.126314889980773337e+00
2.089938779869991325e+00
2.089938779869991325e+00
2.072688253425702509e+00
2.100064088869899592e+00
2.100064088869899592e+00
2.090126285592211808e+00
2.090126285592211808e+00
2.119564683980834197e+00
2.093313882869960452e+00
2.093313882869960452e+00
1.991310769981994078e+00
1.991310769981994078e+00
1.960184820093386682e+00
1.992435804315317194e+00
1.992435804315317194e+00
2.003311136204107612e+00
2.003311136204107612e+00
2.071563219092379615e+00
2.127814935758537640e+00
2.127814935758537640e+00
2.113001983703115982e+00
2.113001983703115982e+00
2.116189580980865070e+00
2.053187658314767905e+00
2.053187658314767905e+00
2.014936490981780626e+00
2.051687612537003602e+00
2.051687612537003602e+00
2.061812921536912313e+00
2.061812921536912313e+00
2.079438459425641650e+00
2.065375530259102366e+00
2.065375530259102366e+00
2.050937589648121673e+00
2.050937589648121673e+00
2.067813104647969080e+00
2.066313058870204777e+00
2.066313058870204777e+00
2.098939054536576698e+00
2.098939054536576698e+00
2.065000518814661401e+00
2.028624408703878945e+00
2.028624408703878945e+00
2.053375164036988387e+00
2.055062715536973172e+00
2.055062715536973172e+00
2.036312143314920498e+00
2.036312143314920498e+00
2.026186834315011787e+00
2.095376445814386202e+00
2.095376445814386202e+00
2.085626148258918899e+00
2.085626148258918899e+00
2.094251411481063307e+00
2.096688985869930022e+00
2.096688985869930022e+00
2.098376537369914807e+00
2.098376537369914807e+00
2.068563127536851454e+00
2.067250587481307633e+00
2.067250587481307633e+00
2.068750633259071936e+00
2.068750633259071936e+00
2.038187200537125765e+00
2.020561662648396428e+00
2.020561662648396428e+00
2.056187749870296511e+00
2.075688344981231115e+00
2.075688344981231115e+00
2.072313241981261545e+00
2.072313241981261545e+00
2.094438917203283790e+00
2.114127018036439321e+00
2.114127018036439321e+00
2.132690084536271069e+00
2.132690084536271069e+00
2.071188207647938206e+00
1.993185827204199345e+00
1.993185827204199345e+00
1.969372600482192537e+00
1.969372600482192537e+00
2.038187200537125765e+00
2.017561571092867823e+00
2.017561571092867823e+00
2.033687063203833301e+00
2.033687063203833301e+00
2.119377178258613714e+00
2.104189214758751536e+00
2.104189214758751536e+00
2.135877681814020157e+00
2.135877681814020157e+00
2.131565050202948175e+00
2.119189672536393232e+00
2.119189672536393232e+00
2.119377178258613714e+00
2.056750267036957958e+00
2.056750267036957958e+00
2.017561571092867823e+00
2.017561571092867823e+00
2.012311410870692985e+00
2.056937772759178884e+00
2.056937772759178884e+00
2.124439832758568070e+00
2.124439832758568070e+00
2.118064638203069894e+00
2.061062898648029940e+00
2.061062898648029940e+00
2.021311685537278358e+00
2.021311685537278358e+00
2.025999328592791304e+00
1.992060792870876229e+00
1.992060792870876229e+00
2.006498733481856700e+00
2.006498733481856700e+00
2.074563310647907777e+00
2.045499923703726353e+00
2.045499923703726353e+00
2.059937864314706601e+00
2.032187017426068998e+00
2.032187017426068998e+00
1.996185918759727951e+00
1.996185918759727951e+00
2.032749534592730889e+00
2.202254707480086449e+00
2.202254707480086449e+00
2.220817773979919085e+00
2.220817773979919085e+00
2.151628162480544670e+00
2.077000885036774935e+00
2.077000885036774935e+00
2.076438367870113488e+00
2.076438367870113488e+00
2.033312051759392336e+00
2.043249855037080120e+00
2.043249855037080120e+00
2.051687612537003602e+00
2.014748985259559699e+00
2.014748985259559699e+00
2.022811731315042216e+00
2.022811731315042216e+00
2.045874935148167761e+00
2.064438001647999510e+00
2.064438001647999510e+00
2.049625049592577852e+00
2.049625049592577852e+00
2.069313150425733383e+00
2.047562486648152102e+00
2.047562486648152102e+00
2.029749443037202283e+00
2.029749443037202283e+00
2.056375255592516993e+00
2.102314157536546269e+00
2.102314157536546269e+00
2.123877315591906623e+00
2.122377269814142320e+00
2.122377269814142320e+00
2.099501571703238145e+00
2.099501571703238145e+00
2.061812921536912313e+00
2.051312601092562637e+00
2.051312601092562637e+00
2.047374980925931620e+00
2.047374980925931620e+00
2.037812189092684800e+00
2.032937040314951371e+00
2.032937040314951371e+00
2.010248847926267679e+00
2.010248847926267679e+00
2.123314798425245176e+00
2.181066560869167059e+00
2.181066560869167059e+00
2.125564867091891408e+00
2.125564867091891408e+00
2.063875484481338063e+00
2.050937589648121673e+00
2.050937589648121673e+00
2.029186925870540392e+00
2.019436628315073090e+00
2.019436628315073090e+00
2.013811456648457288e+00
2.013811456648457288e+00
2.022436719870601696e+00
2.017936582537308787e+00
2.017936582537308787e+00
1.997685964537492032e+00
1.997685964537492032e+00
2.048687520981474997e+00
2.112439466536454535e+00
2.112439466536454535e+00
2.116939603869747000e+00
2.116939603869747000e+00
2.043062349314859638e+00
2.026936857203894160e+00
2.026936857203894160e+00
2.083001068147831703e+00
2.059937864314706601e+00
2.059937864314706601e+00
2.060312875759148010e+00
2.060312875759148010e+00
2.141502853480635959e+00
2.103814203314310571e+00
2.103814203314310571e+00
2.043437360759300603e+00
2.043437360759300603e+00
2.022249214148381213e+00
2.074375804925687294e+00
2.074375804925687294e+00
2.059937864314706601e+00
2.059937864314706601e+00
2.164566057313760616e+00
2.113564500869777874e+00
2.113564500869777874e+00
2.073438276314584883e+00
1.925683767204809937e+00
1.925683767204809937e+00
1.979872920926541990e+00
1.979872920926541990e+00
2.094251411481063307e+00
2.087876216925565576e+00
2.087876216925565576e+00
2.043249855037080120e+00
2.043249855037080120e+00
2.018124088259529714e+00
2.010998870815149164e+00
2.010998870815149164e+00
2.045687429425947279e+00
2.045687429425947279e+00
2.140190313425092139e+00
2.134565141758476781e+00
2.134565141758476781e+00
2.041937314981536300e+00
2.067063081759087151e+00
2.067063081759087151e+00
2.095188940092165719e+00
2.095188940092165719e+00
1.983998046815393712e+00
2.087313699758903685e+00
2.087313699758903685e+00
2.092938871425519931e+00
2.092938871425519931e+00
2.100439100314340557e+00
2.174878872035889810e+00
2.174878872035889810e+00
2.153690725424969976e+00
2.153690725424969976e+00
2.127814935758537640e+00
2.111876949369793088e+00
2.111876949369793088e+00
2.019061616870632125e+00
2.019061616870632125e+00
1.972747703482162107e+00
1.999186010315256334e+00
1.999186010315256334e+00
1.937309121982482507e+00
2.019061616870632125e+00
2.019061616870632125e+00
1.971622669148838769e+00
1.971622669148838769e+00
1.983998046815393712e+00
2.015499008148442073e+00
2.015499008148442073e+00
2.107189306314279698e+00
2.107189306314279698e+00
2.101376628925443413e+00
2.043437360759300603e+00
2.043437360759300603e+00
1.962247383037812432e+00
1.962247383037812432e+00
2.006686239204077182e+00
2.160440931424909561e+00
2.160440931424909561e+00
2.146753013702810797e+00
2.117877132480849411e+00
2.117877132480849411e+00
2.098189031647694325e+00
2.098189031647694325e+00
2.125752372814111890e+00
2.149378093813898438e+00
2.149378093813898438e+00
2.095001434369945237e+00
2.095001434369945237e+00
2.034062074648274265e+00
2.028061891537217498e+00
2.028061891537217498e+00
2.035562120426038124e+00
2.035562120426038124e+00
1.989060701315347846e+00
2.004811181981871915e+00
2.004811181981871915e+00
2.045312417981505870e+00
2.045312417981505870e+00
2.136065187536240639e+00
2.151065645313883223e+00
2.151065645313883223e+00
2.151253151036103706e+00
2.031624500259407551e+00
2.031624500259407551e+00
1.969185094759971832e+00
1.969185094759971832e+00
1.947434430982390996e+00
2.037437177648243392e+00
2.037437177648243392e+00
2.060875392925809457e+00
2.060875392925809457e+00
2.157253334147160473e+00
2.199629627368999252e+00
2.199629627368999252e+00
2.128189947202978605e+00
2.128189947202978605e+00
2.165878597369304437e+00
2.099501571703238145e+00
2.099501571703238145e+00
2.080938505203405953e+00
2.054125186925870761e+00
2.054125186925870761e+00
1.983060518204291078e+00
1.983060518204291078e+00
1.865869441816461860e+00
1.894182805871761355e+00
1.894182805871761355e+00
2.000123538926358524e+00
2.000123538926358524e+00
2.101939146092104860e+00
2.065188024536881883e+00
2.065188024536881883e+00
1.983810541093173230e+00
1.983810541093173230e+00
2.021124179815057875e+00
2.037062166203802427e+00
2.037062166203802427e+00
2.046624958037049247e+00
2.046624958037049247e+00
2.125752372814111890e+00
2.209192419202246516e+00
2.209192419202246516e+00
2.130065004425183872e+00
2.113001983703115982e+00
2.113001983703115982e+00
2.180316537980285130e+00
2.180316537980285130e+00
2.120689718314157535e+00
2.068000610370189563e+00
2.068000610370189563e+00
2.124064821314127105e+00
2.124064821314127105e+00
2.060125370036927084e+00
2.067813104647969080e+00
2.067813104647969080e+00
2.139627796258431136e+00
2.139627796258431136e+00
2.042124820703756782e+00
2.000686056093020415e+00
2.000686056093020415e+00
2.055250221259193655e+00
2.055250221259193655e+00
2.009498825037385306e+00
2.007623767815180038e+00
2.007623767815180038e+00
2.108689352092044000e+00
2.108689352092044000e+00
2.046062440870388244e+00
2.014748985259559699e+00
2.014748985259559699e+00
1.946121890926847176e+00
2.058437818536942299e+00
2.058437818536942299e+00
2.163066011535996758e+00
2.163066011535996758e+00
2.088813745536667987e+00
1.994873378704184130e+00
1.994873378704184130e+00
2.111689443647572162e+00
2.111689443647572162e+00
2.113564500869777874e+00
2.089376262703329878e+00
2.089376262703329878e+00
2.127814935758537640e+00
2.085813653981139382e+00
2.085813653981139382e+00
2.048875026703695923e+00
2.048875026703695923e+00
2.145815485091708386e+00
1.959059785760063566e+00
1.959059785760063566e+00
1.749053376873073606e+00
1.749053376873073606e+00
1.961872371593371245e+00
2.128939970091860534e+00
2.136627704702902530e+00
2.136627704702902530e+00
2.116002075258644588e+00
2.116002075258644588e+00
2.097063997314370987e+00
2.042499832148198191e+00
2.042499832148198191e+00
2.063500473036897098e+00
2.022624225592822178e+00
2.022624225592822178e+00
2.089563768425550361e+00
2.089563768425550361e+00
2.105314249092073986e+00
2.086188665425580790e+00
2.086188665425580790e+00
2.058625324259163225e+00
2.058625324259163225e+00
2.051687612537003602e+00
2.088251228370006540e+00
2.088251228370006540e+00
2.222130314035462462e+00
2.222130314035462462e+00
2.235443220313119816e+00
2.164378551591540134e+00
2.164378551591540134e+00
2.009686330759605788e+00
1.892870265816217534e+00
1.892870265816217534e+00
1.859869258705404871e+00
1.859869258705404871e+00
2.020936674092837393e+00
2.090313791314432290e+00
2.090313791314432290e+00
2.084876125370036970e+00
2.084876125370036970e+00
2.227192968535416817e+00
2.143190404980620745e+00
2.143190404980620745e+00
2.069125644703512901e+00
2.069125644703512901e+00
1.975185277871028822e+00
2.003311136204107612e+00
2.003311136204107612e+00
2.176003906369212704e+00
2.176003906369212704e+00
2.187629261146885273e+00
2.156315805536057617e+00
2.156315805536057617e+00
2.007061250648518591e+00
2.007061250648518591e+00
1.919496078371532466e+00
2.120127201147496088e+00
2.120127201147496088e+00
2.216317636646626177e+00
2.232068117313150690e+00
2.232068117313150690e+00
2.011936399426252020e+00
1.943496810815759979e+00
1.943496810815759979e+00
1.992810815759758380e+00
2.003311136204107612e+00
2.003311136204107612e+00
1.845243812372203696e+00
1.845243812372203696e+00
2.200754661702322146e+00
2.215380108035523765e+00
2.215380108035523765e+00
2.103251686147648680e+00
2.103251686147648680e+00
2.234505691702016961e+00
2.002936124759666647e+00
2.002936124759666647e+00
1.997310953093050845e+00
1.997310953093050845e+00
1.993560838648640532e+00
1.992435804315317194e+00
1.992435804315317194e+00
1.956997222815637594e+00
2.027499374370555607e+00
2.027499374370555607e+00
2.059187841425824672e+00
2.059187841425824672e+00
2.153503219702749494e+00
2.012311410870692985e+00
2.012311410870692985e+00
2.065750541703543330e+00
2.065750541703543330e+00
2.130252510147404355e+00
2.083751091036713632e+00
2.083751091036713632e+00
2.034812097537156195e+00
2.034812097537156195e+00
2.173191320535905025e+00
2.122564775536362802e+00
2.122564775536362802e+00
2.155940794091616652e+00
2.155940794091616652e+00
2.092001342814417075e+00
1.937871639149143954e+00
1.937871639149143954e+00
2.024499282815027001e+00
2.099689077425458628e+00
2.099689077425458628e+00
2.141127842036194995e+00
2.141127842036194995e+00
2.085251136814477935e+00
2.158190862758262885e+00
2.158190862758262885e+00
2.120689718314157535e+00
2.120689718314157535e+00
2.063312967314676172e+00
2.059000335703604190e+00
2.059000335703604190e+00
2.090688802758873255e+00
2.048500015259254514e+00
2.048500015259254514e+00
2.070250679036835795e+00
2.070250679036835795e+00
2.039499740592669585e+00
2.089376262703329878e+00
2.089376262703329878e+00
2.110376903592028786e+00
2.110376903592028786e+00
2.102876674703207716e+00
2.057875301370280852e+00
2.057875301370280852e+00
1.971060151982177322e+00
1.971060151982177322e+00
1.973122714926602850e+00
2.003498641926328094e+00
2.003498641926328094e+00
2.027686880092776089e+00
2.027686880092776089e+00
2.114877040925321250e+00
2.088438734092227023e+00
2.088438734092227023e+00
2.053375164036988387e+00
2.171878780480361648e+00
2.171878780480361648e+00
2.165128574480422063e+00
2.165128574480422063e+00
2.012123905148472502e+00
1.976497817926572642e+00
1.976497817926572642e+00
2.054312692648091243e+00
2.054312692648091243e+00
2.130065004425183872e+00
1.944996856593524059e+00
1.944996856593524059e+00
2.010811365092929126e+00
2.010811365092929126e+00
2.084501113925596005e+00
2.111689443647572162e+00
2.111689443647572162e+00
2.118439649647511303e+00
2.047374980925931620e+00
2.047374980925931620e+00
2.109626880703146412e+00
2.109626880703146412e+00
2.059937864314706601e+00
2.166253608813745402e+00
2.166253608813745402e+00
2.174691366313669327e+00
2.174691366313669327e+00
2.144127933591723156e+00
2.078875942258980203e+00
2.078875942258980203e+00
2.032937040314951371e+00
2.032937040314951371e+00
2.080750999481185470e+00
2.022436719870601696e+00
2.022436719870601696e+00
2.032374523148289480e+00
2.032374523148289480e+00
2.065750541703543330e+00
2.091438825647755628e+00
2.091438825647755628e+00
2.063500473036897098e+00
2.020936674092837393e+00
2.020936674092837393e+00
2.086001159703360308e+00
2.086001159703360308e+00
1.985498092593157793e+00
1.954559648426770879e+00
1.954559648426770879e+00
2.016624042481765411e+00
2.016624042481765411e+00
1.996185918759727951e+00
2.063500473036897098e+00
2.063500473036897098e+00
2.093313882869960452e+00
2.093313882869960452e+00
2.137002716147343495e+00
2.226255439924313961e+00
2.226255439924313961e+00
2.155378276924954761e+00
1.992060792870876229e+00
1.992060792870876229e+00
2.094063905758842381e+00
2.094063905758842381e+00
2.342883999145481511e+00
2.200567155980101663e+00
2.200567155980101663e+00
2.098001525925473842e+00
2.098001525925473842e+00
2.067625598925748598e+00
1.922683675649281332e+00
1.922683675649281332e+00
1.995435895870845799e+00
1.995435895870845799e+00
2.035187108981597159e+00
1.947809442426831961e+00
1.947809442426831961e+00
2.021311685537278358e+00
2.021311685537278358e+00
2.120127201147496088e+00
2.120502212591937052e+00
2.120502212591937052e+00
2.114877040925321250e+00
2.103626697592089645e+00
2.103626697592089645e+00
2.115252052369762659e+00
2.115252052369762659e+00
2.156315805536057617e+00
2.059937864314706601e+00
2.059937864314706601e+00
2.006873744926298109e+00
2.006873744926298109e+00
2.040062257759331033e+00
2.030311960203863730e+00
2.030311960203863730e+00
2.001811090426343309e+00
2.001811090426343309e+00
1.996560930204168693e+00
1.990748252815332409e+00
1.990748252815332409e+00
2.029374431592760875e+00
2.029374431592760875e+00
2.028061891537217498e+00
2.068188116092410045e+00
2.068188116092410045e+00
2.100814111758781966e+00
2.151815668202764709e+00
2.151815668202764709e+00
2.179941526535844165e+00
2.179941526535844165e+00
2.128002441480758122e+00
2.039124729148228621e+00
2.039124729148228621e+00
2.035187108981597159e+00
2.035187108981597159e+00
2.044562395092623941e+00
2.065938047425763813e+00
2.065938047425763813e+00
2.081501022370067400e+00
2.081501022370067400e+00
2.098189031647694325e+00
2.089751274147770843e+00
2.089751274147770843e+00
2.085251136814477935e+00
2.060687887203588975e+00
2.060687887203588975e+00
2.087313699758903685e+00
2.087313699758903685e+00
2.069125644703512901e+00
2.015311502426221590e+00
2.015311502426221590e+00
2.050000061037018817e+00
2.050000061037018817e+00
2.093501388592180934e+00
2.024311777092806519e+00
2.024311777092806519e+00
2.092376354258858040e+00
2.092376354258858040e+00
2.040062257759331033e+00
2.075500839259010633e+00
2.075500839259010633e+00
2.062937955870235207e+00
2.062937955870235207e+00
2.091438825647755628e+00
2.097626514481032878e+00
2.097626514481032878e+00
2.147503036591693171e+00
2.147503036591693171e+00
2.018499099703970678e+00
2.109251869258705447e+00
2.109251869258705447e+00
2.067813104647969080e+00
2.104001709036531054e+00
2.104001709036531054e+00
2.112439466536454535e+00
2.112439466536454535e+00
2.094813928647724754e+00
2.092563859981078966e+00
2.092563859981078966e+00
2.020374156926175946e+00
2.020374156926175946e+00
2.021311685537278358e+00
2.049062532425916405e+00
2.049062532425916405e+00
2.016061525315103520e+00
2.016061525315103520e+00
2.020936674092837393e+00
2.049812555314798335e+00
2.049812555314798335e+00
2.095188940092165719e+00
2.087501205481124167e+00
2.087501205481124167e+00
2.093876400036621899e+00
2.093876400036621899e+00
2.052812646870326940e+00
2.074375804925687294e+00
2.074375804925687294e+00
2.103626697592089645e+00
2.103626697592089645e+00
2.110189397869807859e+00
2.065188024536881883e+00
2.065188024536881883e+00
2.095376445814386202e+00
2.095376445814386202e+00
2.031436994537187068e+00
2.030311960203863730e+00
2.030311960203863730e+00
2.080938505203405953e+00
2.080938505203405953e+00
2.085813653981139382e+00
2.064062990203558545e+00
2.064062990203558545e+00
2.068188116092410045e+00
2.077375896481215900e+00
2.077375896481215900e+00
2.096313974425489057e+00
2.096313974425489057e+00
2.117689626758628929e+00
2.088438734092227023e+00
2.088438734092227023e+00
2.065750541703543330e+00
2.065750541703543330e+00
2.068000610370189563e+00
2.059000335703604190e+00
2.059000335703604190e+00
2.076063356425672080e+00
2.076063356425672080e+00
2.047749992370372585e+00
2.082813562425611220e+00
2.082813562425611220e+00
2.080188482314524023e+00
2.065750541703543330e+00
2.065750541703543330e+00
2.116564592425305591e+00
2.116564592425305591e+00
2.070813196203497242e+00
2.044937406537064906e+00
2.044937406537064906e+00
2.061062898648029940e+00
2.061062898648029940e+00
2.021124179815057875e+00
2.022811731315042216e+00
2.022811731315042216e+00
2.023186742759483625e+00
2.023186742759483625e+00
2.068938138981292418e+00
2.155753288369396170e+00
2.155753288369396170e+00
2.215005096591082356e+00
2.215005096591082356e+00
2.187066743980223826e+00
2.088063722647786058e+00
2.088063722647786058e+00
2.087313699758903685e+00
2.087313699758903685e+00
2.069125644703512901e+00
2.068938138981292418e+00
