2.062562944425794242e+00
2.062562944425794242e+00
2.062562944425794242e+00
2.073813287759025847e+00
2.073813287759025847e+00
2.073813287759025847e+00
2.078500930814539238e+00
2.078500930814539238e+00
2.078500930814539238e+00
2.063500473036897098e+00
2.063500473036897098e+00
2.063500473036897098e+00
2.063500473036897098e+00
2.059562852870265637e+00
2.059562852870265637e+00
2.059562852870265637e+00
2.064813013092440475e+00
2.064813013092440475e+00
2.064813013092440475e+00
2.064813013092440475e+00
2.068000610370189563e+00
2.068000610370189563e+00
2.068000610370189563e+00
2.079438459425641650e+00
2.079438459425641650e+00
2.079438459425641650e+00
2.079438459425641650e+00
2.074750816370128703e+00
2.074750816370128703e+00
2.074750816370128703e+00
2.067063081759087151e+00
2.067063081759087151e+00
2.067063081759087151e+00
2.070063173314615312e+00
2.070063173314615312e+00
2.070063173314615312e+00
2.070063173314615312e+00
2.062375438703573760e+00
2.062375438703573760e+00
2.062375438703573760e+00
2.058062807092501334e+00
2.058062807092501334e+00
2.058062807092501334e+00
2.058062807092501334e+00
2.062750450148014725e+00
2.062750450148014725e+00
2.062750450148014725e+00
2.063312967314676172e+00
2.063312967314676172e+00
2.063312967314676172e+00
2.063312967314676172e+00
2.061250404370250422e+00
2.061250404370250422e+00
2.061250404370250422e+00
2.068563127536851454e+00
2.068563127536851454e+00
2.068563127536851454e+00
2.076250862147892562e+00
2.076250862147892562e+00
2.076250862147892562e+00
2.076250862147892562e+00
2.069500656147953865e+00
2.069500656147953865e+00
2.069500656147953865e+00
2.060687887203588975e+00
2.060687887203588975e+00
2.060687887203588975e+00
2.060687887203588975e+00
2.067813104647969080e+00
2.067813104647969080e+00
2.067813104647969080e+00
2.063875484481338063e+00
2.063875484481338063e+00
2.063875484481338063e+00
2.063875484481338063e+00
2.062750450148014725e+00
2.062750450148014725e+00
2.062750450148014725e+00
2.069500656147953865e+00
2.069500656147953865e+00
2.069500656147953865e+00
2.069500656147953865e+00
2.080188482314524023e+00
2.080188482314524023e+00
2.080188482314524023e+00
2.083376079592272667e+00
2.083376079592272667e+00
2.083376079592272667e+00
2.074938322092349186e+00
2.074938322092349186e+00
2.074938322092349186e+00
2.074938322092349186e+00
2.057312784203619849e+00
2.057312784203619849e+00
2.051125095370342155e+00
2.051125095370342155e+00
2.051125095370342155e+00
2.043624866481521085e+00
2.043624866481521085e+00
2.043624866481521085e+00
2.057687795648060813e+00
2.057687795648060813e+00
2.057687795648060813e+00
2.057687795648060813e+00
2.057125278481399366e+00
2.057125278481399366e+00
2.057125278481399366e+00
2.067625598925748598e+00
2.067625598925748598e+00
2.067625598925748598e+00
2.067625598925748598e+00
2.073813287759025847e+00
2.073813287759025847e+00
2.073813287759025847e+00
2.071563219092379615e+00
2.071563219092379615e+00
2.071563219092379615e+00
2.071563219092379615e+00
2.070063173314615312e+00
2.070063173314615312e+00
2.070063173314615312e+00
2.059375347148045154e+00
2.059375347148045154e+00
2.059375347148045154e+00
2.058437818536942299e+00
2.058437818536942299e+00
2.058437818536942299e+00
2.058437818536942299e+00
2.062562944425794242e+00
2.062562944425794242e+00
2.062562944425794242e+00
2.064250495925779028e+00
2.064250495925779028e+00
2.064250495925779028e+00
2.069500656147953865e+00
2.069500656147953865e+00
2.069500656147953865e+00
2.069500656147953865e+00
2.072125736259041062e+00
2.072125736259041062e+00
2.072125736259041062e+00
2.073813287759025847e+00
2.073813287759025847e+00
2.073813287759025847e+00
2.071375713370158689e+00
2.071375713370158689e+00
2.071375713370158689e+00
2.005936216315195253e+00
2.005936216315195253e+00
2.005936216315195253e+00
2.005936216315195253e+00
1.451106784264656335e+00
1.451106784264656335e+00
1.451106784264656335e+00
1.699926877651295465e+00
1.699926877651295465e+00
1.699926877651295465e+00
2.488575945310831372e+00
2.488575945310831372e+00
2.488575945310831372e+00
2.488575945310831372e+00
2.313070589312418157e+00
2.313070589312418157e+00
2.313070589312418157e+00
2.217067659535508550e+00
2.217067659535508550e+00
2.217067659535508550e+00
2.217067659535508550e+00
2.158753379924924776e+00
2.158753379924924776e+00
2.158753379924924776e+00
2.115064546647541732e+00
2.115064546647541732e+00
2.115064546647541732e+00
2.043249855037080120e+00
2.043249855037080120e+00
2.043249855037080120e+00
2.043249855037080120e+00
1.751115939817499356e+00
1.751115939817499356e+00
1.751115939817499356e+00
2.001436078981902345e+00
2.001436078981902345e+00
2.001436078981902345e+00
2.304632831812494231e+00
2.304632831812494231e+00
2.304632831812494231e+00
2.304632831812494231e+00
2.201317178868984037e+00
2.201317178868984037e+00
2.201317178868984037e+00
2.148065553758354618e+00
2.148065553758354618e+00
2.148065553758354618e+00
2.148065553758354618e+00
2.114314523758659803e+00
2.114314523758659803e+00
2.114314523758659803e+00
2.124252327036347587e+00
2.124252327036347587e+00
2.124252327036347587e+00
2.104001709036531054e+00
2.104001709036531054e+00
2.104001709036531054e+00
1.989248207037568328e+00
1.989248207037568328e+00
1.989248207037568328e+00
1.989248207037568328e+00
2.115064546647541732e+00
2.115064546647541732e+00
2.115064546647541732e+00
2.094813928647724754e+00
2.094813928647724754e+00
2.094813928647724754e+00
2.090126285592211808e+00
2.090126285592211808e+00
2.090126285592211808e+00
2.090126285592211808e+00
2.081313516647846917e+00
2.081313516647846917e+00
2.081313516647846917e+00
2.065188024536881883e+00
2.065188024536881883e+00
2.065188024536881883e+00
2.065188024536881883e+00
2.069313150425733383e+00
2.069313150425733383e+00
2.069313150425733383e+00
2.067438093203528116e+00
2.067438093203528116e+00
2.067438093203528116e+00
2.073813287759025847e+00
2.073813287759025847e+00
2.073813287759025847e+00
2.073813287759025847e+00
2.073250770592364400e+00
2.073250770592364400e+00
2.073250770592364400e+00
2.054312692648091243e+00
2.054312692648091243e+00
2.054312692648091243e+00
2.054312692648091243e+00
2.065375530259102366e+00
2.065375530259102366e+00
2.065375530259102366e+00
2.065563035981322848e+00
2.065563035981322848e+00
2.065563035981322848e+00
2.065563035981322848e+00
2.074375804925687294e+00
2.074375804925687294e+00
2.078125919370098273e+00
2.078125919370098273e+00
2.060687887203588975e+00
2.060687887203588975e+00
2.070625690481276759e+00
2.066313058870204777e+00
2.066313058870204777e+00
2.068938138981292418e+00
2.068938138981292418e+00
2.069875667592394830e+00
2.064813013092440475e+00
2.064813013092440475e+00
2.061062898648029940e+00
2.061062898648029940e+00
2.068938138981292418e+00
2.067625598925748598e+00
2.067625598925748598e+00
2.065563035981322848e+00
2.064438001647999510e+00
2.064438001647999510e+00
2.068938138981292418e+00
2.068938138981292418e+00
2.083751091036713632e+00
2.074938322092349186e+00
2.074938322092349186e+00
2.058062807092501334e+00
2.058062807092501334e+00
2.052625141148106458e+00
2.058625324259163225e+00
2.058625324259163225e+00
2.067813104647969080e+00
2.067813104647969080e+00
2.069125644703512901e+00
2.070813196203497242e+00
2.070813196203497242e+00
2.062375438703573760e+00
2.062375438703573760e+00
2.052250129703665493e+00
2.055062715536973172e+00
2.055062715536973172e+00
2.062937955870235207e+00
2.062937955870235207e+00
2.070625690481276759e+00
2.068375621814630971e+00
2.068375621814630971e+00
2.074375804925687294e+00
2.070813196203497242e+00
2.070813196203497242e+00
2.059375347148045154e+00
2.059375347148045154e+00
2.067250587481307633e+00
2.077938413647877791e+00
2.077938413647877791e+00
2.069313150425733383e+00
2.069313150425733383e+00
2.061437910092470904e+00
2.058625324259163225e+00
2.058625324259163225e+00
2.071188207647938206e+00
2.071188207647938206e+00
2.068563127536851454e+00
2.050375072481459782e+00
2.050375072481459782e+00
2.057687795648060813e+00
2.057687795648060813e+00
2.073625782036805365e+00
2.076250862147892562e+00
2.076250862147892562e+00
2.070438184759056277e+00
2.068375621814630971e+00
2.068375621814630971e+00
2.062937955870235207e+00
2.062937955870235207e+00
2.065563035981322848e+00
2.064438001647999510e+00
2.064438001647999510e+00
2.066500564592425260e+00
2.066500564592425260e+00
2.072313241981261545e+00
2.067250587481307633e+00
2.067250587481307633e+00
2.071000701925717724e+00
2.071000701925717724e+00
2.074188299203466812e+00
2.066500564592425260e+00
2.066500564592425260e+00
2.056375255592516993e+00
2.058625324259163225e+00
2.058625324259163225e+00
2.067063081759087151e+00
2.067063081759087151e+00
2.062562944425794242e+00
2.066688070314646186e+00
2.066688070314646186e+00
2.070438184759056277e+00
2.070438184759056277e+00
2.074000793481246330e+00
2.072125736259041062e+00
2.072125736259041062e+00
2.062187932981353278e+00
2.062187932981353278e+00
2.057312784203619849e+00
2.068563127536851454e+00
2.068563127536851454e+00
2.067063081759087151e+00
2.067063081759087151e+00
2.063875484481338063e+00
2.060312875759148010e+00
2.060312875759148010e+00
2.077750907925656865e+00
2.066125553147984295e+00
2.066125553147984295e+00
2.065563035981322848e+00
2.065563035981322848e+00
2.061062898648029940e+00
2.049625049592577852e+00
2.049625049592577852e+00
2.067625598925748598e+00
2.067625598925748598e+00
2.075125827814569668e+00
2.071563219092379615e+00
2.071563219092379615e+00
2.069500656147953865e+00
2.069500656147953865e+00
2.060312875759148010e+00
2.042499832148198191e+00
2.042499832148198191e+00
2.055062715536973172e+00
2.072125736259041062e+00
2.072125736259041062e+00
2.066688070314646186e+00
2.066688070314646186e+00
2.073813287759025847e+00
2.073813287759025847e+00
2.073813287759025847e+00
2.065750541703543330e+00
2.065750541703543330e+00
2.071188207647938206e+00
2.079813470870083059e+00
2.079813470870083059e+00
2.070438184759056277e+00
2.070438184759056277e+00
2.060125370036927084e+00
2.065375530259102366e+00
2.065375530259102366e+00
2.068750633259071936e+00
2.071375713370158689e+00
2.071375713370158689e+00
2.082063539536728847e+00
2.082063539536728847e+00
2.063687978759117581e+00
2.065375530259102366e+00
2.065375530259102366e+00
2.077000885036774935e+00
2.077000885036774935e+00
2.070813196203497242e+00
2.059000335703604190e+00
2.059000335703604190e+00
2.060125370036927084e+00
2.060125370036927084e+00
2.048500015259254514e+00
2.044562395092623941e+00
2.044562395092623941e+00
2.060125370036927084e+00
2.060125370036927084e+00
2.057500289925840331e+00
2.048312509537034032e+00
2.048312509537034032e+00
2.047937498092593067e+00
2.047937498092593067e+00
2.054687704092532208e+00
2.050187566759239299e+00
2.050187566759239299e+00
2.053937681203650278e+00
2.087688711203345093e+00
2.087688711203345093e+00
2.104376720480972018e+00
2.104376720480972018e+00
2.094626422925504272e+00
2.075125827814569668e+00
2.075125827814569668e+00
2.063125461592455689e+00
2.063125461592455689e+00
2.066125553147984295e+00
2.064062990203558545e+00
2.064062990203558545e+00
2.068750633259071936e+00
2.068750633259071936e+00
2.074938322092349186e+00
2.077375896481215900e+00
2.077375896481215900e+00
2.074188299203466812e+00
2.064438001647999510e+00
2.064438001647999510e+00
2.058437818536942299e+00
2.058437818536942299e+00
2.066688070314646186e+00
2.067250587481307633e+00
2.067250587481307633e+00
2.059000335703604190e+00
2.059000335703604190e+00
2.068000610370189563e+00
2.068188116092410045e+00
2.068188116092410045e+00
2.066125553147984295e+00
2.066125553147984295e+00
2.058437818536942299e+00
2.066500564592425260e+00
2.066500564592425260e+00
2.056937772759178884e+00
2.056937772759178884e+00
2.061625415814691387e+00
2.068000610370189563e+00
2.068000610370189563e+00
2.074375804925687294e+00
2.061250404370250422e+00
2.061250404370250422e+00
2.057875301370280852e+00
2.057875301370280852e+00
2.065563035981322848e+00
2.069500656147953865e+00
2.069500656147953865e+00
2.060875392925809457e+00
2.068188116092410045e+00
2.068188116092410045e+00
2.068188116092410045e+00
2.068188116092410045e+00
2.072875759147922992e+00
2.077375896481215900e+00
2.077375896481215900e+00
2.080000976592303541e+00
2.080000976592303541e+00
2.071188207647938206e+00
2.065938047425763813e+00
2.065938047425763813e+00
2.056937772759178884e+00
2.056937772759178884e+00
2.040812280648213406e+00
2.045124912259285388e+00
2.045124912259285388e+00
2.062375438703573760e+00
2.062375438703573760e+00
2.071563219092379615e+00
2.078500930814539238e+00
2.078500930814539238e+00
2.068938138981292418e+00
2.067438093203528116e+00
2.067438093203528116e+00
2.068188116092410045e+00
2.068188116092410045e+00
2.083376079592272667e+00
2.080563493758964988e+00
2.080563493758964988e+00
2.066875576036866669e+00
2.066875576036866669e+00
2.071375713370158689e+00
2.060125370036927084e+00
2.060125370036927084e+00
2.047562486648152102e+00
2.047562486648152102e+00
2.057312784203619849e+00
2.048312509537034032e+00
2.048312509537034032e+00
2.042687337870418673e+00
2.062187932981353278e+00
2.062187932981353278e+00
2.071375713370158689e+00
2.071375713370158689e+00
2.066875576036866669e+00
2.070625690481276759e+00
2.070625690481276759e+00
2.066688070314646186e+00
2.066688070314646186e+00
2.041562303537095335e+00
2.049437543870357370e+00
2.049437543870357370e+00
2.061625415814691387e+00
2.061625415814691387e+00
2.066500564592425260e+00
2.063875484481338063e+00
2.063875484481338063e+00
2.106626789147617806e+00
2.106626789147617806e+00
2.094063905758842381e+00
2.083376079592272667e+00
2.083376079592272667e+00
2.082813562425611220e+00
2.083376079592272667e+00
2.083376079592272667e+00
2.065563035981322848e+00
2.065563035981322848e+00
2.060875392925809457e+00
2.059937864314706601e+00
2.059937864314706601e+00
2.062937955870235207e+00
2.062937955870235207e+00
2.068750633259071936e+00
2.066875576036866669e+00
2.066875576036866669e+00
2.055062715536973172e+00
2.055062715536973172e+00
2.072500747703482027e+00
2.074000793481246330e+00
2.074000793481246330e+00
2.062562944425794242e+00
2.062562944425794242e+00
2.049250038148136888e+00
2.064438001647999510e+00
2.064438001647999510e+00
2.072125736259041062e+00
2.078125919370098273e+00
2.078125919370098273e+00
2.074750816370128703e+00
2.074750816370128703e+00
2.065000518814661401e+00
2.078313425092318756e+00
2.078313425092318756e+00
2.060500381481368493e+00
2.060500381481368493e+00
2.048687520981474997e+00
2.040624774925992480e+00
2.040624774925992480e+00
2.053187658314767905e+00
2.053187658314767905e+00
2.050562578203680708e+00
2.058625324259163225e+00
2.058625324259163225e+00
2.079438459425641650e+00
2.094813928647724754e+00
2.094813928647724754e+00
2.100814111758781966e+00
2.100814111758781966e+00
2.089001251258888470e+00
2.098751548814355772e+00
2.098751548814355772e+00
2.058062807092501334e+00
2.058062807092501334e+00
2.081313516647846917e+00
2.067813104647969080e+00
2.067813104647969080e+00
2.037249671926022909e+00
2.037249671926022909e+00
2.048500015259254514e+00
2.043437360759300603e+00
2.043437360759300603e+00
2.027311868648335125e+00
2.027311868648335125e+00
2.043062349314859638e+00
2.081313516647846917e+00
2.081313516647846917e+00
2.084313608203375079e+00
2.087688711203345093e+00
2.087688711203345093e+00
2.075313333536790150e+00
2.057125278481399366e+00
2.057125278481399366e+00
2.048500015259254514e+00
2.056750267036957958e+00
2.056750267036957958e+00
2.072313241981261545e+00
2.072313241981261545e+00
2.089376262703329878e+00
2.082063539536728847e+00
2.082063539536728847e+00
2.061625415814691387e+00
2.061625415814691387e+00
2.055812738425855546e+00
2.047374980925931620e+00
2.047374980925931620e+00
2.068563127536851454e+00
2.052062623981445011e+00
2.052062623981445011e+00
2.048125003814813549e+00
2.048125003814813549e+00
2.047749992370372585e+00
2.076625873592333971e+00
2.076625873592333971e+00
2.083563585314493150e+00
2.083563585314493150e+00
2.092376354258858040e+00
2.070063173314615312e+00
2.070063173314615312e+00
2.071188207647938206e+00
2.060687887203588975e+00
2.060687887203588975e+00
2.060500381481368493e+00
2.060500381481368493e+00
2.070438184759056277e+00
2.063500473036897098e+00
2.063500473036897098e+00
2.053375164036988387e+00
2.053375164036988387e+00
2.057500289925840331e+00
2.047562486648152102e+00
2.047562486648152102e+00
2.047562486648152102e+00
2.047562486648152102e+00
2.045687429425947279e+00
2.079250953703421168e+00
2.079250953703421168e+00
2.098189031647694325e+00
2.070813196203497242e+00
2.070813196203497242e+00
2.059000335703604190e+00
2.059000335703604190e+00
2.050187566759239299e+00
2.055062715536973172e+00
2.055062715536973172e+00
2.059187841425824672e+00
2.080375988036744506e+00
2.080375988036744506e+00
2.065188024536881883e+00
2.056937772759178884e+00
2.056937772759178884e+00
2.067063081759087151e+00
2.067063081759087151e+00
2.058437818536942299e+00
2.086188665425580790e+00
2.086188665425580790e+00
2.099314065981017663e+00
2.085063631092257452e+00
2.085063631092257452e+00
2.067813104647969080e+00
2.067813104647969080e+00
2.049437543870357370e+00
2.048687520981474997e+00
2.048687520981474997e+00
2.048125003814813549e+00
2.048125003814813549e+00
2.065375530259102366e+00
2.061437910092470904e+00
2.061437910092470904e+00
2.073438276314584883e+00
2.073438276314584883e+00
2.068563127536851454e+00
2.071938230536820580e+00
2.071938230536820580e+00
2.017374065370647340e+00
2.017374065370647340e+00
2.027124362926114642e+00
2.035374614703817642e+00
2.035374614703817642e+00
2.042874843592639156e+00
2.052437635425885976e+00
2.052437635425885976e+00
2.053187658314767905e+00
2.053187658314767905e+00
2.071000701925717724e+00
2.096126468703268575e+00
2.096126468703268575e+00
2.111126926480910715e+00
2.111126926480910715e+00
2.100814111758781966e+00
2.098376537369914807e+00
2.098376537369914807e+00
2.062937955870235207e+00
2.055437726981414581e+00
2.055437726981414581e+00
2.067250587481307633e+00
2.067250587481307633e+00
2.049437543870357370e+00
2.048125003814813549e+00
2.048125003814813549e+00
2.061625415814691387e+00
2.061625415814691387e+00
2.067625598925748598e+00
2.045874935148167761e+00
2.045874935148167761e+00
2.041187292092654371e+00
2.041187292092654371e+00
2.050750083925901190e+00
2.086938688314462720e+00
2.086938688314462720e+00
2.071188207647938206e+00
2.064813013092440475e+00
2.064813013092440475e+00
2.052812646870326940e+00
2.052812646870326940e+00
2.072875759147922992e+00
2.058812829981383707e+00
2.058812829981383707e+00
1.877682302316354912e+00
1.750740928373058169e+00
1.750740928373058169e+00
1.686051454206976441e+00
1.925121250038148268e+00
1.925121250038148268e+00
2.276881984923856628e+00
2.441324503311258276e+00
2.441324503311258276e+00
2.292257454145939732e+00
2.292257454145939732e+00
2.197379558702353020e+00
2.128189947202978605e+00
2.128189947202978605e+00
2.108876857814264483e+00
2.108876857814264483e+00
2.055437726981414581e+00
2.055437726981414581e+00
1.748678365428632642e+00
1.748678365428632642e+00
1.678926236762596558e+00
2.372134891811884305e+00
2.372134891811884305e+00
2.299945188756981285e+00
2.218380199591051927e+00
2.218380199591051927e+00
2.140002807702871657e+00
2.140002807702871657e+00
2.069313150425733383e+00
2.018499099703970678e+00
2.018499099703970678e+00
2.070438184759056277e+00
2.077938413647877791e+00
2.077938413647877791e+00
2.119002166814172750e+00
2.084688619647816488e+00
2.084688619647816488e+00
2.092188848536637558e+00
2.092188848536637558e+00
2.096876491592150504e+00
2.076250862147892562e+00
2.076250862147892562e+00
2.059000335703604190e+00
2.059000335703604190e+00
2.089751274147770843e+00
2.083376079592272667e+00
2.083376079592272667e+00
2.058437818536942299e+00
2.058437818536942299e+00
2.029749443037202283e+00
2.054125186925870761e+00
2.054125186925870761e+00
2.052437635425885976e+00
2.056750267036957958e+00
2.056750267036957958e+00
2.074750816370128703e+00
2.069125644703512901e+00
2.069125644703512901e+00
2.096313974425489057e+00
2.096313974425489057e+00
2.063875484481338063e+00
2.039312234870449103e+00
2.039312234870449103e+00
2.029936948759422766e+00
2.031249488814966586e+00
2.031249488814966586e+00
2.045499923703726353e+00
2.045499923703726353e+00
2.081313516647846917e+00
2.125939878536332373e+00
2.125939878536332373e+00
2.138315256202887316e+00
2.102126651814325342e+00
2.102126651814325342e+00
2.059937864314706601e+00
2.059937864314706601e+00
2.054500198370311725e+00
2.048125003814813549e+00
2.048125003814813549e+00
2.075500839259010633e+00
2.065375530259102366e+00
2.065375530259102366e+00
2.064062990203558545e+00
2.064062990203558545e+00
2.071000701925717724e+00
2.057500289925840331e+00
2.057500289925840331e+00
2.041374797814874853e+00
2.041374797814874853e+00
2.027686880092776089e+00
2.055812738425855546e+00
2.055812738425855546e+00
2.065750541703543330e+00
2.065750541703543330e+00
2.059562852870265637e+00
2.053750175481429796e+00
2.053750175481429796e+00
2.035562120426038124e+00
2.035562120426038124e+00
2.075688344981231115e+00
2.086563676870021755e+00
2.086563676870021755e+00
2.110376903592028786e+00
2.133252601702932960e+00
2.133252601702932960e+00
2.096501480147709540e+00
2.096501480147709540e+00
2.068000610370189563e+00
2.055062715536973172e+00
2.055062715536973172e+00
2.049437543870357370e+00
2.049437543870357370e+00
2.084688619647816488e+00
2.123314798425245176e+00
2.123314798425245176e+00
2.140565324869533104e+00
2.140565324869533104e+00
2.142440382091738371e+00
2.073250770592364400e+00
2.073250770592364400e+00
2.070250679036835795e+00
2.070250679036835795e+00
2.054312692648091243e+00
2.040437269203771997e+00
2.040437269203771997e+00
2.046062440870388244e+00
2.032562028870509963e+00
2.032562028870509963e+00
2.049250038148136888e+00
2.049250038148136888e+00
2.040249763481551515e+00
2.047749992370372585e+00
2.047749992370372585e+00
2.130065004425183872e+00
2.130065004425183872e+00
2.119377178258613714e+00
2.050562578203680708e+00
2.050562578203680708e+00
2.043437360759300603e+00
2.080188482314524023e+00
2.080188482314524023e+00
2.118814661091952267e+00
2.118814661091952267e+00
2.138502761925107798e+00
2.068563127536851454e+00
2.068563127536851454e+00
2.046437452314828764e+00
2.046437452314828764e+00
2.047749992370372585e+00
2.113564500869777874e+00
2.113564500869777874e+00
2.030499465926084213e+00
2.030499465926084213e+00
1.995810907315286764e+00
1.975747795037690491e+00
1.975747795037690491e+00
2.051875118259224084e+00
2.051875118259224084e+00
2.068938138981292418e+00
2.050937589648121673e+00
2.050937589648121673e+00
1.982873012482070374e+00
1.982873012482070374e+00
1.973685232093264519e+00
2.000498550370799933e+00
2.000498550370799933e+00
2.015686513870662555e+00
1.986998138370922096e+00
1.986998138370922096e+00
2.089563768425550361e+00
2.089563768425550361e+00
2.115252052369762659e+00
2.122939786980803767e+00
2.122939786980803767e+00
2.144690450758385047e+00
2.144690450758385047e+00
2.080000976592303541e+00
2.019249122592852608e+00
2.019249122592852608e+00
2.052812646870326940e+00
2.075125827814569668e+00
2.075125827814569668e+00
2.058062807092501334e+00
2.058062807092501334e+00
2.055437726981414581e+00
2.032187017426068998e+00
2.032187017426068998e+00
2.025436811426129857e+00
2.025436811426129857e+00
2.064250495925779028e+00
2.097063997314370987e+00
2.097063997314370987e+00
2.062000427259132795e+00
2.062000427259132795e+00
2.067250587481307633e+00
2.100251594592120075e+00
2.100251594592120075e+00
2.081876033814508364e+00
2.081876033814508364e+00
2.064438001647999510e+00
2.054687704092532208e+00
2.054687704092532208e+00
2.087688711203345093e+00
2.070813196203497242e+00
2.070813196203497242e+00
2.046437452314828764e+00
2.046437452314828764e+00
2.077000885036774935e+00
2.084688619647816488e+00
2.084688619647816488e+00
2.084688619647816488e+00
2.084688619647816488e+00
2.108314340647602592e+00
2.101001617481002448e+00
2.101001617481002448e+00
2.084313608203375079e+00
2.078125919370098273e+00
2.078125919370098273e+00
2.078313425092318756e+00
2.078313425092318756e+00
2.076250862147892562e+00
2.058062807092501334e+00
2.058062807092501334e+00
2.053562669759208870e+00
2.053562669759208870e+00
2.067063081759087151e+00
2.073625782036805365e+00
2.073625782036805365e+00
2.061812921536912313e+00
2.061812921536912313e+00
2.084126102481154597e+00
2.084688619647816488e+00
2.084688619647816488e+00
2.049812555314798335e+00
2.064625507370219992e+00
2.064625507370219992e+00
2.087501205481124167e+00
2.087501205481124167e+00
2.078688436536759720e+00
2.063500473036897098e+00
2.063500473036897098e+00
2.127814935758537640e+00
2.127814935758537640e+00
2.064062990203558545e+00
2.079250953703421168e+00
2.079250953703421168e+00
2.056375255592516993e+00
2.056375255592516993e+00
2.033874568926053783e+00
2.060312875759148010e+00
2.060312875759148010e+00
2.022811731315042216e+00
2.022811731315042216e+00
2.077938413647877791e+00
2.108126834925382109e+00
2.108126834925382109e+00
2.070438184759056277e+00
2.088813745536667987e+00
2.088813745536667987e+00
2.132315073091830104e+00
2.132315073091830104e+00
2.190629352702413879e+00
2.150690633869442259e+00
2.150690633869442259e+00
2.052625141148106458e+00
2.052625141148106458e+00
2.017186559648426858e+00
2.101751640369884377e+00
2.101751640369884377e+00
2.050375072481459782e+00
2.050375072481459782e+00
1.971810174871059473e+00
1.977060335093234089e+00
1.977060335093234089e+00
2.002186101870784718e+00
1.977810357982116241e+00
2.007998779259621003e+00
2.007998779259621003e+00
2.041374797814874853e+00
2.041374797814874853e+00
2.065563035981322848e+00
2.082813562425611220e+00
2.082813562425611220e+00
2.109814386425366894e+00
2.109814386425366894e+00
2.067813104647969080e+00
2.064438001647999510e+00
2.064438001647999510e+00
2.073625782036805365e+00
2.073625782036805365e+00
2.098939054536576698e+00
2.061062898648029940e+00
2.061062898648029940e+00
2.068750633259071936e+00
2.068750633259071936e+00
2.111314432203131197e+00
2.155940794091616652e+00
2.155940794091616652e+00
2.113376995147556947e+00
2.087126194036683202e+00
2.087126194036683202e+00
2.080563493758964988e+00
2.026561845759453195e+00
2.026561845759453195e+00
1.930183904538102402e+00
1.930183904538102402e+00
1.989435712759789032e+00
2.055250221259193655e+00
2.055250221259193655e+00
2.058437818536942299e+00
2.058437818536942299e+00
1.993935850093081497e+00
2.023374248481704107e+00
2.023374248481704107e+00
2.073063264870143918e+00
2.073063264870143918e+00
2.153315713980529011e+00
2.202067201757865966e+00
2.202067201757865966e+00
2.203567247535630269e+00
2.114689535203100768e+00
2.114689535203100768e+00
2.068938138981292418e+00
2.068938138981292418e+00
2.019999145481734981e+00
1.979872920926541990e+00
1.979872920926541990e+00
1.992810815759758380e+00
1.992810815759758380e+00
2.087688711203345093e+00
2.194566972869045340e+00
2.134565141758476781e+00
2.134565141758476781e+00
2.012123905148472502e+00
2.012123905148472502e+00
2.037249671926022909e+00
2.123877315591906623e+00
2.123877315591906623e+00
2.070063173314615312e+00
2.025624317148350340e+00
2.025624317148350340e+00
2.088063722647786058e+00
2.088063722647786058e+00
2.113189489425336465e+00
2.104564226203192501e+00
2.104564226203192501e+00
2.071563219092379615e+00
2.071563219092379615e+00
2.017186559648426858e+00
2.035562120426038124e+00
2.035562120426038124e+00
2.063687978759117581e+00
2.117127109591967482e+00
2.117127109591967482e+00
2.090876308481094181e+00
2.090876308481094181e+00
2.039499740592669585e+00
2.064813013092440475e+00
2.064813013092440475e+00
2.012686422315133949e+00
2.012686422315133949e+00
2.066125553147984295e+00
2.108314340647602592e+00
2.108314340647602592e+00
2.155378276924954761e+00
2.155378276924954761e+00
2.086001159703360308e+00
2.008748802148503376e+00
2.008748802148503376e+00
2.003873653370769503e+00
2.080375988036744506e+00
2.080375988036744506e+00
2.065188024536881883e+00
2.065188024536881883e+00
1.985685598315378275e+00
1.951559556871242496e+00
1.951559556871242496e+00
1.995248390148625317e+00
1.995248390148625317e+00
2.015874019592883037e+00
1.947621936704611478e+00
1.947621936704611478e+00
2.194941984313486305e+00
2.149378093813898438e+00
2.149378093813898438e+00
2.199817133091219734e+00
2.199817133091219734e+00
2.171316263313699757e+00
2.100064088869899592e+00
2.100064088869899592e+00
2.006873744926298109e+00
2.006873744926298109e+00
1.993935850093081497e+00
2.016999053926206376e+00
2.016999053926206376e+00
2.097063997314370987e+00
2.097063997314370987e+00
2.193816949980162967e+00
2.148253059480575100e+00
2.148253059480575100e+00
2.106064271980956359e+00
2.106064271980956359e+00
2.047374980925931620e+00
2.074188299203466812e+00
2.074188299203466812e+00
2.097626514481032878e+00
2.084876125370036970e+00
2.084876125370036970e+00
2.063312967314676172e+00
2.063312967314676172e+00
2.078875942258980203e+00
2.132127567369609622e+00
2.132127567369609622e+00
2.118627155369731785e+00
2.118627155369731785e+00
2.154440748313852350e+00
2.043999877925962494e+00
2.043999877925962494e+00
1.965997497482223189e+00
1.965997497482223189e+00
1.944059327982421204e+00
1.941621753593554489e+00
1.941621753593554489e+00
1.967310037537766565e+00
1.967310037537766565e+00
2.008936307870723859e+00
2.077750907925656865e+00
2.077750907925656865e+00
2.127252418591876193e+00
2.127252418591876193e+00
2.176941434980315559e+00
2.150503128147221332e+00
2.150503128147221332e+00
2.136627704702902530e+00
2.113001983703115982e+00
2.113001983703115982e+00
2.129502487258521981e+00
2.129502487258521981e+00
2.041937314981536300e+00
2.029186925870540392e+00
2.029186925870540392e+00
2.063687978759117581e+00
2.063687978759117581e+00
2.092563859981078966e+00
2.054125186925870761e+00
2.054125186925870761e+00
2.036687154759361462e+00
2.092376354258858040e+00
2.092376354258858040e+00
2.050937589648121673e+00
2.050937589648121673e+00
1.964309945982238181e+00
2.016249031037324002e+00
2.016249031037324002e+00
2.071000701925717724e+00
2.071000701925717724e+00
2.154815759758293314e+00
2.099314065981017663e+00
2.099314065981017663e+00
2.031436994537187068e+00
2.031436994537187068e+00
2.080563493758964988e+00
2.112064455092013571e+00
2.112064455092013571e+00
2.009686330759605788e+00
2.009686330759605788e+00
2.098189031647694325e+00
2.179754020813623683e+00
2.179754020813623683e+00
2.128189947202978605e+00
2.128189947202978605e+00
2.122752281258583285e+00
2.007061250648518591e+00
2.007061250648518591e+00
2.011561387981810611e+00
2.110189397869807859e+00
2.110189397869807859e+00
2.144127933591723156e+00
2.144127933591723156e+00
2.140190313425092139e+00
2.108126834925382109e+00
2.108126834925382109e+00
2.055812738425855546e+00
2.055812738425855546e+00
1.980810449537644624e+00
2.079250953703421168e+00
2.079250953703421168e+00
2.086188665425580790e+00
2.086188665425580790e+00
2.043249855037080120e+00
2.065375530259102366e+00
2.065375530259102366e+00
2.152565691091647082e+00
2.123502304147465658e+00
2.123502304147465658e+00
1.988873195593127363e+00
1.988873195593127363e+00
2.012311410870692985e+00
2.093313882869960452e+00
2.093313882869960452e+00
2.056187749870296511e+00
2.056187749870296511e+00
2.109814386425366894e+00
2.129127475814081016e+00
2.129127475814081016e+00
2.043249855037080120e+00
2.043249855037080120e+00
1.986435621204260427e+00
1.935809076204718204e+00
1.935809076204718204e+00
1.968060060426648716e+00
1.968060060426648716e+00
1.965809991760002484e+00
2.232068117313150690e+00
2.232068117313150690e+00
2.301445234534745587e+00
2.192504409924619146e+00
2.192504409924619146e+00
2.155753288369396170e+00
2.155753288369396170e+00
2.125002349925229961e+00
2.047187475203710694e+00
2.047187475203710694e+00
2.074188299203466812e+00
2.074188299203466812e+00
2.059562852870265637e+00
1.835306009094515911e+00
1.835306009094515911e+00
1.970310129093295171e+00
1.970310129093295171e+00
2.070063173314615312e+00
2.038374706259346247e+00
2.038374706259346247e+00
2.125564867091891408e+00
2.125564867091891408e+00
2.230943082979827352e+00
2.370822351756340485e+00
2.370822351756340485e+00
2.194941984313486305e+00
2.087126194036683202e+00
2.087126194036683202e+00
2.067438093203528116e+00
2.067438093203528116e+00
2.062375438703573760e+00
1.959434797204504530e+00
1.959434797204504530e+00
2.006123722037415735e+00
2.102689168980987233e+00
2.102689168980987233e+00
2.028249397259437981e+00
2.028249397259437981e+00
2.075125827814569668e+00
2.025811822870570822e+00
2.025811822870570822e+00
2.023749259926145072e+00
2.023749259926145072e+00
2.072313241981261545e+00
2.075125827814569668e+00
2.075125827814569668e+00
2.008561296426282894e+00
2.008561296426282894e+00
2.030686971648304695e+00
2.112439466536454535e+00
2.112439466536454535e+00
2.119564683980834197e+00
2.034249580370494748e+00
2.034249580370494748e+00
2.089188756981108952e+00
2.089188756981108952e+00
2.019436628315073090e+00
2.133252601702932960e+00
2.133252601702932960e+00
2.161378460036011973e+00
2.161378460036011973e+00
1.927746330149235465e+00
1.933746513260292454e+00
1.933746513260292454e+00
2.151065645313883223e+00
2.151065645313883223e+00
2.295632557145908859e+00
2.067625598925748598e+00
2.067625598925748598e+00
2.156128299813837135e+00
2.152378185369426600e+00
2.152378185369426600e+00
1.992060792870876229e+00
1.992060792870876229e+00
1.948934476760155077e+00
2.098751548814355772e+00
2.098751548814355772e+00
2.062187932981353278e+00
2.062187932981353278e+00
2.094251411481063307e+00
2.100814111758781966e+00
2.100814111758781966e+00
2.109439374980925930e+00
2.109439374980925930e+00
2.172066286202582130e+00
2.210317453535568966e+00
2.210317453535568966e+00
2.202442213202307375e+00
2.202442213202307375e+00
1.921371135593737511e+00
1.983248023926511561e+00
1.983248023926511561e+00
2.168691183202612560e+00
2.140940336313974068e+00
2.140940336313974068e+00
2.051687612537003602e+00
2.051687612537003602e+00
2.014561479537339217e+00
1.917621021149327198e+00
1.917621021149327198e+00
1.850681478316599016e+00
1.850681478316599016e+00
2.069688161870173904e+00
2.156878322702719064e+00
2.156878322702719064e+00
2.092938871425519931e+00
2.092938871425519931e+00
2.090313791314432290e+00
2.086751182592242237e+00
2.086751182592242237e+00
2.183129123813593253e+00
2.183129123813593253e+00
2.174316354869228363e+00
2.086001159703360308e+00
2.086001159703360308e+00
2.157065828424939546e+00
2.184816675313578038e+00
2.184816675313578038e+00
2.224567888424329176e+00
2.224567888424329176e+00
2.118252143925290376e+00
1.867556993316446423e+00
1.867556993316446423e+00
1.739865596484267751e+00
1.739865596484267751e+00
1.939746696371349222e+00
2.079813470870083059e+00
2.079813470870083059e+00
2.194379467146824858e+00
2.194379467146824858e+00
2.210692464980010374e+00
2.124439832758568070e+00
2.124439832758568070e+00
2.087126194036683202e+00
2.087126194036683202e+00
1.977060335093234089e+00
2.010998870815149164e+00
2.010998870815149164e+00
2.118064638203069894e+00
2.235818231757560781e+00
2.235818231757560781e+00
2.194941984313486305e+00
2.194941984313486305e+00
2.080938505203405953e+00
2.053187658314767905e+00
2.053187658314767905e+00
1.998810998870815148e+00
1.998810998870815148e+00
1.935809076204718204e+00
2.019436628315073090e+00
2.019436628315073090e+00
2.026749351481673678e+00
2.026749351481673678e+00
2.055062715536973172e+00
2.207317361980041248e+00
2.207317361980041248e+00
2.172066286202582130e+00
2.172066286202582130e+00
2.090126285592211808e+00
2.060125370036927084e+00
2.060125370036927084e+00
2.022436719870601696e+00
1.965997497482223189e+00
1.965997497482223189e+00
2.097063997314370987e+00
2.097063997314370987e+00
2.174128849147007880e+00
2.038749717703787212e+00
2.038749717703787212e+00
2.120314706869716570e+00
2.120314706869716570e+00
2.117877132480849411e+00
2.046437452314828764e+00
2.046437452314828764e+00
1.988123172704245212e+00
1.988123172704245212e+00
1.930558915982543589e+00
1.970310129093295171e+00
1.970310129093295171e+00
2.059937864314706601e+00
2.070813196203497242e+00
2.070813196203497242e+00
2.127064912869655711e+00
2.127064912869655711e+00
2.095001434369945237e+00
2.018686605426191161e+00
2.018686605426191161e+00
2.162503494369335311e+00
2.162503494369335311e+00
2.078313425092318756e+00
2.064625507370219992e+00
2.064625507370219992e+00
2.188379284035767647e+00
2.188379284035767647e+00
2.267319193090609808e+00
2.221755302591021497e+00
2.221755302591021497e+00
2.160815942869350526e+00
2.066313058870204777e+00
2.066313058870204777e+00
1.995810907315286764e+00
1.995810907315286764e+00
1.971435163426618287e+00
2.021311685537278358e+00
2.021311685537278358e+00
2.074938322092349186e+00
2.074938322092349186e+00
2.039499740592669585e+00
2.009123813592944341e+00
2.009123813592944341e+00
1.980622943815424142e+00
1.980622943815424142e+00
2.070813196203497242e+00
2.047187475203710694e+00
2.047187475203710694e+00
2.037624683370464318e+00
2.133627613147373925e+00
2.133627613147373925e+00
2.139065279091769245e+00
2.139065279091769245e+00
2.080938505203405953e+00
2.009311319315164823e+00
2.009311319315164823e+00
2.063687978759117581e+00
2.063687978759117581e+00
2.078875942258980203e+00
2.097063997314370987e+00
2.097063997314370987e+00
2.137752739036225869e+00
2.137752739036225869e+00
2.052625141148106458e+00
2.120877224036378017e+00
2.120877224036378017e+00
2.133440107425153442e+00
2.133440107425153442e+00
2.185004181035798521e+00
2.097439008758812395e+00
2.097439008758812395e+00
2.027124362926114642e+00
2.082813562425611220e+00
2.082813562425611220e+00
1.951559556871242496e+00
1.951559556871242496e+00
2.016999053926206376e+00
1.997685964537492032e+00
1.997685964537492032e+00
2.055062715536973172e+00
2.055062715536973172e+00
2.152190679647205673e+00
2.087688711203345093e+00
2.087688711203345093e+00
2.025811822870570822e+00
2.025811822870570822e+00
2.016999053926206376e+00
2.149753105258339403e+00
2.149753105258339403e+00
2.127252418591876193e+00
2.127252418591876193e+00
2.172628803369243577e+00
2.166816125980407293e+00
2.166816125980407293e+00
2.058437818536942299e+00
2.023936765648365554e+00
2.023936765648365554e+00
2.053375164036988387e+00
2.053375164036988387e+00
2.014748985259559699e+00
1.983248023926511561e+00
1.983248023926511561e+00
2.063312967314676172e+00
2.063312967314676172e+00
2.076250862147892562e+00
2.109814386425366894e+00
2.109814386425366894e+00
2.073813287759025847e+00
2.073813287759025847e+00
2.130815027314065802e+00
2.163253517258217240e+00
2.163253517258217240e+00
2.128002441480758122e+00
2.128002441480758122e+00
1.969935117648853984e+00
1.991310769981994078e+00
1.991310769981994078e+00
2.075313333536790150e+00
2.046437452314828764e+00
2.046437452314828764e+00
2.006498733481856700e+00
2.006498733481856700e+00
2.016249031037324002e+00
2.090688802758873255e+00
2.090688802758873255e+00
2.145065462202826012e+00
2.145065462202826012e+00
2.140377819147312621e+00
2.115439558091983141e+00
2.115439558091983141e+00
2.083938596758934114e+00
2.083938596758934114e+00
2.088813745536667987e+00
2.060125370036927084e+00
2.060125370036927084e+00
2.056750267036957958e+00
2.082626056703390294e+00
2.082626056703390294e+00
2.086751182592242237e+00
2.086751182592242237e+00
2.081313516647846917e+00
2.089001251258888470e+00
2.089001251258888470e+00
2.060312875759148010e+00
2.060312875759148010e+00
2.104751731925412539e+00
2.118252143925290376e+00
2.118252143925290376e+00
2.031624500259407551e+00
2.031624500259407551e+00
1.996185918759727951e+00
2.053562669759208870e+00
2.053562669759208870e+00
2.134377636036255854e+00
2.134377636036255854e+00
2.107376812036500180e+00
2.081876033814508364e+00
2.081876033814508364e+00
2.102314157536546269e+00
2.102314157536546269e+00
2.035937131870479533e+00
2.041374797814874853e+00
2.041374797814874853e+00
2.052437635425885976e+00
2.080000976592303541e+00
2.080000976592303541e+00
2.070438184759056277e+00
2.070438184759056277e+00
2.039499740592669585e+00
2.019249122592852608e+00
2.019249122592852608e+00
2.009311319315164823e+00
2.009311319315164823e+00
2.048312509537034032e+00
2.121627246925260390e+00
2.121627246925260390e+00
2.157253334147160473e+00
2.157253334147160473e+00
2.117689626758628929e+00
2.146002990813928868e+00
2.146002990813928868e+00
2.134190130314035372e+00
2.003311136204107612e+00
2.003311136204107612e+00
1.987560655537583543e+00
1.987560655537583543e+00
2.024686788537247928e+00
2.123314798425245176e+00
2.123314798425245176e+00
2.107751823480941145e+00
2.107751823480941145e+00
2.077938413647877791e+00
2.082438550981169811e+00
2.082438550981169811e+00
2.071563219092379615e+00
2.071563219092379615e+00
2.050187566759239299e+00
2.029374431592760875e+00
2.029374431592760875e+00
2.044749900814844423e+00
2.063687978759117581e+00
2.063687978759117581e+00
2.037999694814905283e+00
2.037999694814905283e+00
2.050187566759239299e+00
2.079813470870083059e+00
2.079813470870083059e+00
2.117502121036408447e+00
2.117502121036408447e+00
2.045312417981505870e+00
2.103064180425428198e+00
2.103064180425428198e+00
2.130252510147404355e+00
2.130252510147404355e+00
2.103439191869869163e+00
2.095751457258827610e+00
2.095751457258827610e+00
2.074000793481246330e+00
2.074000793481246330e+00
2.033687063203833301e+00
2.112251960814234053e+00
2.112251960814234053e+00
2.121064729758598499e+00
2.098751548814355772e+00
2.098751548814355772e+00
2.090126285592211808e+00
2.090126285592211808e+00
2.049062532425916405e+00
2.042687337870418673e+00
2.042687337870418673e+00
2.076438367870113488e+00
2.076438367870113488e+00
2.072500747703482027e+00
2.026936857203894160e+00
2.026936857203894160e+00
2.021311685537278358e+00
2.021311685537278358e+00
2.070813196203497242e+00
2.116377086703085553e+00
2.116377086703085553e+00
2.073438276314584883e+00
2.073438276314584883e+00
1.972372692037720920e+00
2.059562852870265637e+00
2.059562852870265637e+00
2.215380108035523765e+00
2.146378002258369833e+00
2.146378002258369833e+00
2.003311136204107612e+00
2.003311136204107612e+00
2.008748802148503376e+00
2.019249122592852608e+00
2.019249122592852608e+00
2.087126194036683202e+00
2.087126194036683202e+00
2.060687887203588975e+00
2.043062349314859638e+00
2.043062349314859638e+00
2.008936307870723859e+00
2.008936307870723859e+00
2.054125186925870761e+00
2.094813928647724754e+00
2.094813928647724754e+00
2.116752098147526517e+00
2.116752098147526517e+00
2.152003173924985191e+00
2.116377086703085553e+00
2.116377086703085553e+00
2.081501022370067400e+00
2.058625324259163225e+00
2.058625324259163225e+00
2.090688802758873255e+00
2.090688802758873255e+00
2.062937955870235207e+00
2.027124362926114642e+00
2.027124362926114642e+00
2.064062990203558545e+00
2.064062990203558545e+00
2.068000610370189563e+00
2.046999969481490211e+00
2.046999969481490211e+00
2.071188207647938206e+00
2.071188207647938206e+00
2.089563768425550361e+00
2.043062349314859638e+00
2.043062349314859638e+00
2.093313882869960452e+00
2.093313882869960452e+00
2.097626514481032878e+00
2.060875392925809457e+00
2.060875392925809457e+00
2.060875392925809457e+00
2.108126834925382109e+00
2.108126834925382109e+00
2.068563127536851454e+00
2.068563127536851454e+00
2.028811914426099428e+00
1.997310953093050845e+00
1.997310953093050845e+00
2.090688802758873255e+00
2.152753196813867564e+00
2.152753196813867564e+00
2.123689809869686140e+00
2.123689809869686140e+00
2.061062898648029940e+00
2.073250770592364400e+00
2.073250770592364400e+00
2.064625507370219992e+00
2.064625507370219992e+00
2.087501205481124167e+00
2.097814020203253360e+00
2.097814020203253360e+00
2.042312326425977265e+00
2.042312326425977265e+00
1.991123264259773595e+00
2.038749717703787212e+00
2.038749717703787212e+00
2.056375255592516993e+00
2.085438642536698417e+00
2.085438642536698417e+00
2.068188116092410045e+00
2.068188116092410045e+00
2.062000427259132795e+00
2.051312601092562637e+00
2.051312601092562637e+00
2.076063356425672080e+00
2.076063356425672080e+00
2.101564134647663895e+00
2.102314157536546269e+00
2.102314157536546269e+00
2.095938962981048093e+00
2.095938962981048093e+00
2.051500106814783120e+00
2.093126377147739969e+00
2.093126377147739969e+00
2.088251228370006540e+00
2.088251228370006540e+00
1.994685872981963648e+00
1.995810907315286764e+00
1.995810907315286764e+00
2.033124546037171854e+00
2.088251228370006540e+00
2.088251228370006540e+00
2.060875392925809457e+00
2.060875392925809457e+00
2.081313516647846917e+00
2.063875484481338063e+00
2.063875484481338063e+00
2.068563127536851454e+00
2.068563127536851454e+00
2.105314249092073986e+00
2.072313241981261545e+00
2.072313241981261545e+00
2.052437635425885976e+00
2.052437635425885976e+00
2.107564317758720662e+00
2.111876949369793088e+00
2.111876949369793088e+00
2.061062898648029940e+00
2.061062898648029940e+00
2.015874019592883037e+00
2.029561937314981801e+00
2.029561937314981801e+00
2.058437818536942299e+00
2.044937406537064906e+00
2.044937406537064906e+00
2.009873836481826270e+00
2.009873836481826270e+00
2.072313241981261545e+00
2.151253151036103706e+00
2.151253151036103706e+00
2.057875301370280852e+00
2.057875301370280852e+00
2.055625232703635064e+00
2.122377269814142320e+00
2.122377269814142320e+00
2.091813837092196593e+00
2.091813837092196593e+00
2.046249946592608282e+00
2.058250312814721816e+00
2.058250312814721816e+00
2.064062990203558545e+00
2.064062990203558545e+00
2.067625598925748598e+00
2.068188116092410045e+00
2.068188116092410045e+00
2.080375988036744506e+00
2.056187749870296511e+00
2.056187749870296511e+00
2.036499649037140980e+00
2.036499649037140980e+00
2.017936582537308787e+00
2.069875667592394830e+00
2.069875667592394830e+00
2.081126010925626435e+00
2.081126010925626435e+00
2.080750999481185470e+00
2.103626697592089645e+00
2.103626697592089645e+00
2.125752372814111890e+00
2.125752372814111890e+00
2.096501480147709540e+00
2.032937040314951371e+00
2.032937040314951371e+00
2.040624774925992480e+00
2.040624774925992480e+00
2.042312326425977265e+00
2.015499008148442073e+00
1.994498367259743166e+00
1.994498367259743166e+00
2.020186651203955464e+00
2.050187566759239299e+00
2.050187566759239299e+00
2.095188940092165719e+00
2.095188940092165719e+00
2.080000976592303541e+00
2.160065919980468152e+00
2.160065919980468152e+00
2.126502395702994264e+00
2.126502395702994264e+00
2.092938871425519931e+00
2.039874752037110550e+00
2.039874752037110550e+00
2.057125278481399366e+00
2.057125278481399366e+00
2.052062623981445011e+00
2.058062807092501334e+00
2.058062807092501334e+00
2.110189397869807859e+00
2.110189397869807859e+00
2.128752464369640052e+00
2.122939786980803767e+00
2.122939786980803767e+00
2.067625598925748598e+00
2.064438001647999510e+00
2.064438001647999510e+00
2.064813013092440475e+00
2.064813013092440475e+00
2.052812646870326940e+00
2.017936582537308787e+00
2.017936582537308787e+00
1.989623218482009515e+00
1.989623218482009515e+00
2.044187383648182976e+00
2.085626148258918899e+00
2.085626148258918899e+00
2.016061525315103520e+00
1.993935850093081497e+00
1.993935850093081497e+00
2.028999420148319910e+00
2.028999420148319910e+00
2.062375438703573760e+00
2.102314157536546269e+00
2.102314157536546269e+00
2.108126834925382109e+00
2.108126834925382109e+00
2.062562944425794242e+00
2.060500381481368493e+00
2.060500381481368493e+00
2.064813013092440475e+00
2.064813013092440475e+00
2.072875759147922992e+00
2.112064455092013571e+00
2.092188848536637558e+00
2.092188848536637558e+00
2.093126377147739969e+00
2.093126377147739969e+00
2.084126102481154597e+00
2.077750907925656865e+00
2.077750907925656865e+00
2.043437360759300603e+00
2.060500381481368493e+00
2.060500381481368493e+00
2.068938138981292418e+00
2.068938138981292418e+00
2.029749443037202283e+00
2.071188207647938206e+00
2.071188207647938206e+00
2.097626514481032878e+00
2.097626514481032878e+00
2.073625782036805365e+00
2.053000152592547423e+00
2.053000152592547423e+00
2.072875759147922992e+00
2.061437910092470904e+00
2.061437910092470904e+00
2.079625965147862576e+00
2.079625965147862576e+00
2.064062990203558545e+00
2.074563310647907777e+00
2.074563310647907777e+00
2.049625049592577852e+00
2.049625049592577852e+00
2.071375713370158689e+00
2.080563493758964988e+00
2.080563493758964988e+00
2.062562944425794242e+00
2.062562944425794242e+00
2.048125003814813549e+00
2.079625965147862576e+00
2.079625965147862576e+00
2.038937223426007694e+00
2.055625232703635064e+00
2.055625232703635064e+00
2.066875576036866669e+00
2.066875576036866669e+00
2.081876033814508364e+00
2.089938779869991325e+00
2.089938779869991325e+00
2.083376079592272667e+00
2.083376079592272667e+00
2.050750083925901190e+00
1.921933652760399180e+00
1.921933652760399180e+00
2.058062807092501334e+00
2.058062807092501334e+00
2.053937681203650278e+00
2.091438825647755628e+00
2.091438825647755628e+00
2.091251319925535146e+00
2.072875759147922992e+00
2.072875759147922992e+00
2.077375896481215900e+00
2.077375896481215900e+00
2.073063264870143918e+00
2.051687612537003602e+00
2.051687612537003602e+00
2.066875576036866669e+00
2.066875576036866669e+00
2.084688619647816488e+00
2.095188940092165719e+00
2.095188940092165719e+00
2.093688894314401416e+00
2.093688894314401416e+00
2.092938871425519931e+00
2.082063539536728847e+00
2.082063539536728847e+00
2.020186651203955464e+00
2.020186651203955464e+00
2.013436445204016323e+00
2.058625324259163225e+00
2.058625324259163225e+00
2.083938596758934114e+00
2.083938596758934114e+00
2.125939878536332373e+00
2.129877498702963390e+00
2.129877498702963390e+00
2.086563676870021755e+00
2.030686971648304695e+00
2.030686971648304695e+00
2.031624500259407551e+00
2.031624500259407551e+00
2.010623859370708644e+00
2.030499465926084213e+00
2.030499465926084213e+00
2.083563585314493150e+00
2.083563585314493150e+00
2.124252327036347587e+00
2.086376171147801273e+00
2.086376171147801273e+00
2.069688161870173904e+00
2.069688161870173904e+00
2.065563035981322848e+00
2.047749992370372585e+00
2.047749992370372585e+00
2.062000427259132795e+00
2.064813013092440475e+00
2.064813013092440475e+00
2.074938322092349186e+00
2.074938322092349186e+00
2.083751091036713632e+00
2.096313974425489057e+00
2.096313974425489057e+00
2.083563585314493150e+00
2.083563585314493150e+00
2.040437269203771997e+00
2.063125461592455689e+00
2.063125461592455689e+00
2.053562669759208870e+00
2.061437910092470904e+00
2.061437910092470904e+00
2.067813104647969080e+00
2.067813104647969080e+00
1.993560838648640532e+00
2.131002533036286284e+00
2.131002533036286284e+00
2.098376537369914807e+00
2.087688711203345093e+00
2.087688711203345093e+00
2.071375713370158689e+00
2.071375713370158689e+00
2.038749717703787212e+00
2.046062440870388244e+00
2.046062440870388244e+00
2.093313882869960452e+00
2.093313882869960452e+00
2.078688436536759720e+00
2.032937040314951371e+00
2.032937040314951371e+00
2.051312601092562637e+00
2.051312601092562637e+00
2.053750175481429796e+00
2.077375896481215900e+00
2.077375896481215900e+00
2.076250862147892562e+00
2.063687978759117581e+00
2.063687978759117581e+00
2.070625690481276759e+00
2.070625690481276759e+00
2.079438459425641650e+00
2.086188665425580790e+00
2.086188665425580790e+00
2.074938322092349186e+00
2.074938322092349186e+00
2.065000518814661401e+00
2.084313608203375079e+00
2.084313608203375079e+00
2.095001434369945237e+00
2.051500106814783120e+00
2.051500106814783120e+00
2.041749809259315818e+00
2.041749809259315818e+00
2.040249763481551515e+00
2.062750450148014725e+00
2.062750450148014725e+00
2.072125736259041062e+00
2.072125736259041062e+00
2.074188299203466812e+00
2.067250587481307633e+00
2.067250587481307633e+00
2.065750541703543330e+00
2.065750541703543330e+00
2.072500747703482027e+00
2.051500106814783120e+00
2.051500106814783120e+00
2.026936857203894160e+00
2.026936857203894160e+00
2.037249671926022909e+00
2.080563493758964988e+00
2.080563493758964988e+00
2.094251411481063307e+00
2.094251411481063307e+00
2.089376262703329878e+00
2.120877224036378017e+00
2.120877224036378017e+00
2.076625873592333971e+00
2.037999694814905283e+00
2.037999694814905283e+00
2.060500381481368493e+00
2.060500381481368493e+00
2.077938413647877791e+00
2.069875667592394830e+00
2.069875667592394830e+00
2.080563493758964988e+00
2.080563493758964988e+00
2.053375164036988387e+00
2.060312875759148010e+00
2.060312875759148010e+00
2.062562944425794242e+00
2.062562944425794242e+00
2.063312967314676172e+00
2.070625690481276759e+00
2.070625690481276759e+00
2.058250312814721816e+00
2.058250312814721816e+00
2.052062623981445011e+00
2.050750083925901190e+00
2.050750083925901190e+00
2.043062349314859638e+00
2.077000885036774935e+00
2.077000885036774935e+00
2.074563310647907777e+00
2.074563310647907777e+00
2.055812738425855546e+00
2.065938047425763813e+00
2.065938047425763813e+00
2.054875209814752690e+00
2.054875209814752690e+00
2.031436994537187068e+00
2.048500015259254514e+00
2.048500015259254514e+00
2.073438276314584883e+00
2.076813379314554453e+00
2.076813379314554453e+00
2.067063081759087151e+00
2.067063081759087151e+00
2.064438001647999510e+00
2.060687887203588975e+00
2.060687887203588975e+00
2.069875667592394830e+00
2.069875667592394830e+00
2.054500198370311725e+00
2.045874935148167761e+00
2.045874935148167761e+00
2.041937314981536300e+00
2.041937314981536300e+00
2.060125370036927084e+00
2.068750633259071936e+00
2.068750633259071936e+00
2.061062898648029940e+00
2.054312692648091243e+00
2.054312692648091243e+00
2.065375530259102366e+00
2.065375530259102366e+00
2.081876033814508364e+00
2.058250312814721816e+00
2.058250312814721816e+00
2.055812738425855546e+00
2.055812738425855546e+00
2.062750450148014725e+00
2.052812646870326940e+00
2.052812646870326940e+00
2.039499740592669585e+00
2.041187292092654371e+00
2.041187292092654371e+00
2.057687795648060813e+00
2.057687795648060813e+00
2.066688070314646186e+00
2.066500564592425260e+00
2.066500564592425260e+00
2.068000610370189563e+00
2.068000610370189563e+00
2.081688528092287882e+00
2.057500289925840331e+00
2.057500289925840331e+00
2.048125003814813549e+00
2.048125003814813549e+00
2.065750541703543330e+00
2.060125370036927084e+00
2.060125370036927084e+00
2.052812646870326940e+00
2.052812646870326940e+00
2.085251136814477935e+00
2.060312875759148010e+00
2.060312875759148010e+00
2.045312417981505870e+00
2.073625782036805365e+00
2.073625782036805365e+00
2.066875576036866669e+00
2.066875576036866669e+00
2.041749809259315818e+00
2.048312509537034032e+00
2.048312509537034032e+00
2.069688161870173904e+00
2.069688161870173904e+00
2.075875850703451597e+00
2.067250587481307633e+00
2.067250587481307633e+00
2.073438276314584883e+00
2.073438276314584883e+00
2.052250129703665493e+00
2.050937589648121673e+00
2.050937589648121673e+00
2.064438001647999510e+00
2.063500473036897098e+00
2.063500473036897098e+00
2.050562578203680708e+00
2.050562578203680708e+00
2.053562669759208870e+00
2.047749992370372585e+00
2.047749992370372585e+00
2.053937681203650278e+00
2.053937681203650278e+00
2.055062715536973172e+00
2.050937589648121673e+00
2.050937589648121673e+00
2.068938138981292418e+00
2.068938138981292418e+00
2.073438276314584883e+00
2.069688161870173904e+00
2.069688161870173904e+00
2.063125461592455689e+00
2.063125461592455689e+00
2.059937864314706601e+00
2.053750175481429796e+00
2.053750175481429796e+00
2.053000152592547423e+00
2.053000152592547423e+00
2.052812646870326940e+00
2.064438001647999510e+00
2.064438001647999510e+00
2.067813104647969080e+00
2.073250770592364400e+00
2.073250770592364400e+00
2.065938047425763813e+00
2.065938047425763813e+00
2.072500747703482027e+00
2.077938413647877791e+00
2.077938413647877791e+00
2.081313516647846917e+00
2.081313516647846917e+00
2.041187292092654371e+00
2.035374614703817642e+00
2.035374614703817642e+00
2.053187658314767905e+00
2.053187658314767905e+00
2.064062990203558545e+00
2.051125095370342155e+00
2.051125095370342155e+00
2.063687978759117581e+00
2.063687978759117581e+00
2.068938138981292418e+00
2.060875392925809457e+00
2.060875392925809457e+00
2.062187932981353278e+00
2.072313241981261545e+00
2.072313241981261545e+00
2.071938230536820580e+00
2.071938230536820580e+00
2.065188024536881883e+00
2.049812555314798335e+00
2.049812555314798335e+00
2.063687978759117581e+00
2.071375713370158689e+00
2.071375713370158689e+00
2.061437910092470904e+00
2.064813013092440475e+00
2.064813013092440475e+00
2.072125736259041062e+00
2.053750175481429796e+00
2.053750175481429796e+00
2.052437635425885976e+00
2.052437635425885976e+00
2.033312051759392336e+00
2.040437269203771997e+00
2.040437269203771997e+00
2.056187749870296511e+00
2.056187749870296511e+00
2.069875667592394830e+00
2.076063356425672080e+00
2.076063356425672080e+00
2.070063173314615312e+00
2.070063173314615312e+00
2.063687978759117581e+00
2.064625507370219992e+00
2.064625507370219992e+00
2.054500198370311725e+00
2.046249946592608282e+00
2.046249946592608282e+00
2.066125553147984295e+00
2.066125553147984295e+00
2.074000793481246330e+00
2.072125736259041062e+00
2.072125736259041062e+00
2.070813196203497242e+00
2.070813196203497242e+00
2.067813104647969080e+00
2.065563035981322848e+00
2.065563035981322848e+00
2.065188024536881883e+00
2.054125186925870761e+00
2.054125186925870761e+00
2.057312784203619849e+00
2.057312784203619849e+00
2.057687795648060813e+00
2.062750450148014725e+00
2.062750450148014725e+00
2.057687795648060813e+00
2.057687795648060813e+00
2.055062715536973172e+00
2.035749626148258606e+00
2.035749626148258606e+00
2.047937498092593067e+00
2.047937498092593067e+00
2.058625324259163225e+00
2.083751091036713632e+00
2.083751091036713632e+00
2.101189123203222930e+00
2.052250129703665493e+00
2.052250129703665493e+00
2.046437452314828764e+00
2.062937955870235207e+00
2.062937955870235207e+00
2.059375347148045154e+00
2.068188116092410045e+00
2.068188116092410045e+00
2.058062807092501334e+00
2.058062807092501334e+00
2.060875392925809457e+00
2.072875759147922992e+00
2.072875759147922992e+00
2.079063447981200685e+00
2.079063447981200685e+00
2.081688528092287882e+00
2.069500656147953865e+00
2.069500656147953865e+00
2.063687978759117581e+00
2.063687978759117581e+00
2.050937589648121673e+00
2.044749900814844423e+00
2.044749900814844423e+00
2.053750175481429796e+00
2.072313241981261545e+00
2.072313241981261545e+00
2.073250770592364400e+00
2.073250770592364400e+00
2.055812738425855546e+00
2.060687887203588975e+00
2.060687887203588975e+00
2.061062898648029940e+00
2.061062898648029940e+00
2.053750175481429796e+00
2.060500381481368493e+00
2.060500381481368493e+00
2.039499740592669585e+00
2.039499740592669585e+00
2.082626056703390294e+00
2.090126285592211808e+00
2.090126285592211808e+00
2.093688894314401416e+00
2.075313333536790150e+00
2.075313333536790150e+00
2.049625049592577852e+00
2.049625049592577852e+00
2.027499374370555607e+00
2.024311777092806519e+00
2.024311777092806519e+00
2.017936582537308787e+00
2.017936582537308787e+00
2.039874752037110550e+00
2.065938047425763813e+00
2.065938047425763813e+00
2.053000152592547423e+00
2.053000152592547423e+00
2.100064088869899592e+00
2.037812189092684800e+00
2.037812189092684800e+00
2.100251594592120075e+00
2.089001251258888470e+00
2.089001251258888470e+00
2.078875942258980203e+00
2.078875942258980203e+00
2.065938047425763813e+00
2.074000793481246330e+00
2.074000793481246330e+00
2.066500564592425260e+00
2.066500564592425260e+00
2.065750541703543330e+00
2.071188207647938206e+00
2.071188207647938206e+00
2.070625690481276759e+00
2.070625690481276759e+00
2.061062898648029940e+00
2.049625049592577852e+00
2.049625049592577852e+00
2.060312875759148010e+00
2.069313150425733383e+00
2.069313150425733383e+00
2.080750999481185470e+00
2.080750999481185470e+00
2.058062807092501334e+00
2.059375347148045154e+00
2.059375347148045154e+00
2.061625415814691387e+00
2.061625415814691387e+00
2.052250129703665493e+00
2.057500289925840331e+00
2.057500289925840331e+00
2.075313333536790150e+00
2.075313333536790150e+00
2.077563402203436382e+00
2.072313241981261545e+00
2.072313241981261545e+00
2.065938047425763813e+00
2.065938047425763813e+00
2.064062990203558545e+00
2.065750541703543330e+00
2.065750541703543330e+00
2.070813196203497242e+00
2.070813196203497242e+00
2.058437818536942299e+00
2.053000152592547423e+00
2.053000152592547423e+00
2.071375713370158689e+00
2.080938505203405953e+00
2.080938505203405953e+00
2.081688528092287882e+00
2.081688528092287882e+00
2.061812921536912313e+00
2.058812829981383707e+00
2.058812829981383707e+00
2.055812738425855546e+00
2.055812738425855546e+00
2.074938322092349186e+00
2.070250679036835795e+00
2.070250679036835795e+00
2.061062898648029940e+00
2.067813104647969080e+00
2.067813104647969080e+00
2.076063356425672080e+00
2.076063356425672080e+00
1.979497909482100804e+00
2.077938413647877791e+00
2.077938413647877791e+00
2.075313333536790150e+00
2.075313333536790150e+00
2.063875484481338063e+00
2.059000335703604190e+00
2.059000335703604190e+00
2.077563402203436382e+00
2.077563402203436382e+00
2.083751091036713632e+00
2.077000885036774935e+00
2.077000885036774935e+00
2.075688344981231115e+00
2.075688344981231115e+00
2.070063173314615312e+00
2.074375804925687294e+00
2.074375804925687294e+00
2.068938138981292418e+00
2.068938138981292418e+00
2.054875209814752690e+00
2.052062623981445011e+00
2.052062623981445011e+00
2.053187658314767905e+00
2.062000427259132795e+00
2.062000427259132795e+00
2.076625873592333971e+00
2.076625873592333971e+00
2.066500564592425260e+00
2.055250221259193655e+00
2.055250221259193655e+00
2.060500381481368493e+00
2.060500381481368493e+00
2.072875759147922992e+00
2.070625690481276759e+00
2.070625690481276759e+00
2.077938413647877791e+00
2.077938413647877791e+00
2.063125461592455689e+00
2.058437818536942299e+00
2.058437818536942299e+00
2.077750907925656865e+00
2.077750907925656865e+00
2.075125827814569668e+00
2.056187749870296511e+00
2.056187749870296511e+00
2.059562852870265637e+00
2.063687978759117581e+00
2.063687978759117581e+00
2.075875850703451597e+00
2.075875850703451597e+00
2.044749900814844423e+00
2.045874935148167761e+00
2.045874935148167761e+00
2.044562395092623941e+00
2.044562395092623941e+00
2.043249855037080120e+00
2.042124820703756782e+00
2.042124820703756782e+00
2.057312784203619849e+00
2.057312784203619849e+00
2.077188390758995418e+00
2.071750724814600098e+00
2.071750724814600098e+00
2.070063173314615312e+00
2.070063173314615312e+00
2.082438550981169811e+00
2.069313150425733383e+00
2.069313150425733383e+00
2.067625598925748598e+00
2.059750358592486119e+00
2.059750358592486119e+00
2.056375255592516993e+00
2.056375255592516993e+00
2.068188116092410045e+00
2.068188116092410045e+00
2.068188116092410045e+00
2.068188116092410045e+00
2.068188116092410045e+00
2.060500381481368493e+00
2.059562852870265637e+00
2.059562852870265637e+00
2.065188024536881883e+00
2.065188024536881883e+00
2.061437910092470904e+00
2.061812921536912313e+00
2.061812921536912313e+00
2.056187749870296511e+00
2.063125461592455689e+00
2.063125461592455689e+00
2.075313333536790150e+00
2.075313333536790150e+00
2.079250953703421168e+00
2.084501113925596005e+00
2.084501113925596005e+00
2.063125461592455689e+00
2.063125461592455689e+00
2.061437910092470904e+00
2.052625141148106458e+00
2.052625141148106458e+00
2.052437635425885976e+00
2.052437635425885976e+00
2.056750267036957958e+00
2.066688070314646186e+00
2.066688070314646186e+00
2.064625507370219992e+00
2.064625507370219992e+00
2.072875759147922992e+00
2.057125278481399366e+00
2.057125278481399366e+00
2.062562944425794242e+00
2.052250129703665493e+00
2.052250129703665493e+00
2.057312784203619849e+00
2.057312784203619849e+00
2.063312967314676172e+00
2.072125736259041062e+00
2.072125736259041062e+00
2.067438093203528116e+00
2.067438093203528116e+00
2.068563127536851454e+00
2.060125370036927084e+00
2.060125370036927084e+00
2.079625965147862576e+00
2.068563127536851454e+00
2.068563127536851454e+00
2.060312875759148010e+00
2.060312875759148010e+00
2.053937681203650278e+00
2.065563035981322848e+00
2.065563035981322848e+00
2.063500473036897098e+00
2.063500473036897098e+00
2.070625690481276759e+00
2.074000793481246330e+00
2.074000793481246330e+00
2.075125827814569668e+00
2.075125827814569668e+00
2.078875942258980203e+00
2.074938322092349186e+00
2.074938322092349186e+00
2.055625232703635064e+00
2.063125461592455689e+00
2.063125461592455689e+00
2.052812646870326940e+00
2.052812646870326940e+00
2.051500106814783120e+00
2.062562944425794242e+00
2.062562944425794242e+00
2.071750724814600098e+00
2.071750724814600098e+00
2.072500747703482027e+00
2.058625324259163225e+00
2.058625324259163225e+00
2.057687795648060813e+00
2.057687795648060813e+00
2.067438093203528116e+00
2.075500839259010633e+00
2.075500839259010633e+00
2.089376262703329878e+00
2.089376262703329878e+00
2.089188756981108952e+00
2.062750450148014725e+00
2.062750450148014725e+00
2.053750175481429796e+00
2.059750358592486119e+00
2.059750358592486119e+00
2.057500289925840331e+00
2.057500289925840331e+00
2.053937681203650278e+00
2.061062898648029940e+00
2.061062898648029940e+00
2.061062898648029940e+00
2.061062898648029940e+00
2.066875576036866669e+00
2.070063173314615312e+00
2.070063173314615312e+00
2.063875484481338063e+00
2.063875484481338063e+00
2.062000427259132795e+00
2.062562944425794242e+00
2.062562944425794242e+00
2.064813013092440475e+00
2.064813013092440475e+00
2.062562944425794242e+00
2.073250770592364400e+00
2.073250770592364400e+00
2.077563402203436382e+00
2.075125827814569668e+00
2.075125827814569668e+00
2.078688436536759720e+00
2.078688436536759720e+00
2.075125827814569668e+00
2.069875667592394830e+00
2.069875667592394830e+00
2.076063356425672080e+00
2.076063356425672080e+00
2.075313333536790150e+00
2.067625598925748598e+00
2.067625598925748598e+00
2.043062349314859638e+00
2.043062349314859638e+00
2.053000152592547423e+00
2.059375347148045154e+00
2.059375347148045154e+00
2.052437635425885976e+00
2.052437635425885976e+00
2.068188116092410045e+00
2.063125461592455689e+00
2.063125461592455689e+00
2.058625324259163225e+00
2.063312967314676172e+00
2.063312967314676172e+00
2.077938413647877791e+00
2.077938413647877791e+00
2.070625690481276759e+00
2.061812921536912313e+00
2.061812921536912313e+00
2.067625598925748598e+00
2.067625598925748598e+00
2.068750633259071936e+00
2.058250312814721816e+00
2.058250312814721816e+00
2.065000518814661401e+00
2.065000518814661401e+00
2.056937772759178884e+00
2.046624958037049247e+00
2.046624958037049247e+00
2.069688161870173904e+00
2.070813196203497242e+00
2.070813196203497242e+00
2.061625415814691387e+00
2.061625415814691387e+00
2.080750999481185470e+00
2.068938138981292418e+00
2.068938138981292418e+00
2.053750175481429796e+00
2.053750175481429796e+00
2.070250679036835795e+00
2.070438184759056277e+00
2.070438184759056277e+00
2.069125644703512901e+00
2.056375255592516993e+00
2.056375255592516993e+00
2.044749900814844423e+00
2.044749900814844423e+00
2.039124729148228621e+00
2.051687612537003602e+00
2.051687612537003602e+00
2.066313058870204777e+00
2.066313058870204777e+00
2.067625598925748598e+00
2.081313516647846917e+00
2.081313516647846917e+00
2.066313058870204777e+00
2.064438001647999510e+00
2.064438001647999510e+00
2.063875484481338063e+00
2.063875484481338063e+00
2.056750267036957958e+00
2.065188024536881883e+00
2.065188024536881883e+00
2.068563127536851454e+00
2.068563127536851454e+00
2.046249946592608282e+00
2.055625232703635064e+00
2.055625232703635064e+00
2.064438001647999510e+00
2.064438001647999510e+00
2.065375530259102366e+00
2.077000885036774935e+00
2.077000885036774935e+00
2.091438825647755628e+00
2.077188390758995418e+00
2.077188390758995418e+00
2.055437726981414581e+00
2.055437726981414581e+00
2.057687795648060813e+00
2.055250221259193655e+00
2.055250221259193655e+00
2.066125553147984295e+00
2.066125553147984295e+00
2.067813104647969080e+00
2.064250495925779028e+00
2.064250495925779028e+00
2.065938047425763813e+00
2.065938047425763813e+00
2.051125095370342155e+00
2.031249488814966586e+00
2.031249488814966586e+00
2.038187200537125765e+00
2.038187200537125765e+00
2.062187932981353278e+00
2.075875850703451597e+00
2.075875850703451597e+00
2.071188207647938206e+00
2.063312967314676172e+00
2.063312967314676172e+00
2.061250404370250422e+00
2.061250404370250422e+00
2.063312967314676172e+00
2.057500289925840331e+00
2.057500289925840331e+00
2.063875484481338063e+00
2.063875484481338063e+00
2.077563402203436382e+00
2.089563768425550361e+00
2.089563768425550361e+00
2.088813745536667987e+00
2.088813745536667987e+00
2.073063264870143918e+00
2.041937314981536300e+00
2.041937314981536300e+00
2.043062349314859638e+00
2.050000061037018817e+00
2.050000061037018817e+00
2.053187658314767905e+00
2.053187658314767905e+00
2.055437726981414581e+00
2.074563310647907777e+00
2.074563310647907777e+00
2.065750541703543330e+00
2.065750541703543330e+00
2.068000610370189563e+00
2.079625965147862576e+00
2.079625965147862576e+00
2.088813745536667987e+00
2.073438276314584883e+00
2.073438276314584883e+00
2.058625324259163225e+00
2.058625324259163225e+00
2.066688070314646186e+00
2.072500747703482027e+00
2.072500747703482027e+00
2.061062898648029940e+00
2.061062898648029940e+00
2.069500656147953865e+00
2.070625690481276759e+00
2.070625690481276759e+00
2.059187841425824672e+00
2.059187841425824672e+00
2.063500473036897098e+00
2.066688070314646186e+00
2.066688070314646186e+00
2.065938047425763813e+00
2.065938047425763813e+00
2.065188024536881883e+00
2.068750633259071936e+00
2.068750633259071936e+00
2.061062898648029940e+00
2.061062898648029940e+00
2.031249488814966586e+00
2.015686513870662555e+00
2.015686513870662555e+00
2.025061799981688893e+00
2.066688070314646186e+00
2.066688070314646186e+00
2.067813104647969080e+00
2.067813104647969080e+00
2.064062990203558545e+00
2.074938322092349186e+00
2.074938322092349186e+00
2.110001892147587377e+00
2.111126926480910715e+00
2.111126926480910715e+00
2.088626239814447505e+00
2.088626239814447505e+00
2.073813287759025847e+00
2.054125186925870761e+00
2.054125186925870761e+00
2.038187200537125765e+00
2.038187200537125765e+00
2.034062074648274265e+00
2.056750267036957958e+00
2.056750267036957958e+00
2.080000976592303541e+00
2.080000976592303541e+00
2.080000976592303541e+00
2.061625415814691387e+00
2.061625415814691387e+00
2.049812555314798335e+00
2.049812555314798335e+00
2.063125461592455689e+00
2.060687887203588975e+00
2.060687887203588975e+00
2.064062990203558545e+00
2.072500747703482027e+00
2.072500747703482027e+00
2.070625690481276759e+00
2.070625690481276759e+00
2.058062807092501334e+00
2.048875026703695923e+00
2.048875026703695923e+00
2.059375347148045154e+00
2.059375347148045154e+00
2.044187383648182976e+00
2.061250404370250422e+00
2.061250404370250422e+00
2.065563035981322848e+00
2.065563035981322848e+00
2.068375621814630971e+00
2.063500473036897098e+00
2.063500473036897098e+00
2.065563035981322848e+00
2.061250404370250422e+00
2.061250404370250422e+00
2.067250587481307633e+00
2.067250587481307633e+00
2.057125278481399366e+00
2.048312509537034032e+00
2.048312509537034032e+00
2.047937498092593067e+00
2.047937498092593067e+00
2.072313241981261545e+00
2.075688344981231115e+00
2.075688344981231115e+00
2.071938230536820580e+00
2.071938230536820580e+00
2.053937681203650278e+00
2.064438001647999510e+00
2.064438001647999510e+00
2.050750083925901190e+00
2.050750083925901190e+00
2.042124820703756782e+00
2.012686422315133949e+00
2.012686422315133949e+00
2.025624317148350340e+00
2.029749443037202283e+00
2.029749443037202283e+00
2.083563585314493150e+00
2.083563585314493150e+00
2.119564683980834197e+00
2.129127475814081016e+00
2.129127475814081016e+00
2.095563951536606684e+00
2.095563951536606684e+00
2.083563585314493150e+00
2.069125644703512901e+00
2.069125644703512901e+00
2.064062990203558545e+00
2.064062990203558545e+00
2.067813104647969080e+00
2.056562761314737475e+00
2.056562761314737475e+00
2.071375713370158689e+00
2.073813287759025847e+00
2.073813287759025847e+00
2.053187658314767905e+00
2.053187658314767905e+00
2.056375255592516993e+00
2.051875118259224084e+00
2.051875118259224084e+00
2.031436994537187068e+00
2.031436994537187068e+00
2.025436811426129857e+00
2.033874568926053783e+00
2.033874568926053783e+00
2.053187658314767905e+00
2.053187658314767905e+00
2.074188299203466812e+00
2.080938505203405953e+00
2.080938505203405953e+00
2.093688894314401416e+00
2.093688894314401416e+00
2.092563859981078966e+00
2.064625507370219992e+00
2.064625507370219992e+00
2.044562395092623941e+00
2.044562395092623941e+00
2.070625690481276759e+00
2.082251045258949329e+00
2.082251045258949329e+00
2.075313333536790150e+00
2.078688436536759720e+00
2.078688436536759720e+00
2.046812463759269729e+00
2.046812463759269729e+00
2.040999786370433888e+00
2.046999969481490211e+00
2.046999969481490211e+00
2.047187475203710694e+00
2.047187475203710694e+00
2.055625232703635064e+00
2.071750724814600098e+00
2.071750724814600098e+00
2.087688711203345093e+00
2.087688711203345093e+00
2.081876033814508364e+00
2.046437452314828764e+00
2.046437452314828764e+00
2.052625141148106458e+00
2.052625141148106458e+00
2.015686513870662555e+00
2.031624500259407551e+00
2.031624500259407551e+00
2.058625324259163225e+00
2.081876033814508364e+00
2.081876033814508364e+00
2.083751091036713632e+00
2.083751091036713632e+00
2.060500381481368493e+00
2.062562944425794242e+00
2.062562944425794242e+00
2.043062349314859638e+00
2.043062349314859638e+00
2.051125095370342155e+00
2.056937772759178884e+00
2.056937772759178884e+00
2.063687978759117581e+00
2.063687978759117581e+00
2.061062898648029940e+00
2.074938322092349186e+00
2.074938322092349186e+00
2.052812646870326940e+00
2.059937864314706601e+00
2.059937864314706601e+00
2.092376354258858040e+00
2.092376354258858040e+00
2.121814752647480873e+00
2.127814935758537640e+00
2.127814935758537640e+00
2.101376628925443413e+00
2.101376628925443413e+00
2.083376079592272667e+00
2.070063173314615312e+00
2.070063173314615312e+00
2.043624866481521085e+00
2.050000061037018817e+00
2.050000061037018817e+00
2.043624866481521085e+00
2.043624866481521085e+00
2.057125278481399366e+00
2.070625690481276759e+00
2.070625690481276759e+00
2.047374980925931620e+00
2.047374980925931620e+00
2.024686788537247928e+00
2.032374523148289480e+00
2.032374523148289480e+00
2.078313425092318756e+00
2.078313425092318756e+00
2.075688344981231115e+00
2.014373973815118735e+00
2.014373973815118735e+00
2.006873744926298109e+00
2.006873744926298109e+00
2.075313333536790150e+00
2.068375621814630971e+00
2.068375621814630971e+00
2.050937589648121673e+00
2.053562669759208870e+00
2.053562669759208870e+00
2.094813928647724754e+00
2.094813928647724754e+00
2.083376079592272667e+00
2.037062166203802427e+00
2.037062166203802427e+00
2.045874935148167761e+00
2.045874935148167761e+00
2.077188390758995418e+00
2.086563676870021755e+00
2.086563676870021755e+00
2.098376537369914807e+00
2.092751365703299449e+00
2.092751365703299449e+00
2.113564500869777874e+00
2.113564500869777874e+00
2.070813196203497242e+00
2.042499832148198191e+00
2.042499832148198191e+00
2.054875209814752690e+00
2.054875209814752690e+00
2.056187749870296511e+00
2.049437543870357370e+00
2.049437543870357370e+00
2.074563310647907777e+00
2.074563310647907777e+00
2.091063814203314664e+00
2.081876033814508364e+00
2.081876033814508364e+00
2.060687887203588975e+00
2.051687612537003602e+00
2.051687612537003602e+00
2.039312234870449103e+00
2.039312234870449103e+00
2.052625141148106458e+00
2.082438550981169811e+00
2.082438550981169811e+00
2.061062898648029940e+00
2.061062898648029940e+00
2.080188482314524023e+00
2.080750999481185470e+00
2.080750999481185470e+00
2.057875301370280852e+00
2.057875301370280852e+00
2.057875301370280852e+00
2.043999877925962494e+00
2.043999877925962494e+00
2.043062349314859638e+00
2.043062349314859638e+00
2.048875026703695923e+00
2.049625049592577852e+00
2.049625049592577852e+00
2.064813013092440475e+00
2.064813013092440475e+00
2.058062807092501334e+00
2.054875209814752690e+00
2.054875209814752690e+00
2.060312875759148010e+00
2.100251594592120075e+00
2.100251594592120075e+00
2.097063997314370987e+00
2.097063997314370987e+00
2.033874568926053783e+00
2.063687978759117581e+00
2.063687978759117581e+00
2.126502395702994264e+00
2.126502395702994264e+00
2.075500839259010633e+00
2.047937498092593067e+00
2.047937498092593067e+00
2.046249946592608282e+00
2.046249946592608282e+00
2.075875850703451597e+00
2.096876491592150504e+00
2.096876491592150504e+00
2.098564043092135289e+00
2.065750541703543330e+00
2.065750541703543330e+00
2.034437086092715230e+00
2.034437086092715230e+00
2.015123996704001108e+00
2.047562486648152102e+00
2.047562486648152102e+00
2.082813562425611220e+00
2.110189397869807859e+00
2.110189397869807859e+00
2.070250679036835795e+00
2.051875118259224084e+00
2.051875118259224084e+00
2.063875484481338063e+00
2.094251411481063307e+00
2.094251411481063307e+00
2.103251686147648680e+00
2.103251686147648680e+00
2.047937498092593067e+00
2.045312417981505870e+00
2.045312417981505870e+00
2.060687887203588975e+00
2.060687887203588975e+00
2.052625141148106458e+00
2.046812463759269729e+00
2.046812463759269729e+00
2.050750083925901190e+00
2.050750083925901190e+00
2.055062715536973172e+00
2.062000427259132795e+00
2.062000427259132795e+00
2.075688344981231115e+00
2.089751274147770843e+00
2.089751274147770843e+00
2.110564409314249268e+00
2.110564409314249268e+00
2.069688161870173904e+00
2.068000610370189563e+00
2.068000610370189563e+00
2.073063264870143918e+00
2.073063264870143918e+00
2.080375988036744506e+00
2.063500473036897098e+00
2.063500473036897098e+00
2.074188299203466812e+00
2.052062623981445011e+00
2.052062623981445011e+00
2.063875484481338063e+00
2.063875484481338063e+00
2.065750541703543330e+00
2.084501113925596005e+00
2.084501113925596005e+00
2.046437452314828764e+00
2.046437452314828764e+00
1.998810998870815148e+00
2.029561937314981801e+00
2.029561937314981801e+00
2.031812005981628033e+00
2.031812005981628033e+00
2.074000793481246330e+00
2.100251594592120075e+00
2.100251594592120075e+00
2.116939603869747000e+00
2.068375621814630971e+00
2.068375621814630971e+00
2.070438184759056277e+00
2.066875576036866669e+00
2.066875576036866669e+00
2.087126194036683202e+00
2.095751457258827610e+00
2.095751457258827610e+00
2.135690176091799675e+00
2.135690176091799675e+00
2.109251869258705447e+00
2.071000701925717724e+00
2.071000701925717724e+00
2.049250038148136888e+00
2.049250038148136888e+00
2.068188116092410045e+00
2.054875209814752690e+00
2.054875209814752690e+00
2.044374889370403459e+00
2.044374889370403459e+00
2.043624866481521085e+00
2.058625324259163225e+00
2.058625324259163225e+00
2.088063722647786058e+00
2.091813837092196593e+00
2.091813837092196593e+00
2.075125827814569668e+00
2.075125827814569668e+00
2.025811822870570822e+00
2.037437177648243392e+00
2.037437177648243392e+00
2.067063081759087151e+00
2.067063081759087151e+00
2.045687429425947279e+00
2.049437543870357370e+00
2.049437543870357370e+00
2.049437543870357370e+00
2.049437543870357370e+00
2.051875118259224084e+00
2.031812005981628033e+00
2.031812005981628033e+00
2.041562303537095335e+00
2.041562303537095335e+00
2.133065095980712478e+00
2.182566606646931362e+00
2.182566606646931362e+00
2.140752830591753586e+00
2.052625141148106458e+00
2.052625141148106458e+00
2.041937314981536300e+00
2.041937314981536300e+00
1.973872737815485001e+00
2.092001342814417075e+00
2.092001342814417075e+00
2.065938047425763813e+00
2.041562303537095335e+00
2.041562303537095335e+00
2.042312326425977265e+00
2.042312326425977265e+00
2.039687246314890068e+00
2.078688436536759720e+00
2.078688436536759720e+00
2.105126743369853504e+00
2.105126743369853504e+00
2.093501388592180934e+00
2.053187658314767905e+00
2.053187658314767905e+00
2.020186651203955464e+00
2.020186651203955464e+00
2.064813013092440475e+00
2.074563310647907777e+00
2.074563310647907777e+00
2.099314065981017663e+00
2.099314065981017663e+00
2.093313882869960452e+00
2.094063905758842381e+00
2.094063905758842381e+00
2.086376171147801273e+00
2.093126377147739969e+00
2.093126377147739969e+00
2.089376262703329878e+00
2.089376262703329878e+00
2.086376171147801273e+00
2.055062715536973172e+00
2.055062715536973172e+00
2.035749626148258606e+00
2.035749626148258606e+00
2.049812555314798335e+00
2.053187658314767905e+00
2.053187658314767905e+00
2.055437726981414581e+00
2.055437726981414581e+00
2.057125278481399366e+00
2.039312234870449103e+00
2.039312234870449103e+00
2.062187932981353278e+00
2.087313699758903685e+00
2.087313699758903685e+00
2.100626606036561483e+00
2.100626606036561483e+00
2.078688436536759720e+00
2.077188390758995418e+00
2.077188390758995418e+00
2.105314249092073986e+00
2.105314249092073986e+00
2.082438550981169811e+00
2.125564867091891408e+00
2.125564867091891408e+00
2.107189306314279698e+00
2.022249214148381213e+00
2.022249214148381213e+00
1.984935575426496124e+00
1.984935575426496124e+00
2.053562669759208870e+00
2.008748802148503376e+00
2.008748802148503376e+00
2.066688070314646186e+00
2.066688070314646186e+00
2.051875118259224084e+00
2.046624958037049247e+00
2.046624958037049247e+00
2.056375255592516993e+00
2.056375255592516993e+00
2.148440565202795582e+00
2.141127842036194995e+00
2.141127842036194995e+00
2.079625965147862576e+00
2.079625965147862576e+00
2.041187292092654371e+00
2.043624866481521085e+00
2.043624866481521085e+00
2.120689718314157535e+00
2.120689718314157535e+00
2.110001892147587377e+00
2.037624683370464318e+00
2.037624683370464318e+00
1.969185094759971832e+00
2.010998870815149164e+00
2.010998870815149164e+00
2.103626697592089645e+00
2.103626697592089645e+00
2.139440290536210654e+00
2.076063356425672080e+00
2.076063356425672080e+00
2.051125095370342155e+00
2.074000793481246330e+00
2.074000793481246330e+00
2.097814020203253360e+00
2.097814020203253360e+00
2.076813379314554453e+00
2.031249488814966586e+00
2.031249488814966586e+00
2.056000244148076028e+00
2.056000244148076028e+00
2.088626239814447505e+00
2.095376445814386202e+00
2.095376445814386202e+00
2.050750083925901190e+00
2.050750083925901190e+00
1.946871913815729327e+00
1.985310586870937088e+00
1.985310586870937088e+00
2.172066286202582130e+00
2.172066286202582130e+00
2.226067934202093479e+00
2.148065553758354618e+00
2.148065553758354618e+00
2.056187749870296511e+00
2.056187749870296511e+00
2.048687520981474997e+00
2.078125919370098273e+00
2.078125919370098273e+00
2.083563585314493150e+00
2.072875759147922992e+00
2.072875759147922992e+00
2.065563035981322848e+00
2.065563035981322848e+00
2.032562028870509963e+00
2.088251228370006540e+00
2.088251228370006540e+00
2.083563585314493150e+00
2.083563585314493150e+00
2.098751548814355772e+00
2.059750358592486119e+00
2.059750358592486119e+00
2.038562211981566730e+00
2.038562211981566730e+00
1.977622852259895758e+00
1.992623310037537676e+00
1.992623310037537676e+00
2.043437360759300603e+00
2.043437360759300603e+00
2.075688344981231115e+00
2.125002349925229961e+00
2.125002349925229961e+00
2.121439741203039464e+00
2.113752006591998356e+00
2.113752006591998356e+00
2.056750267036957958e+00
2.056750267036957958e+00
2.080750999481185470e+00
2.046812463759269729e+00
2.046812463759269729e+00
2.046812463759269729e+00
2.046812463759269729e+00
2.033499557481612818e+00
2.053187658314767905e+00
2.053187658314767905e+00
2.061625415814691387e+00
2.061625415814691387e+00
2.057500289925840331e+00
2.064625507370219992e+00
2.064625507370219992e+00
2.059937864314706601e+00
2.075688344981231115e+00
2.075688344981231115e+00
2.092188848536637558e+00
2.092188848536637558e+00
2.079063447981200685e+00
2.027311868648335125e+00
2.027311868648335125e+00
2.095751457258827610e+00
2.095751457258827610e+00
2.156690816980498582e+00
2.067625598925748598e+00
2.067625598925748598e+00
2.039312234870449103e+00
2.039312234870449103e+00
2.029186925870540392e+00
2.028061891537217498e+00
2.028061891537217498e+00
2.031999511703848516e+00
2.031999511703848516e+00
2.080000976592303541e+00
2.109814386425366894e+00
2.109814386425366894e+00
2.074750816370128703e+00
2.059187841425824672e+00
2.059187841425824672e+00
2.146190496536149350e+00
2.146190496536149350e+00
2.070063173314615312e+00
2.061250404370250422e+00
2.061250404370250422e+00
2.065938047425763813e+00
2.065938047425763813e+00
2.104189214758751536e+00
2.117502121036408447e+00
2.117502121036408447e+00
2.043812372203741567e+00
2.074375804925687294e+00
2.074375804925687294e+00
2.081688528092287882e+00
2.081688528092287882e+00
1.980435438093203437e+00
2.125564867091891408e+00
2.125564867091891408e+00
2.144127933591723156e+00
2.144127933591723156e+00
2.136627704702902530e+00
2.068750633259071936e+00
2.068750633259071936e+00
2.034624591814935712e+00
2.034624591814935712e+00
2.002186101870784718e+00
1.967497543259987047e+00
1.967497543259987047e+00
2.035187108981597159e+00
2.035187108981597159e+00
2.037437177648243392e+00
2.044187383648182976e+00
2.044187383648182976e+00
2.087876216925565576e+00
2.122002258369701355e+00
2.122002258369701355e+00
2.127064912869655711e+00
2.127064912869655711e+00
2.102126651814325342e+00
2.073063264870143918e+00
2.073063264870143918e+00
2.037437177648243392e+00
2.037437177648243392e+00
2.031249488814966586e+00
2.063875484481338063e+00
2.063875484481338063e+00
2.110001892147587377e+00
2.110001892147587377e+00
2.046624958037049247e+00
2.051312601092562637e+00
2.051312601092562637e+00
2.181066560869167059e+00
2.181066560869167059e+00
2.159690908536027187e+00
2.078688436536759720e+00
2.078688436536759720e+00
2.009123813592944341e+00
1.983810541093173230e+00
1.983810541093173230e+00
2.006498733481856700e+00
2.006498733481856700e+00
2.040437269203771997e+00
2.075500839259010633e+00
2.075500839259010633e+00
2.101564134647663895e+00
2.101564134647663895e+00
2.062375438703573760e+00
2.118064638203069894e+00
2.118064638203069894e+00
2.047749992370372585e+00
2.047749992370372585e+00
2.017936582537308787e+00
2.107564317758720662e+00
2.107564317758720662e+00
2.125752372814111890e+00
2.125752372814111890e+00
2.152753196813867564e+00
2.083751091036713632e+00
2.083751091036713632e+00
2.051875118259224084e+00
2.067063081759087151e+00
2.067063081759087151e+00
2.004811181981871915e+00
2.004811181981871915e+00
2.041749809259315818e+00
2.134940153202917745e+00
2.134940153202917745e+00
2.051312601092562637e+00
2.051312601092562637e+00
2.073063264870143918e+00
2.098001525925473842e+00
2.098001525925473842e+00
2.069500656147953865e+00
2.069500656147953865e+00
2.045874935148167761e+00
2.075875850703451597e+00
2.075875850703451597e+00
2.086188665425580790e+00
2.086188665425580790e+00
2.058250312814721816e+00
2.040999786370433888e+00
2.040999786370433888e+00
2.080375988036744506e+00
2.119002166814172750e+00
2.119002166814172750e+00
2.081876033814508364e+00
2.081876033814508364e+00
2.006873744926298109e+00
1.985498092593157793e+00
1.985498092593157793e+00
1.965622486037782002e+00
2.076625873592333971e+00
2.076625873592333971e+00
2.110376903592028786e+00
2.088813745536667987e+00
2.088813745536667987e+00
2.170191228980376863e+00
2.170191228980376863e+00
2.163066011535996758e+00
2.120314706869716570e+00
2.120314706869716570e+00
2.044562395092623941e+00
2.152378185369426600e+00
2.152378185369426600e+00
2.008561296426282894e+00
2.008561296426282894e+00
2.047374980925931620e+00
2.023561754203924590e+00
2.023561754203924590e+00
1.954934659871212066e+00
1.954934659871212066e+00
2.051687612537003602e+00
2.152190679647205673e+00
2.152190679647205673e+00
2.135877681814020157e+00
1.992623310037537676e+00
1.992623310037537676e+00
2.104939237647633021e+00
2.104939237647633021e+00
2.098939054536576698e+00
2.073438276314584883e+00
2.073438276314584883e+00
2.131190038758506766e+00
2.131190038758506766e+00
2.084501113925596005e+00
2.043437360759300603e+00
2.043437360759300603e+00
2.043249855037080120e+00
2.043249855037080120e+00
2.089376262703329878e+00
2.072313241981261545e+00
2.072313241981261545e+00
2.034624591814935712e+00
2.034624591814935712e+00
2.100064088869899592e+00
2.164753563035981099e+00
2.164753563035981099e+00
2.202817224646748340e+00
2.169628711813714972e+00
2.169628711813714972e+00
2.037999694814905283e+00
2.037999694814905283e+00
1.954747154148991584e+00
1.988310678426465694e+00
1.988310678426465694e+00
2.051687612537003602e+00
2.113001983703115982e+00
2.113001983703115982e+00
2.046062440870388244e+00
1.967685048982207752e+00
1.967685048982207752e+00
1.958872280037843083e+00
1.958872280037843083e+00
2.111314432203131197e+00
2.075125827814569668e+00
2.075125827814569668e+00
2.137940244758446351e+00
2.182004089480269915e+00
2.182004089480269915e+00
2.114877040925321250e+00
2.114877040925321250e+00
2.087313699758903685e+00
2.143377910702841227e+00
2.143377910702841227e+00
2.047562486648152102e+00
2.047562486648152102e+00
2.039874752037110550e+00
2.108689352092044000e+00
2.108689352092044000e+00
2.129689992980742907e+00
2.036874660481581945e+00
2.036874660481581945e+00
2.110001892147587377e+00
2.110001892147587377e+00
2.109064363536484965e+00
2.165316080202642990e+00
2.165316080202642990e+00
1.981935483870967740e+00
1.981935483870967740e+00
2.003873653370769503e+00
2.030124454481643248e+00
2.030124454481643248e+00
2.117314615314187964e+00
2.117314615314187964e+00
2.157440839869380955e+00
2.065750541703543330e+00
2.065750541703543330e+00
1.920808618427076064e+00
1.920808618427076064e+00
1.961497360148930280e+00
2.089563768425550361e+00
2.089563768425550361e+00
2.118252143925290376e+00
2.142252876369517889e+00
2.142252876369517889e+00
2.251006195257423848e+00
2.251006195257423848e+00
2.172066286202582130e+00
2.097251503036591469e+00
2.097251503036591469e+00
2.047749992370372585e+00
2.047749992370372585e+00
2.153878231147190458e+00
2.065750541703543330e+00
2.065750541703543330e+00
2.016811548203985893e+00
2.016811548203985893e+00
2.020186651203955464e+00
2.076625873592333971e+00
2.076625873592333971e+00
2.116002075258644588e+00
2.116002075258644588e+00
2.106626789147617806e+00
2.075875850703451597e+00
2.075875850703451597e+00
1.952684591204565612e+00
1.978747886593218652e+00
1.978747886593218652e+00
2.057500289925840331e+00
2.057500289925840331e+00
2.005936216315195253e+00
1.955684682760093995e+00
1.955684682760093995e+00
2.080750999481185470e+00
2.135127658925138228e+00
2.135127658925138228e+00
2.183129123813593253e+00
2.183129123813593253e+00
2.139815301980651618e+00
2.054500198370311725e+00
2.054500198370311725e+00
1.872244636371959814e+00
1.872244636371959814e+00
2.003873653370769503e+00
2.233193151646474028e+00
2.233193151646474028e+00
2.220067751091036712e+00
2.220067751091036712e+00
2.106064271980956359e+00
2.206379833368938392e+00
2.206379833368938392e+00
2.081688528092287882e+00
2.081688528092287882e+00
1.951184545426801309e+00
1.870744590594195511e+00
1.870744590594195511e+00
1.932433973204748634e+00
2.190441846980193397e+00
2.190441846980193397e+00
2.238255806146427940e+00
2.238255806146427940e+00
2.191191869869075770e+00
2.114689535203100768e+00
2.114689535203100768e+00
2.037999694814905283e+00
2.037999694814905283e+00
1.993185827204199345e+00
1.939371684926908257e+00
1.939371684926908257e+00
1.945934385204626693e+00
1.945934385204626693e+00
2.157815851313821920e+00
2.173191320535905025e+00
2.173191320535905025e+00
2.247256080813012868e+00
1.962997405926694583e+00
1.962997405926694583e+00
2.109251869258705447e+00
2.109251869258705447e+00
2.199254615924558287e+00
1.912558366649372843e+00
1.912558366649372843e+00
2.227942991424298746e+00
2.227942991424298746e+00
2.125002349925229961e+00
2.111126926480910715e+00
2.111126926480910715e+00
2.078688436536759720e+00
2.078688436536759720e+00
2.120689718314157535e+00
2.033312051759392336e+00
2.033312051759392336e+00
1.976122806482131455e+00
1.976122806482131455e+00
2.082626056703390294e+00
2.064813013092440475e+00
2.064813013092440475e+00
2.040062257759331033e+00
2.077375896481215900e+00
2.077375896481215900e+00
2.109814386425366894e+00
2.109814386425366894e+00
2.139252784813989727e+00
2.004248664815210468e+00
2.004248664815210468e+00
1.999561021759697299e+00
1.999561021759697299e+00
2.058250312814721816e+00
2.098189031647694325e+00
2.098189031647694325e+00
2.031061983092746104e+00
2.031061983092746104e+00
2.095751457258827610e+00
2.049250038148136888e+00
2.049250038148136888e+00
2.113189489425336465e+00
2.113189489425336465e+00
2.260568987090670667e+00
2.194379467146824858e+00
2.194379467146824858e+00
2.019249122592852608e+00
2.019249122592852608e+00
1.963559923093356252e+00
2.007436262092959556e+00
2.007436262092959556e+00
2.089001251258888470e+00
2.089001251258888470e+00
2.067438093203528116e+00
2.082813562425611220e+00
2.082813562425611220e+00
2.011186376537369647e+00
2.146753013702810797e+00
2.146753013702810797e+00
2.054875209814752690e+00
2.054875209814752690e+00
2.048312509537034032e+00
2.130065004425183872e+00
2.130065004425183872e+00
2.035187108981597159e+00
2.035187108981597159e+00
2.155753288369396170e+00
2.084501113925596005e+00
2.084501113925596005e+00
1.971435163426618287e+00
1.971435163426618287e+00
2.154440748313852350e+00
2.132315073091830104e+00
2.132315073091830104e+00
2.093126377147739969e+00
1.963934934537797217e+00
1.963934934537797217e+00
1.925308755760368751e+00
1.925308755760368751e+00
2.083938596758934114e+00
2.101001617481002448e+00
2.101001617481002448e+00
2.025436811426129857e+00
2.025436811426129857e+00
2.237130771813104602e+00
2.122752281258583285e+00
2.122752281258583285e+00
2.022436719870601696e+00
2.022436719870601696e+00
2.055625232703635064e+00
1.980060426648762473e+00
1.980060426648762473e+00
1.994310861537522683e+00
1.994310861537522683e+00
2.167941160313730187e+00
2.108314340647602592e+00
2.108314340647602592e+00
2.053187658314767905e+00
2.197379558702353020e+00
2.197379558702353020e+00
1.997498458815271549e+00
1.997498458815271549e+00
2.104001709036531054e+00
2.103814203314310571e+00
2.103814203314310571e+00
2.054875209814752690e+00
2.054875209814752690e+00
2.153878231147190458e+00
2.139815301980651618e+00
2.139815301980651618e+00
2.120877224036378017e+00
2.120877224036378017e+00
2.044749900814844423e+00
1.960372325815607386e+00
1.960372325815607386e+00
1.980810449537644624e+00
1.965434980315561520e+00
1.965434980315561520e+00
1.989248207037568328e+00
1.989248207037568328e+00
2.064438001647999510e+00
2.254943815424054865e+00
2.254943815424054865e+00
2.185566698202459968e+00
2.185566698202459968e+00
2.109064363536484965e+00
1.985123081148716606e+00
1.985123081148716606e+00
2.033312051759392336e+00
2.034812097537156195e+00
2.034812097537156195e+00
1.920808618427076064e+00
1.920808618427076064e+00
1.999936033204138486e+00
2.152565691091647082e+00
2.152565691091647082e+00
2.179566515091402756e+00
2.179566515091402756e+00
2.190816858424634361e+00
2.093501388592180934e+00
2.093501388592180934e+00
1.970685140537736135e+00
1.970685140537736135e+00
2.079438459425641650e+00
2.051875118259224084e+00
2.051875118259224084e+00
2.040062257759331033e+00
2.133627613147373925e+00
2.133627613147373925e+00
2.245006012146367080e+00
2.245006012146367080e+00
2.174128849147007880e+00
2.054875209814752690e+00
2.054875209814752690e+00
1.894557817316202319e+00
1.894557817316202319e+00
2.060500381481368493e+00
2.002748619037446165e+00
2.002748619037446165e+00
2.035749626148258606e+00
2.035749626148258606e+00
2.106626789147617806e+00
2.100064088869899592e+00
2.100064088869899592e+00
2.196817041535691573e+00
2.196817041535691573e+00
2.036499649037140980e+00
2.004061159092989985e+00
2.004061159092989985e+00
2.123877315591906623e+00
2.108689352092044000e+00
2.108689352092044000e+00
2.028061891537217498e+00
2.028061891537217498e+00
1.963934934537797217e+00
1.947809442426831961e+00
1.947809442426831961e+00
1.980810449537644624e+00
1.980810449537644624e+00
2.048125003814813549e+00
2.096876491592150504e+00
2.096876491592150504e+00
2.117127109591967482e+00
2.117127109591967482e+00
2.214817590868861874e+00
2.227755485702078264e+00
2.227755485702078264e+00
2.016436536759544484e+00
2.016436536759544484e+00
1.973497726371044036e+00
2.095751457258827610e+00
2.095751457258827610e+00
2.149003082369457029e+00
2.149003082369457029e+00
2.083001068147831703e+00
2.048687520981474997e+00
2.048687520981474997e+00
2.155003265480513797e+00
2.068750633259071936e+00
2.068750633259071936e+00
2.044749900814844423e+00
2.044749900814844423e+00
2.104001709036531054e+00
2.095376445814386202e+00
2.095376445814386202e+00
2.117314615314187964e+00
2.117314615314187964e+00
2.039499740592669585e+00
1.984185552537614194e+00
1.984185552537614194e+00
1.979685415204321286e+00
1.979685415204321286e+00
1.978560380870998392e+00
2.019249122592852608e+00
2.019249122592852608e+00
2.060875392925809457e+00
2.060875392925809457e+00
2.021499191259499284e+00
2.114314523758659803e+00
2.114314523758659803e+00
2.265444135868404540e+00
2.194941984313486305e+00
2.194941984313486305e+00
2.139815301980651618e+00
2.139815301980651618e+00
1.992060792870876229e+00
2.006123722037415735e+00
2.006123722037415735e+00
2.065000518814661401e+00
2.065000518814661401e+00
2.052250129703665493e+00
2.047374980925931620e+00
2.047374980925931620e+00
2.003311136204107612e+00
2.003311136204107612e+00
2.041187292092654371e+00
2.047749992370372585e+00
2.047749992370372585e+00
2.031999511703848516e+00
2.128189947202978605e+00
2.128189947202978605e+00
2.147503036591693171e+00
2.147503036591693171e+00
2.165128574480422063e+00
2.132315073091830104e+00
2.132315073091830104e+00
2.062000427259132795e+00
2.062000427259132795e+00
2.001811090426343309e+00
2.058062807092501334e+00
2.058062807092501334e+00
2.064250495925779028e+00
2.064250495925779028e+00
2.036124637592700015e+00
2.105689260536515395e+00
2.105689260536515395e+00
2.136627704702902530e+00
2.080000976592303541e+00
2.080000976592303541e+00
2.047187475203710694e+00
2.047187475203710694e+00
2.035374614703817642e+00
2.012686422315133949e+00
2.012686422315133949e+00
2.054312692648091243e+00
2.054312692648091243e+00
2.064625507370219992e+00
2.065938047425763813e+00
2.065938047425763813e+00
2.110376903592028786e+00
2.110376903592028786e+00
2.085813653981139382e+00
2.040249763481551515e+00
2.040249763481551515e+00
2.071563219092379615e+00
2.046437452314828764e+00
2.046437452314828764e+00
2.073250770592364400e+00
2.073250770592364400e+00
2.091251319925535146e+00
2.058437818536942299e+00
2.058437818536942299e+00
2.026936857203894160e+00
2.026936857203894160e+00
2.051687612537003602e+00
2.169066194647053525e+00
2.169066194647053525e+00
2.111314432203131197e+00
2.111314432203131197e+00
2.062375438703573760e+00
2.072688253425702509e+00
2.072688253425702509e+00
2.045312417981505870e+00
2.045312417981505870e+00
2.133065095980712478e+00
2.126127384258552855e+00
2.126127384258552855e+00
2.042687337870418673e+00
1.961497360148930280e+00
1.961497360148930280e+00
2.011748893704031538e+00
2.011748893704031538e+00
2.065188024536881883e+00
2.101001617481002448e+00
2.101001617481002448e+00
2.117314615314187964e+00
2.117314615314187964e+00
2.042687337870418673e+00
2.089563768425550361e+00
2.089563768425550361e+00
2.098564043092135289e+00
2.098564043092135289e+00
2.078688436536759720e+00
2.039499740592669585e+00
2.039499740592669585e+00
2.005373699148533806e+00
2.005373699148533806e+00
1.998060975981932996e+00
2.082251045258949329e+00
2.082251045258949329e+00
2.142627887813959298e+00
2.122939786980803767e+00
2.122939786980803767e+00
2.071375713370158689e+00
2.071375713370158689e+00
2.119002166814172750e+00
2.086376171147801273e+00
2.086376171147801273e+00
2.078688436536759720e+00
2.078688436536759720e+00
2.058062807092501334e+00
2.102126651814325342e+00
2.102126651814325342e+00
2.092563859981078966e+00
2.092563859981078966e+00
2.016624042481765411e+00
2.009498825037385306e+00
2.009498825037385306e+00
2.053000152592547423e+00
2.053000152592547423e+00
2.095376445814386202e+00
2.099689077425458628e+00
2.099689077425458628e+00
2.057500289925840331e+00
2.088063722647786058e+00
2.088063722647786058e+00
2.092001342814417075e+00
2.092001342814417075e+00
2.078688436536759720e+00
2.107001800592058771e+00
2.107001800592058771e+00
2.091813837092196593e+00
2.091813837092196593e+00
2.042874843592639156e+00
2.016249031037324002e+00
2.016249031037324002e+00
2.014561479537339217e+00
2.014561479537339217e+00
2.057875301370280852e+00
2.109251869258705447e+00
2.109251869258705447e+00
2.121814752647480873e+00
2.121814752647480873e+00
2.028436902981658463e+00
2.029936948759422766e+00
2.029936948759422766e+00
2.076250862147892562e+00
2.094251411481063307e+00
2.094251411481063307e+00
2.101751640369884377e+00
2.101751640369884377e+00
2.102314157536546269e+00
2.078688436536759720e+00
2.078688436536759720e+00
2.073063264870143918e+00
2.081688528092287882e+00
2.081688528092287882e+00
2.093126377147739969e+00
2.093126377147739969e+00
2.083938596758934114e+00
2.077563402203436382e+00
2.077563402203436382e+00
2.073250770592364400e+00
2.073250770592364400e+00
2.091438825647755628e+00
2.069500656147953865e+00
2.069500656147953865e+00
2.064438001647999510e+00
2.064438001647999510e+00
2.059187841425824672e+00
2.111689443647572162e+00
2.111689443647572162e+00
2.155753288369396170e+00
2.044374889370403459e+00
2.044374889370403459e+00
1.974997772148808339e+00
1.974997772148808339e+00
2.062750450148014725e+00
2.090501297036652772e+00
2.090501297036652772e+00
2.019249122592852608e+00
2.019249122592852608e+00
1.986623126926480909e+00
2.093126377147739969e+00
2.093126377147739969e+00
2.084313608203375079e+00
2.084313608203375079e+00
2.069313150425733383e+00
2.044562395092623941e+00
2.044562395092623941e+00
2.017749076815088305e+00
2.056562761314737475e+00
2.056562761314737475e+00
2.056750267036957958e+00
2.056750267036957958e+00
2.057687795648060813e+00
2.078500930814539238e+00
2.078500930814539238e+00
2.108314340647602592e+00
2.108314340647602592e+00
2.081501022370067400e+00
2.055625232703635064e+00
2.055625232703635064e+00
2.069125644703512901e+00
2.069125644703512901e+00
2.046812463759269729e+00
2.043812372203741567e+00
2.043812372203741567e+00
2.015123996704001108e+00
2.015123996704001108e+00
2.102126651814325342e+00
2.213505050813318054e+00
2.213505050813318054e+00
2.194566972869045340e+00
2.155753288369396170e+00
2.155753288369396170e+00
2.085063631092257452e+00
2.085063631092257452e+00
1.992248298593096711e+00
1.982873012482070374e+00
1.982873012482070374e+00
2.026374340037232713e+00
2.026374340037232713e+00
2.103251686147648680e+00
2.070625690481276759e+00
2.070625690481276759e+00
2.050375072481459782e+00
2.050375072481459782e+00
2.072500747703482027e+00
2.075875850703451597e+00
2.075875850703451597e+00
2.045499923703726353e+00
2.045499923703726353e+00
2.034437086092715230e+00
2.036124637592700015e+00
2.036124637592700015e+00
2.039687246314890068e+00
2.059187841425824672e+00
2.059187841425824672e+00
2.081126010925626435e+00
2.081126010925626435e+00
2.078125919370098273e+00
2.131752555925168657e+00
2.131752555925168657e+00
2.040062257759331033e+00
2.040062257759331033e+00
2.051125095370342155e+00
2.052437635425885976e+00
2.052437635425885976e+00
2.032937040314951371e+00
2.032937040314951371e+00
2.066875576036866669e+00
2.075313333536790150e+00
2.075313333536790150e+00
2.026186834315011787e+00
2.026186834315011787e+00
2.019811639759514499e+00
2.021311685537278358e+00
2.021311685537278358e+00
2.134002624591814889e+00
2.152565691091647082e+00
2.152565691091647082e+00
2.073625782036805365e+00
2.073625782036805365e+00
2.034999603259376677e+00
1.981185460982085589e+00
1.981185460982085589e+00
2.055062715536973172e+00
2.055062715536973172e+00
2.200004638813440216e+00
2.160440931424909561e+00
2.160440931424909561e+00
2.057687795648060813e+00
2.057687795648060813e+00
2.016811548203985893e+00
2.098001525925473842e+00
2.098001525925473842e+00
2.126877407147435228e+00
2.126877407147435228e+00
2.075500839259010633e+00
2.053937681203650278e+00
2.053937681203650278e+00
2.029561937314981801e+00
2.011373882259590129e+00
2.011373882259590129e+00
2.022624225592822178e+00
2.022624225592822178e+00
2.051500106814783120e+00
2.061062898648029940e+00
2.061062898648029940e+00
2.087313699758903685e+00
2.087313699758903685e+00
2.108876857814264483e+00
2.104001709036531054e+00
2.104001709036531054e+00
2.112626972258675018e+00
2.112626972258675018e+00
2.076250862147892562e+00
2.055062715536973172e+00
2.055062715536973172e+00
1.979122898037659839e+00
1.979122898037659839e+00
1.941246742149113524e+00
2.053750175481429796e+00
2.053750175481429796e+00
2.090126285592211808e+00
2.104564226203192501e+00
2.104564226203192501e+00
2.025249305703909375e+00
2.025249305703909375e+00
2.019061616870632125e+00
2.094063905758842381e+00
2.094063905758842381e+00
2.152190679647205673e+00
2.152190679647205673e+00
2.129127475814081016e+00
2.079438459425641650e+00
2.079438459425641650e+00
2.056187749870296511e+00
2.087126194036683202e+00
2.087126194036683202e+00
2.062937955870235207e+00
2.062937955870235207e+00
2.036312143314920498e+00
2.040437269203771997e+00
2.040437269203771997e+00
2.063500473036897098e+00
2.063500473036897098e+00
2.081876033814508364e+00
2.113376995147556947e+00
2.113376995147556947e+00
2.128189947202978605e+00
2.128189947202978605e+00
2.054687704092532208e+00
2.038937223426007694e+00
2.038937223426007694e+00
1.998060975981932996e+00
1.998060975981932996e+00
2.014186468092898252e+00
2.048687520981474997e+00
2.048687520981474997e+00
2.070625690481276759e+00
2.070625690481276759e+00
2.062187932981353278e+00
2.064625507370219992e+00
2.064625507370219992e+00
2.049625049592577852e+00
2.042874843592639156e+00
2.042874843592639156e+00
2.077938413647877791e+00
2.077938413647877791e+00
2.078125919370098273e+00
2.074938322092349186e+00
2.074938322092349186e+00
2.094251411481063307e+00
2.094251411481063307e+00
2.106064271980956359e+00
2.092001342814417075e+00
2.092001342814417075e+00
2.113001983703115982e+00
2.113001983703115982e+00
2.050937589648121673e+00
2.013998962370677770e+00
2.013998962370677770e+00
2.015499008148442073e+00
2.015499008148442073e+00
2.001811090426343309e+00
2.057500289925840331e+00
2.057500289925840331e+00
2.052812646870326940e+00
2.053562669759208870e+00
2.053562669759208870e+00
2.077938413647877791e+00
2.077938413647877791e+00
2.070250679036835795e+00
2.074938322092349186e+00
2.074938322092349186e+00
2.099689077425458628e+00
2.099689077425458628e+00
2.061625415814691387e+00
2.053375164036988387e+00
2.053375164036988387e+00
2.045312417981505870e+00
2.045312417981505870e+00
2.049250038148136888e+00
2.062375438703573760e+00
2.062375438703573760e+00
2.041937314981536300e+00
2.041937314981536300e+00
2.047187475203710694e+00
2.069688161870173904e+00
2.069688161870173904e+00
2.079438459425641650e+00
2.129877498702963390e+00
2.129877498702963390e+00
2.097814020203253360e+00
2.097814020203253360e+00
2.074188299203466812e+00
2.037812189092684800e+00
2.037812189092684800e+00
2.067625598925748598e+00
2.067625598925748598e+00
2.069688161870173904e+00
2.065563035981322848e+00
2.065563035981322848e+00
2.079063447981200685e+00
2.079063447981200685e+00
2.072313241981261545e+00
2.074563310647907777e+00
2.074563310647907777e+00
2.069500656147953865e+00
2.046437452314828764e+00
2.046437452314828764e+00
2.071000701925717724e+00
2.071000701925717724e+00
2.040437269203771997e+00
2.053562669759208870e+00
2.053562669759208870e+00
2.076063356425672080e+00
2.073438276314584883e+00
2.073438276314584883e+00
2.048125003814813549e+00
2.077000885036774935e+00
2.077000885036774935e+00
2.071938230536820580e+00
2.071938230536820580e+00
2.089188756981108952e+00
2.084313608203375079e+00
2.084313608203375079e+00
2.041187292092654371e+00
2.041187292092654371e+00
2.015874019592883037e+00
2.032749534592730889e+00
2.032749534592730889e+00
2.048687520981474997e+00
2.073438276314584883e+00
2.073438276314584883e+00
2.053562669759208870e+00
2.053562669759208870e+00
2.075125827814569668e+00
2.079063447981200685e+00
2.079063447981200685e+00
2.099314065981017663e+00
2.099314065981017663e+00
2.103814203314310571e+00
2.063500473036897098e+00
2.063500473036897098e+00
2.069313150425733383e+00
2.085063631092257452e+00
2.085063631092257452e+00
2.085626148258918899e+00
2.085626148258918899e+00
2.032562028870509963e+00
2.021874202703940249e+00
2.021874202703940249e+00
2.012123905148472502e+00
2.012123905148472502e+00
2.015874019592883037e+00
2.078125919370098273e+00
2.078125919370098273e+00
2.101189123203222930e+00
2.101189123203222930e+00
2.079063447981200685e+00
2.083188573870052185e+00
2.083188573870052185e+00
2.062750450148014725e+00
2.062750450148014725e+00
2.052812646870326940e+00
2.042312326425977265e+00
2.042312326425977265e+00
2.059000335703604190e+00
2.095751457258827610e+00
2.095751457258827610e+00
2.075313333536790150e+00
2.075313333536790150e+00
2.070438184759056277e+00
2.095188940092165719e+00
2.065375530259102366e+00
2.065375530259102366e+00
2.028624408703878945e+00
2.028624408703878945e+00
2.048500015259254514e+00
2.052625141148106458e+00
2.052625141148106458e+00
2.070250679036835795e+00
2.067250587481307633e+00
2.067250587481307633e+00
2.051500106814783120e+00
2.051500106814783120e+00
2.057875301370280852e+00
2.073625782036805365e+00
2.073625782036805365e+00
2.072313241981261545e+00
2.072313241981261545e+00
2.065750541703543330e+00
2.073063264870143918e+00
2.073063264870143918e+00
2.065750541703543330e+00
2.065750541703543330e+00
2.057125278481399366e+00
2.062375438703573760e+00
2.062375438703573760e+00
2.066500564592425260e+00
2.060875392925809457e+00
2.060875392925809457e+00
2.057875301370280852e+00
2.057875301370280852e+00
2.051125095370342155e+00
2.043249855037080120e+00
2.043249855037080120e+00
2.054875209814752690e+00
2.054875209814752690e+00
2.050937589648121673e+00
2.035562120426038124e+00
2.035562120426038124e+00
2.077750907925656865e+00
2.077750907925656865e+00
2.100439100314340557e+00
2.108689352092044000e+00
2.108689352092044000e+00
2.095938962981048093e+00
2.083376079592272667e+00
2.083376079592272667e+00
2.063312967314676172e+00
2.063312967314676172e+00
1.970122623371074688e+00
2.058437818536942299e+00
2.058437818536942299e+00
2.035187108981597159e+00
2.035187108981597159e+00
2.059375347148045154e+00
2.065938047425763813e+00
2.065938047425763813e+00
2.078688436536759720e+00
2.078688436536759720e+00
2.068000610370189563e+00
2.057312784203619849e+00
2.057312784203619849e+00
2.056000244148076028e+00
2.056000244148076028e+00
2.052250129703665493e+00
2.062750450148014725e+00
2.062750450148014725e+00
2.056750267036957958e+00
2.056750267036957958e+00
2.074750816370128703e+00
2.095938962981048093e+00
2.095938962981048093e+00
2.064250495925779028e+00
2.067625598925748598e+00
2.067625598925748598e+00
2.041749809259315818e+00
2.041749809259315818e+00
2.061250404370250422e+00
2.061625415814691387e+00
2.061625415814691387e+00
2.047937498092593067e+00
2.047937498092593067e+00
2.056187749870296511e+00
2.056937772759178884e+00
2.056937772759178884e+00
2.062937955870235207e+00
2.062937955870235207e+00
2.043624866481521085e+00
2.047187475203710694e+00
2.047187475203710694e+00
2.073250770592364400e+00
2.073250770592364400e+00
2.090126285592211808e+00
2.070625690481276759e+00
2.070625690481276759e+00
2.058062807092501334e+00
2.058062807092501334e+00
2.046437452314828764e+00
2.039687246314890068e+00
2.039687246314890068e+00
2.040624774925992480e+00
2.064250495925779028e+00
2.064250495925779028e+00
2.042874843592639156e+00
2.042874843592639156e+00
2.060312875759148010e+00
2.065750541703543330e+00
2.065750541703543330e+00
2.083751091036713632e+00
2.083751091036713632e+00
2.069875667592394830e+00
2.063687978759117581e+00
2.063687978759117581e+00
1.960934842982268833e+00
2.075313333536790150e+00
2.075313333536790150e+00
2.074938322092349186e+00
2.074938322092349186e+00
2.061625415814691387e+00
2.069313150425733383e+00
2.069313150425733383e+00
2.078125919370098273e+00
2.078125919370098273e+00
2.068750633259071936e+00
2.071938230536820580e+00
2.071938230536820580e+00
2.055625232703635064e+00
2.055625232703635064e+00
2.041562303537095335e+00
2.047937498092593067e+00
2.047937498092593067e+00
2.081876033814508364e+00
2.094813928647724754e+00
2.094813928647724754e+00
2.057687795648060813e+00
2.057687795648060813e+00
2.054125186925870761e+00
2.062937955870235207e+00
2.062937955870235207e+00
2.042687337870418673e+00
2.042687337870418673e+00
2.064438001647999510e+00
2.053937681203650278e+00
2.053937681203650278e+00
2.058250312814721816e+00
2.058250312814721816e+00
2.065375530259102366e+00
2.052437635425885976e+00
2.052437635425885976e+00
2.036312143314920498e+00
2.036312143314920498e+00
2.026374340037232713e+00
2.059562852870265637e+00
2.059562852870265637e+00
2.074938322092349186e+00
2.076438367870113488e+00
2.076438367870113488e+00
2.049625049592577852e+00
2.049625049592577852e+00
2.054312692648091243e+00
2.074563310647907777e+00
2.074563310647907777e+00
2.069125644703512901e+00
2.069125644703512901e+00
2.064250495925779028e+00
2.074375804925687294e+00
2.074375804925687294e+00
2.070063173314615312e+00
2.070063173314615312e+00
2.053375164036988387e+00
2.058062807092501334e+00
2.058062807092501334e+00
2.070813196203497242e+00
2.070813196203497242e+00
2.055250221259193655e+00
2.032749534592730889e+00
2.032749534592730889e+00
2.031624500259407551e+00
2.072875759147922992e+00
2.072875759147922992e+00
2.072500747703482027e+00
2.072500747703482027e+00
2.068563127536851454e+00
2.074563310647907777e+00
2.074563310647907777e+00
2.034249580370494748e+00
2.034249580370494748e+00
2.048687520981474997e+00
2.071375713370158689e+00
2.071375713370158689e+00
2.073063264870143918e+00
2.073063264870143918e+00
2.083188573870052185e+00
2.088626239814447505e+00
2.088626239814447505e+00
2.012498916592913467e+00
1.999186010315256334e+00
1.999186010315256334e+00
2.070063173314615312e+00
2.070063173314615312e+00
2.083001068147831703e+00
2.076063356425672080e+00
2.076063356425672080e+00
2.036687154759361462e+00
2.036687154759361462e+00
2.043999877925962494e+00
2.050750083925901190e+00
2.050750083925901190e+00
2.031624500259407551e+00
2.031624500259407551e+00
2.031812005981628033e+00
2.045874935148167761e+00
2.045874935148167761e+00
2.060500381481368493e+00
2.079625965147862576e+00
2.079625965147862576e+00
2.083188573870052185e+00
2.083188573870052185e+00
2.053750175481429796e+00
2.067063081759087151e+00
2.067063081759087151e+00
2.055437726981414581e+00
2.055437726981414581e+00
2.050937589648121673e+00
2.065750541703543330e+00
2.065750541703543330e+00
2.064625507370219992e+00
2.064625507370219992e+00
2.074563310647907777e+00
2.073438276314584883e+00
2.073438276314584883e+00
2.062375438703573760e+00
2.062375438703573760e+00
2.048125003814813549e+00
2.041749809259315818e+00
2.041749809259315818e+00
2.029186925870540392e+00
2.040999786370433888e+00
2.040999786370433888e+00
2.061437910092470904e+00
2.061437910092470904e+00
2.074750816370128703e+00
2.060125370036927084e+00
2.060125370036927084e+00
2.065375530259102366e+00
2.065375530259102366e+00
2.060875392925809457e+00
2.063687978759117581e+00
2.063687978759117581e+00
2.066313058870204777e+00
2.064438001647999510e+00
2.064438001647999510e+00
2.065375530259102366e+00
2.065375530259102366e+00
2.052250129703665493e+00
2.077750907925656865e+00
2.077750907925656865e+00
2.082063539536728847e+00
2.082063539536728847e+00
2.094251411481063307e+00
2.057875301370280852e+00
2.057875301370280852e+00
2.036499649037140980e+00
2.036499649037140980e+00
2.024311777092806519e+00
2.054875209814752690e+00
2.054875209814752690e+00
2.085626148258918899e+00
2.085626148258918899e+00
2.062375438703573760e+00
2.038562211981566730e+00
2.038562211981566730e+00
2.032374523148289480e+00
2.055250221259193655e+00
2.055250221259193655e+00
2.057125278481399366e+00
2.057125278481399366e+00
2.037624683370464318e+00
2.044937406537064906e+00
2.044937406537064906e+00
2.065750541703543330e+00
2.065750541703543330e+00
2.090313791314432290e+00
2.079250953703421168e+00
2.079250953703421168e+00
2.061437910092470904e+00
2.061437910092470904e+00
2.053000152592547423e+00
2.059000335703604190e+00
2.059000335703604190e+00
2.066125553147984295e+00
2.066125553147984295e+00
2.059000335703604190e+00
2.056375255592516993e+00
2.056375255592516993e+00
2.083563585314493150e+00
2.080750999481185470e+00
2.080750999481185470e+00
2.076250862147892562e+00
2.076250862147892562e+00
2.076250862147892562e+00
2.060125370036927084e+00
2.060125370036927084e+00
2.049062532425916405e+00
2.049062532425916405e+00
2.073438276314584883e+00
2.052812646870326940e+00
2.052812646870326940e+00
2.061812921536912313e+00
2.061812921536912313e+00
2.080000976592303541e+00
2.043812372203741567e+00
2.043812372203741567e+00
2.034062074648274265e+00
2.034062074648274265e+00
2.050750083925901190e+00
2.060687887203588975e+00
2.060687887203588975e+00
2.056000244148076028e+00
2.083001068147831703e+00
2.083001068147831703e+00
2.088251228370006540e+00
2.088251228370006540e+00
2.065375530259102366e+00
2.070625690481276759e+00
2.070625690481276759e+00
2.056937772759178884e+00
2.056937772759178884e+00
2.055437726981414581e+00
2.060125370036927084e+00
2.060125370036927084e+00
2.062375438703573760e+00
2.062375438703573760e+00
2.074938322092349186e+00
2.067813104647969080e+00
2.067813104647969080e+00
2.059187841425824672e+00
2.059187841425824672e+00
2.069875667592394830e+00
2.064438001647999510e+00
2.064438001647999510e+00
2.051875118259224084e+00
2.066500564592425260e+00
2.066500564592425260e+00
2.073063264870143918e+00
2.073063264870143918e+00
2.060125370036927084e+00
2.041374797814874853e+00
2.041374797814874853e+00
2.057500289925840331e+00
2.082063539536728847e+00
2.082063539536728847e+00
2.088438734092227023e+00
2.077938413647877791e+00
2.077938413647877791e+00
2.101001617481002448e+00
2.101001617481002448e+00
2.084313608203375079e+00
2.053187658314767905e+00
2.053187658314767905e+00
2.041562303537095335e+00
2.041562303537095335e+00
2.082438550981169811e+00
2.061250404370250422e+00
2.061250404370250422e+00
2.034437086092715230e+00
2.050937589648121673e+00
2.050937589648121673e+00
2.085438642536698417e+00
2.085438642536698417e+00
2.058625324259163225e+00
2.040624774925992480e+00
2.040624774925992480e+00
2.034999603259376677e+00
2.034999603259376677e+00
2.056187749870296511e+00
2.073250770592364400e+00
2.073250770592364400e+00
2.066875576036866669e+00
2.053937681203650278e+00
2.053937681203650278e+00
2.061437910092470904e+00
2.061437910092470904e+00
2.071375713370158689e+00
2.049062532425916405e+00
2.049062532425916405e+00
2.053375164036988387e+00
2.053375164036988387e+00
2.065750541703543330e+00
2.063500473036897098e+00
2.063500473036897098e+00
2.070250679036835795e+00
2.070250679036835795e+00
2.076625873592333971e+00
2.079250953703421168e+00
2.079250953703421168e+00
2.062375438703573760e+00
2.062375438703573760e+00
2.051500106814783120e+00
2.046249946592608282e+00
2.046249946592608282e+00
2.048687520981474997e+00
2.069125644703512901e+00
2.069125644703512901e+00
2.068938138981292418e+00
2.079813470870083059e+00
2.079813470870083059e+00
2.085251136814477935e+00
2.083938596758934114e+00
2.083938596758934114e+00
2.074188299203466812e+00
2.074188299203466812e+00
2.071188207647938206e+00
2.030499465926084213e+00
2.030499465926084213e+00
2.027686880092776089e+00
2.027686880092776089e+00
2.048875026703695923e+00
2.054687704092532208e+00
2.054687704092532208e+00
2.047749992370372585e+00
2.047749992370372585e+00
2.046999969481490211e+00
2.070438184759056277e+00
2.070438184759056277e+00
2.083376079592272667e+00
2.070625690481276759e+00
2.070625690481276759e+00
2.063500473036897098e+00
2.063500473036897098e+00
2.056375255592516993e+00
2.080000976592303541e+00
2.080000976592303541e+00
2.082251045258949329e+00
2.082251045258949329e+00
2.063125461592455689e+00
2.044749900814844423e+00
2.044749900814844423e+00
2.063687978759117581e+00
2.063687978759117581e+00
2.070625690481276759e+00
2.057125278481399366e+00
2.057125278481399366e+00
2.060312875759148010e+00
2.060312875759148010e+00
2.070625690481276759e+00
2.071375713370158689e+00
2.071375713370158689e+00
2.056187749870296511e+00
2.031061983092746104e+00
2.031061983092746104e+00
2.046249946592608282e+00
2.046249946592608282e+00
2.060875392925809457e+00
2.063500473036897098e+00
2.063500473036897098e+00
1.977435346537675276e+00
2.095188940092165719e+00
2.095188940092165719e+00
2.082813562425611220e+00
2.082813562425611220e+00
2.070813196203497242e+00
2.083188573870052185e+00
2.083188573870052185e+00
2.070063173314615312e+00
2.070063173314615312e+00
2.068750633259071936e+00
2.080938505203405953e+00
2.080938505203405953e+00
2.067250587481307633e+00
2.067250587481307633e+00
2.059750358592486119e+00
2.073813287759025847e+00
2.073813287759025847e+00
2.057125278481399366e+00
2.059937864314706601e+00
2.059937864314706601e+00
2.058812829981383707e+00
2.058812829981383707e+00
2.046812463759269729e+00
2.066313058870204777e+00
2.066313058870204777e+00
2.084876125370036970e+00
2.084876125370036970e+00
2.068375621814630971e+00
2.063875484481338063e+00
2.063875484481338063e+00
2.061062898648029940e+00
