2.127814935758537640e+00
2.127814935758537640e+00
2.037812189092684800e+00
2.019811639759514499e+00
2.019811639759514499e+00
2.101564134647663895e+00
2.101564134647663895e+00
2.043062349314859638e+00
2.080563493758964988e+00
2.080563493758964988e+00
2.081313516647846917e+00
2.081313516647846917e+00
2.158940885647145258e+00
2.177128940702536042e+00
2.177128940702536042e+00
2.126877407147435228e+00
2.081876033814508364e+00
2.081876033814508364e+00
2.135315164647358710e+00
2.135315164647358710e+00
2.122939786980803767e+00
1.986248115482039944e+00
1.986248115482039944e+00
2.043249855037080120e+00
2.043249855037080120e+00
2.110001892147587377e+00
2.104564226203192501e+00
2.104564226203192501e+00
2.018311593981750196e+00
2.018311593981750196e+00
2.052250129703665493e+00
2.089751274147770843e+00
2.089751274147770843e+00
2.125189855647450443e+00
2.125189855647450443e+00
2.049625049592577852e+00
1.944809350871303355e+00
1.944809350871303355e+00
2.022249214148381213e+00
2.022249214148381213e+00
2.087501205481124167e+00
2.053750175481429796e+00
2.053750175481429796e+00
2.043812372203741567e+00
2.138127750480666833e+00
2.138127750480666833e+00
2.172066286202582130e+00
2.172066286202582130e+00
2.004061159092989985e+00
2.038562211981566730e+00
2.038562211981566730e+00
2.125002349925229961e+00
2.125002349925229961e+00
2.164378551591540134e+00
2.088063722647786058e+00
2.088063722647786058e+00
2.082438550981169811e+00
2.082438550981169811e+00
1.980997955259865106e+00
2.022999237037263143e+00
2.022999237037263143e+00
2.092001342814417075e+00
2.113939512314218838e+00
2.113939512314218838e+00
2.130252510147404355e+00
2.130252510147404355e+00
2.069688161870173904e+00
2.004623676259651432e+00
2.004623676259651432e+00
1.971247657704397804e+00
2.169066194647053525e+00
2.169066194647053525e+00
2.243693472090823260e+00
2.243693472090823260e+00
2.127814935758537640e+00
1.866994476149784976e+00
1.866994476149784976e+00
1.846931363872188481e+00
1.846931363872188481e+00
2.065375530259102366e+00
2.168691183202612560e+00
2.168691183202612560e+00
2.278757042146061895e+00
2.278757042146061895e+00
2.160440931424909561e+00
2.197942075869014911e+00
2.197942075869014911e+00
2.115064546647541732e+00
2.115064546647541732e+00
1.980435438093203437e+00
1.839618640705587893e+00
1.839618640705587893e+00
1.897745414593951185e+00
1.897745414593951185e+00
1.990935758537552891e+00
2.033874568926053783e+00
2.033874568926053783e+00
2.145065462202826012e+00
2.288319833979308715e+00
2.288319833979308715e+00
2.059375347148045154e+00
2.059375347148045154e+00
1.918746055482650315e+00
2.243880977813043742e+00
2.243880977813043742e+00
2.275381939146092325e+00
2.275381939146092325e+00
2.210879970702230857e+00
2.102689168980987233e+00
2.102689168980987233e+00
2.290194891201513983e+00
2.290194891201513983e+00
2.390885464033936536e+00
2.188004272591326682e+00
2.188004272591326682e+00
2.022436719870601696e+00
1.869244544816431208e+00
1.869244544816431208e+00
1.801742484817041579e+00
1.801742484817041579e+00
1.869619556260872173e+00
2.157065828424939546e+00
2.157065828424939546e+00
2.088626239814447505e+00
2.088626239814447505e+00
2.107376812036500180e+00
2.095751457258827610e+00
2.095751457258827610e+00
2.372697408978545752e+00
2.201317178868984037e+00
2.201317178868984037e+00
1.826305734427930538e+00
1.826305734427930538e+00
1.783366924039430090e+00
1.714177312540055675e+00
1.714177312540055675e+00
1.969372600482192537e+00
1.969372600482192537e+00
2.137940244758446351e+00
2.022624225592822178e+00
2.022624225592822178e+00
2.149003082369457029e+00
2.149003082369457029e+00
2.061437910092470904e+00
1.999186010315256334e+00
1.999186010315256334e+00
2.203567247535630269e+00
2.203567247535630269e+00
2.296382580034791232e+00
2.463262672811060039e+00
2.463262672811060039e+00
2.253818781090731527e+00
1.918558549760429832e+00
1.918558549760429832e+00
2.089751274147770843e+00
2.089751274147770843e+00
1.988310678426465694e+00
1.866244453260902825e+00
1.866244453260902825e+00
2.134002624591814889e+00
2.134002624591814889e+00
1.927558824427014983e+00
1.641800103762932173e+00
1.641800103762932173e+00
1.790492141483809974e+00
1.790492141483809974e+00
2.054312692648091243e+00
2.458950041199987613e+00
2.458950041199987613e+00
2.370259834589678594e+00
2.370259834589678594e+00
2.178628986480300345e+00
2.026186834315011787e+00
2.026186834315011787e+00
1.959809808648945717e+00
2.061625415814691387e+00
2.061625415814691387e+00
2.097626514481032878e+00
2.097626514481032878e+00
2.005561204870754288e+00
1.966560014648884636e+00
1.966560014648884636e+00
2.148065553758354618e+00
2.148065553758354618e+00
2.191754387035737217e+00
2.268256721701712220e+00
2.268256721701712220e+00
2.237130771813104602e+00
2.237130771813104602e+00
2.232630634479812137e+00
1.908245735038300861e+00
1.908245735038300861e+00
1.737053010650959850e+00
1.910495803704947093e+00
1.910495803704947093e+00
2.097063997314370987e+00
2.097063997314370987e+00
2.062562944425794242e+00
2.100439100314340557e+00
2.100439100314340557e+00
2.233943174535355514e+00
2.233943174535355514e+00
2.117689626758628929e+00
2.419761345255897922e+00
2.357509445478682686e+00
2.357509445478682686e+00
2.290757408368175430e+00
2.290757408368175430e+00
1.858931730094302237e+00
1.925871272927030420e+00
1.925871272927030420e+00
1.909933286538285424e+00
1.914245918149357406e+00
1.914245918149357406e+00
1.903745597705008175e+00
1.903745597705008175e+00
1.933371501815851268e+00
2.153128208258308529e+00
2.153128208258308529e+00
1.893620288705099686e+00
1.893620288705099686e+00
1.685301431318094512e+00
2.144127933591723156e+00
2.144127933591723156e+00
2.724458143864253667e+00
2.871462630085146461e+00
2.871462630085146461e+00
2.092751365703299449e+00
2.092751365703299449e+00
1.814680379650257747e+00
1.836431043427839027e+00
1.836431043427839027e+00
1.755803582873012525e+00
1.755803582873012525e+00
1.632237311929685575e+00
1.613861751152073865e+00
1.613861751152073865e+00
2.059562852870265637e+00
2.059562852870265637e+00
2.417886288033692654e+00
2.285319742423780109e+00
2.285319742423780109e+00
2.175253883480330774e+00
2.175253883480330774e+00
1.960184820093386682e+00
1.926621295815912349e+00
1.926621295815912349e+00
2.002373607593005200e+00
2.251568712424085295e+00
2.251568712424085295e+00
2.200004638813440216e+00
2.200004638813440216e+00
2.307257911923581428e+00
2.406260933256020085e+00
2.406260933256020085e+00
2.703457502975554316e+00
2.323383404034546906e+00
2.323383404034546906e+00
2.080750999481185470e+00
2.056375255592516993e+00
2.056375255592516993e+00
1.791804681539353572e+00
1.859119235816522719e+00
1.859119235816522719e+00
1.875432233649708458e+00
1.875432233649708458e+00
1.930558915982543589e+00
2.215567613757744247e+00
2.215567613757744247e+00
1.890995208594012267e+00
1.890995208594012267e+00
1.680801293984801825e+00
1.869619556260872173e+00
1.869619556260872173e+00
1.909558275093844459e+00
2.148065553758354618e+00
2.148065553758354618e+00
2.446574663533433114e+00
2.446574663533433114e+00
2.206004821924497428e+00
2.174503860591448845e+00
2.174503860591448845e+00
2.013248939481795396e+00
2.013248939481795396e+00
2.085063631092257452e+00
1.963184911648915065e+00
1.963184911648915065e+00
1.929246375926999768e+00
2.153690725424969976e+00
2.153690725424969976e+00
2.203942258980071234e+00
2.203942258980071234e+00
2.127439924314096675e+00
2.135502670369579192e+00
2.135502670369579192e+00
2.411511093478194478e+00
2.411511093478194478e+00
2.476200567644276429e+00
2.359384502700888397e+00
2.359384502700888397e+00
2.088438734092227023e+00
1.920996124149296547e+00
1.920996124149296547e+00
1.685676442762535476e+00
1.685676442762535476e+00
1.748303353984191455e+00
1.884620014038514535e+00
1.884620014038514535e+00
1.683801385540330209e+00
1.683801385540330209e+00
1.837743583483382848e+00
1.976497817926572642e+00
1.976497817926572642e+00
2.028811914426099428e+00
2.028811914426099428e+00
2.346821619312112972e+00
2.215942625202185212e+00
2.215942625202185212e+00
1.988685689870906881e+00
1.893995300149540650e+00
1.893995300149540650e+00
1.728615253151036146e+00
1.728615253151036146e+00
2.137752739036225869e+00
2.230380565813165905e+00
2.230380565813165905e+00
2.191004364146854844e+00
2.191004364146854844e+00
2.137002716147343495e+00
2.214067567979979945e+00
2.214067567979979945e+00
2.275569444868312807e+00
2.275569444868312807e+00
2.272756859035004684e+00
2.336696310312204705e+00
2.337071321756645670e+00
2.337071321756645670e+00
1.772679097872859932e+00
1.731427838984344048e+00
1.731427838984344048e+00
1.988873195593127363e+00
1.988873195593127363e+00
1.778116763817255253e+00
1.932246467482528152e+00
1.932246467482528152e+00
2.146565507980590315e+00
2.146565507980590315e+00
1.890245185705130337e+00
1.887807611316263401e+00
1.887807611316263401e+00
2.120689718314157535e+00
2.184441663869136629e+00
2.184441663869136629e+00
2.323008392590105942e+00
2.323008392590105942e+00
2.497951231421857266e+00
2.150128116702780368e+00
2.150128116702780368e+00
1.956997222815637594e+00
1.956997222815637594e+00
1.825180700094607422e+00
1.800617450483718462e+00
1.800617450483718462e+00
2.077938413647877791e+00
2.077938413647877791e+00
2.150315622425000850e+00
2.187066743980223826e+00
2.187066743980223826e+00
2.203004730368968822e+00
2.004436170537430950e+00
2.004436170537430950e+00
2.034999603259376677e+00
2.034999603259376677e+00
2.061625415814691387e+00
2.069500656147953865e+00
2.069500656147953865e+00
1.902245551927244094e+00
1.902245551927244094e+00
2.124439832758568070e+00
2.276319467757194737e+00
2.276319467757194737e+00
2.063500473036897098e+00
2.001061067537461380e+00
2.001061067537461380e+00
2.012311410870692985e+00
2.173941343424787398e+00
2.173941343424787398e+00
2.323570909756767389e+00
2.178253975035859380e+00
2.178253975035859380e+00
2.180879055146946577e+00
2.189879329813531950e+00
2.189879329813531950e+00
2.196254524369030126e+00
2.196254524369030126e+00
2.251943723868526259e+00
2.334071230201117064e+00
2.334071230201117064e+00
1.985873104037598758e+00
1.985873104037598758e+00
1.947059419537949809e+00
1.850118961149937347e+00
1.850118961149937347e+00
1.815430402539139898e+00
1.628674703207495300e+00
1.628674703207495300e+00
1.626799645985290255e+00
1.945934385204626693e+00
1.945934385204626693e+00
2.038374706259346247e+00
2.038374706259346247e+00
2.169816217535935454e+00
2.278757042146061895e+00
2.278757042146061895e+00
2.235630726035340299e+00
2.235630726035340299e+00
2.217630176702169997e+00
1.958684774315622379e+00
1.958684774315622379e+00
1.975372783593249304e+00
1.975372783593249304e+00
2.117689626758628929e+00
1.833805963316751608e+00
1.833805963316751608e+00
1.883494979705191197e+00
1.883494979705191197e+00
2.172441297647023095e+00
2.088438734092227023e+00
2.088438734092227023e+00
2.101939146092104860e+00
2.006873744926298109e+00
2.006873744926298109e+00
1.977622852259895758e+00
1.977622852259895758e+00
2.149753105258339403e+00
2.006498733481856700e+00
2.006498733481856700e+00
2.070063173314615312e+00
2.070063173314615312e+00
2.097814020203253360e+00
2.028624408703878945e+00
2.028624408703878945e+00
2.001061067537461380e+00
2.001061067537461380e+00
1.984185552537614194e+00
2.021686696981719766e+00
2.021686696981719766e+00
2.037624683370464318e+00
2.203192236091189304e+00
2.203192236091189304e+00
2.284007202368236289e+00
2.284007202368236289e+00
2.305195348979155678e+00
2.152565691091647082e+00
2.152565691091647082e+00
2.049812555314798335e+00
2.049812555314798335e+00
2.158753379924924776e+00
2.233005645924253102e+00
2.233005645924253102e+00
2.095938962981048093e+00
2.095938962981048093e+00
2.022249214148381213e+00
1.948934476760155077e+00
1.948934476760155077e+00
1.805492599261452114e+00
1.805492599261452114e+00
1.917246009704886012e+00
1.865869441816461860e+00
1.865869441816461860e+00
1.765366374706259345e+00
2.212380016479995160e+00
2.212380016479995160e+00
2.481825739310891787e+00
2.586828943754386767e+00
2.586828943754386767e+00
2.317570726645710621e+00
2.317570726645710621e+00
1.954184636982329915e+00
1.918933561204870797e+00
1.918933561204870797e+00
1.971435163426618287e+00
1.971435163426618287e+00
1.991685781426435042e+00
1.854244087038789068e+00
1.854244087038789068e+00
1.956809717093417111e+00
1.956809717093417111e+00
1.961497360148930280e+00
1.757866145817438275e+00
1.757866145817438275e+00
1.859494247260963906e+00
1.859494247260963906e+00
2.143565416425061709e+00
2.176566423535874595e+00
2.176566423535874595e+00
2.187629261146885273e+00
2.187629261146885273e+00
2.098939054536576698e+00
2.181816583758049433e+00
2.181816583758049433e+00
2.048687520981474997e+00
1.923246192815943001e+00
1.923246192815943001e+00
2.032749534592730889e+00
2.032749534592730889e+00
2.076625873592333971e+00
2.116002075258644588e+00
2.116002075258644588e+00
2.053187658314767905e+00
2.053187658314767905e+00
2.134752647480697263e+00
2.065000518814661401e+00
2.065000518814661401e+00
1.892870265816217534e+00
1.892870265816217534e+00
1.829868343150120591e+00
2.060687887203588975e+00
2.219130222479934300e+00
2.219130222479934300e+00
2.216880153813287624e+00
2.422386425366985119e+00
2.422386425366985119e+00
2.101939146092104860e+00
2.101939146092104860e+00
2.107564317758720662e+00
2.414698690755943566e+00
2.414698690755943566e+00
2.129502487258521981e+00
2.129502487258521981e+00
2.031436994537187068e+00
2.055062715536973172e+00
2.055062715536973172e+00
2.114502029480880285e+00
1.857806695760979121e+00
1.857806695760979121e+00
1.686426465651417628e+00
1.686426465651417628e+00
1.703301980651264813e+00
1.943496810815759979e+00
1.943496810815759979e+00
2.094251411481063307e+00
2.094251411481063307e+00
2.110189397869807859e+00
2.359759514145329362e+00
2.359759514145329362e+00
2.391072969756157018e+00
2.391072969756157018e+00
2.313445600756859122e+00
2.235068208868678852e+00
2.235068208868678852e+00
1.971060151982177322e+00
1.596236213263344306e+00
1.596236213263344306e+00
1.970497634815515653e+00
1.970497634815515653e+00
2.038187200537125765e+00
1.957372234260078780e+00
1.957372234260078780e+00
1.938621662038026106e+00
1.938621662038026106e+00
2.095188940092165719e+00
2.153878231147190458e+00
2.153878231147190458e+00
2.220817773979919085e+00
2.220817773979919085e+00
2.096501480147709540e+00
1.807367656483657381e+00
1.807367656483657381e+00
1.951559556871242496e+00
1.951559556871242496e+00
2.334071230201117064e+00
2.257568895535142062e+00
2.257568895535142062e+00
2.215005096591082356e+00
2.090501297036652772e+00
2.090501297036652772e+00
1.832305917538987305e+00
1.832305917538987305e+00
1.889120151371806999e+00
1.858369212927640568e+00
1.858369212927640568e+00
1.764053834650715746e+00
1.764053834650715746e+00
2.017186559648426858e+00
2.275006927701650916e+00
2.275006927701650916e+00
2.255506332590716312e+00
2.255506332590716312e+00
2.371947386089663379e+00
2.348884182256538722e+00
2.348884182256538722e+00
2.037249671926022909e+00
2.037249671926022909e+00
1.773616626483962344e+00
1.797429853205969374e+00
1.797429853205969374e+00
1.883682485427411901e+00
1.883682485427411901e+00
1.929621387371440955e+00
2.037999694814905283e+00
2.037999694814905283e+00
2.154815759758293314e+00
2.007436262092959556e+00
2.007436262092959556e+00
2.109251869258705447e+00
2.109251869258705447e+00
2.302382763145847999e+00
2.221380291146580532e+00
2.221380291146580532e+00
2.140940336313974068e+00
2.140940336313974068e+00
2.055062715536973172e+00
2.017186559648426858e+00
2.017186559648426858e+00
2.004623676259651432e+00
2.215755119479964730e+00
2.215755119479964730e+00
2.203004730368968822e+00
2.203004730368968822e+00
2.156128299813837135e+00
1.909745780816064942e+00
1.909745780816064942e+00
1.907495712149418710e+00
1.907495712149418710e+00
2.086938688314462720e+00
2.157253334147160473e+00
2.157253334147160473e+00
2.063312967314676172e+00
2.063312967314676172e+00
1.881619922482985929e+00
2.088813745536667987e+00
2.088813745536667987e+00
2.211067476424451339e+00
2.211067476424451339e+00
2.152378185369426600e+00
2.118252143925290376e+00
2.118252143925290376e+00
2.025811822870570822e+00
2.270694296090578934e+00
2.270694296090578934e+00
2.292444959868159771e+00
2.292444959868159771e+00
2.107939329203161627e+00
1.969560106204413019e+00
1.969560106204413019e+00
2.051875118259224084e+00
2.051875118259224084e+00
1.819555528427991620e+00
1.707614612262337239e+00
1.707614612262337239e+00
1.887245094149601732e+00
2.126314889980773337e+00
1.896432874538407587e+00
1.896432874538407587e+00
1.975935300759910973e+00
2.138127750480666833e+00
2.138127750480666833e+00
2.296007568590349823e+00
2.097626514481032878e+00
2.097626514481032878e+00
1.822368114261299521e+00
1.822368114261299521e+00
2.153315713980529011e+00
2.131377544480727693e+00
2.131377544480727693e+00
1.955122165593432548e+00
1.955122165593432548e+00
2.146940519425031280e+00
2.249318643757439062e+00
2.249318643757439062e+00
2.142440382091738371e+00
2.208629902035584625e+00
2.208629902035584625e+00
2.210692464980010374e+00
2.210692464980010374e+00
2.095001434369945237e+00
1.984373058259834677e+00
1.984373058259834677e+00
2.020186651203955464e+00
2.020186651203955464e+00
1.864744407483138522e+00
1.855744132816553149e+00
1.855744132816553149e+00
1.977247840815454571e+00
2.040624774925992480e+00
2.040624774925992480e+00
2.058625324259163225e+00
2.058625324259163225e+00
2.038187200537125765e+00
2.158565874202703849e+00
2.158565874202703849e+00
2.216880153813287624e+00
2.216880153813287624e+00
2.155940794091616652e+00
2.206379833368938392e+00
2.206379833368938392e+00
2.138877773369548763e+00
2.138877773369548763e+00
1.994123355815301979e+00
1.989248207037568328e+00
1.989248207037568328e+00
2.004811181981871915e+00
2.004811181981871915e+00
2.032937040314951371e+00
2.011373882259590129e+00
2.011373882259590129e+00
2.090501297036652772e+00
2.210879970702230857e+00
2.210879970702230857e+00
2.095938962981048093e+00
2.095938962981048093e+00
2.126877407147435228e+00
2.157628345591601438e+00
2.157628345591601438e+00
2.222505325479903426e+00
2.222505325479903426e+00
2.131377544480727693e+00
1.832868434705648975e+00
1.832868434705648975e+00
1.828743308816797475e+00
1.828743308816797475e+00
1.761241248817407845e+00
2.114502029480880285e+00
2.114502029480880285e+00
2.040624774925992480e+00
2.040624774925992480e+00
1.945746879482405989e+00
2.244818506424146598e+00
2.244818506424146598e+00
2.434199285866878171e+00
2.397260658589434712e+00
2.397260658589434712e+00
1.901308023316141238e+00
1.901308023316141238e+00
1.818993011261330173e+00
1.936746604815820838e+00
1.936746604815820838e+00
2.075313333536790150e+00
2.075313333536790150e+00
2.044374889370403459e+00
1.967685048982207752e+00
1.967685048982207752e+00
2.025249305703909375e+00
2.065188024536881883e+00
2.065188024536881883e+00
2.175441389202551257e+00
2.175441389202551257e+00
2.338571367534409973e+00
2.395385601367229444e+00
2.395385601367229444e+00
2.384510269478438804e+00
2.384510269478438804e+00
2.198129581591235393e+00
2.014748985259559699e+00
2.014748985259559699e+00
1.761241248817407845e+00
1.761241248817407845e+00
1.767053926206244130e+00
1.726365184484389914e+00
1.726365184484389914e+00
1.922871181371501814e+00
1.922871181371501814e+00
2.119564683980834197e+00
2.053000152592547423e+00
2.053000152592547423e+00
1.933934018982512937e+00
1.992623310037537676e+00
1.992623310037537676e+00
2.060875392925809457e+00
2.060875392925809457e+00
2.159878414258247670e+00
2.113752006591998356e+00
2.113752006591998356e+00
2.135877681814020157e+00
2.135877681814020157e+00
2.125189855647450443e+00
1.984373058259834677e+00
1.984373058259834677e+00
1.989060701315347846e+00
1.989060701315347846e+00
2.059937864314706601e+00
2.080563493758964988e+00
2.080563493758964988e+00
2.148253059480575100e+00
2.148253059480575100e+00
2.318695760979033516e+00
2.318695760979033516e+00
2.159503402813806705e+00
2.134565141758476781e+00
2.134565141758476781e+00
1.859681752983184388e+00
1.863806878872035888e+00
1.863806878872035888e+00
1.879744865260780662e+00
1.879744865260780662e+00
1.843556260872219132e+00
1.953997131260109432e+00
1.953997131260109432e+00
2.016811548203985893e+00
2.016811548203985893e+00
2.137377727591784460e+00
2.111876949369793088e+00
2.111876949369793088e+00
2.105126743369853504e+00
2.278757042146061895e+00
2.278757042146061895e+00
2.110939420758690233e+00
2.110939420758690233e+00
2.149565599536118921e+00
2.188566789757988129e+00
2.188566789757988129e+00
2.061062898648029940e+00
2.000123538926358524e+00
2.000123538926358524e+00
2.160065919980468152e+00
2.160065919980468152e+00
2.113752006591998356e+00
2.171878780480361648e+00
2.171878780480361648e+00
2.336508804589983779e+00
2.336508804589983779e+00
2.182941618091372327e+00
2.083563585314493150e+00
2.083563585314493150e+00
1.738928067873165118e+00
1.738928067873165118e+00
1.789367107150486857e+00
1.993373332926419828e+00
1.993373332926419828e+00
2.117127109591967482e+00
2.117127109591967482e+00
2.070063173314615312e+00
1.993748344370861014e+00
1.993748344370861014e+00
2.056187749870296511e+00
2.060875392925809457e+00
2.060875392925809457e+00
2.031812005981628033e+00
2.031812005981628033e+00
2.079063447981200685e+00
2.129689992980742907e+00
2.129689992980742907e+00
2.102314157536546269e+00
2.102314157536546269e+00
1.834180974761192573e+00
2.026186834315011787e+00
2.026186834315011787e+00
2.101189123203222930e+00
2.101189123203222930e+00
2.153128208258308529e+00
2.308195440534684284e+00
2.308195440534684284e+00
2.094813928647724754e+00
2.094813928647724754e+00
2.008561296426282894e+00
2.033499557481612818e+00
2.033499557481612818e+00
2.174691366313669327e+00
2.174691366313669327e+00
2.065938047425763813e+00
2.079250953703421168e+00
2.079250953703421168e+00
2.017936582537308787e+00
2.105501754814294912e+00
2.105501754814294912e+00
2.105876766258735877e+00
2.105876766258735877e+00
2.072313241981261545e+00
1.949121982482375781e+00
1.949121982482375781e+00
2.017186559648426858e+00
2.063687978759117581e+00
1.986623126926480909e+00
1.981372966704306293e+00
1.981372966704306293e+00
2.114127018036439321e+00
2.114127018036439321e+00
2.133440107425153442e+00
2.315883175145725836e+00
2.315883175145725836e+00
2.385260292367321178e+00
2.385260292367321178e+00
2.254568803979613900e+00
2.123502304147465658e+00
2.123502304147465658e+00
1.793679738761558839e+00
1.686801477095858592e+00
1.686801477095858592e+00
2.010436353648488161e+00
2.010436353648488161e+00
2.073625782036805365e+00
1.898495437482833337e+00
1.898495437482833337e+00
2.135877681814020157e+00
2.135877681814020157e+00
2.325070955534531691e+00
2.100251594592120075e+00
2.100251594592120075e+00
1.784491958372753206e+00
1.784491958372753206e+00
1.815055391094698933e+00
1.841306192205572678e+00
1.841306192205572678e+00
2.088063722647786058e+00
2.088063722647786058e+00
2.160253425702688634e+00
2.195879512924588717e+00
2.195879512924588717e+00
2.139815301980651618e+00
2.052062623981445011e+00
2.052062623981445011e+00
2.222317819757682944e+00
2.222317819757682944e+00
2.163628528702658205e+00
2.095938962981048093e+00
2.095938962981048093e+00
2.177878963591417971e+00
2.177878963591417971e+00
2.098939054536576698e+00
2.150878139591662741e+00
1.902620563371684836e+00
1.902620563371684836e+00
1.970685140537736135e+00
1.970685140537736135e+00
2.016811548203985893e+00
2.129689992980742907e+00
2.129689992980742907e+00
2.106064271980956359e+00
1.830430860316782260e+00
1.830430860316782260e+00
1.836993560594500696e+00
1.836993560594500696e+00
1.915933469649342413e+00
2.021124179815057875e+00
2.021124179815057875e+00
2.214442579424420909e+00
2.247631092257453833e+00
2.247631092257453833e+00
2.208254890591143660e+00
2.046624958037049247e+00
2.046624958037049247e+00
2.177128940702536042e+00
2.177128940702536042e+00
2.102314157536546269e+00
2.216130130924405695e+00
2.216130130924405695e+00
2.278007019257179522e+00
2.278007019257179522e+00
2.216317636646626177e+00
2.008561296426282894e+00
2.008561296426282894e+00
1.948371959593493630e+00
1.791804681539353572e+00
1.791804681539353572e+00
1.885557542649616947e+00
1.885557542649616947e+00
1.954934659871212066e+00
1.962622394482253396e+00
1.962622394482253396e+00
1.974435254982146670e+00
1.974435254982146670e+00
1.895495345927304953e+00
2.100439100314340557e+00
2.100439100314340557e+00
2.209754936368907963e+00
2.209754936368907963e+00
2.242005920590838475e+00
2.243318460646382295e+00
2.243318460646382295e+00
2.246506057924130939e+00
2.246506057924130939e+00
2.190441846980193397e+00
2.026561845759453195e+00
2.026561845759453195e+00
2.136252693258461566e+00
2.205442304757835537e+00
2.205442304757835537e+00
2.028061891537217498e+00
2.028061891537217498e+00
2.004248664815210468e+00
2.023374248481704107e+00
2.023374248481704107e+00
1.967872554704428234e+00
1.967872554704428234e+00
1.984373058259834677e+00
1.961309854426709798e+00
1.961309854426709798e+00
1.891370220038453231e+00
1.891370220038453231e+00
1.886307565538499098e+00
2.104001709036531054e+00
2.104001709036531054e+00
2.187629261146885273e+00
2.196442030091250608e+00
2.196442030091250608e+00
2.154440748313852350e+00
2.154440748313852350e+00
2.070063173314615312e+00
1.986623126926480909e+00
1.986623126926480909e+00
2.101376628925443413e+00
2.101376628925443413e+00
2.055625232703635064e+00
2.010623859370708644e+00
2.008186284981841485e+00
2.082813562425611220e+00
2.082813562425611220e+00
2.045499923703726353e+00
2.045499923703726353e+00
2.154253242591631867e+00
2.250818689535202921e+00
2.250818689535202921e+00
2.266756675923947917e+00
2.375134983367412023e+00
2.375134983367412023e+00
2.160628437147130043e+00
2.160628437147130043e+00
2.078688436536759720e+00
1.873932187871944377e+00
1.873932187871944377e+00
1.946309396649067658e+00
1.946309396649067658e+00
1.839431134983367411e+00
1.942746787926877827e+00
1.942746787926877827e+00
1.896057863093966622e+00
1.896057863093966622e+00
1.866056947538682342e+00
1.845993835261085847e+00
1.845993835261085847e+00
2.243505966368602778e+00
2.243505966368602778e+00
2.165316080202642990e+00
2.165316080202642990e+00
2.165316080202642990e+00
2.211817499313333268e+00
2.237318277535325084e+00
2.237318277535325084e+00
2.119752189703054679e+00
2.119752189703054679e+00
2.015874019592883037e+00
2.009686330759605788e+00
2.009686330759605788e+00
2.054687704092532208e+00
2.054687704092532208e+00
2.038374706259346247e+00
2.064250495925779028e+00
2.064250495925779028e+00
2.129689992980742907e+00
2.129689992980742907e+00
2.080375988036744506e+00
2.041374797814874853e+00
2.022061708426160731e+00
2.022061708426160731e+00
2.103439191869869163e+00
2.039312234870449103e+00
2.039312234870449103e+00
1.920246101260414395e+00
1.920246101260414395e+00
2.098189031647694325e+00
2.147878048036134135e+00
2.124814844203009478e+00
2.124814844203009478e+00
2.054500198370311725e+00
2.054500198370311725e+00
1.995248390148625317e+00
1.945184362315744542e+00
1.945184362315744542e+00
2.036312143314920498e+00
2.154440748313852350e+00
2.154440748313852350e+00
2.181441572313608468e+00
2.181441572313608468e+00
2.077750907925656865e+00
2.036312143314920498e+00
2.036312143314920498e+00
2.053562669759208870e+00
2.053562669759208870e+00
2.012686422315133949e+00
2.078875942258980203e+00
2.078875942258980203e+00
2.057500289925840331e+00
2.057500289925840331e+00
2.053562669759208870e+00
2.090688802758873255e+00
2.090688802758873255e+00
2.085438642536698417e+00
2.087688711203345093e+00
2.087688711203345093e+00
2.088438734092227023e+00
2.088438734092227023e+00
2.099126560258797181e+00
2.068375621814630971e+00
2.068375621814630971e+00
2.014748985259559699e+00
2.014748985259559699e+00
2.051875118259224084e+00
2.018311593981750196e+00
2.018311593981750196e+00
2.035187108981597159e+00
2.035187108981597159e+00
2.049437543870357370e+00
2.059375347148045154e+00
2.059375347148045154e+00
2.092563859981078966e+00
2.092563859981078966e+00
2.141690359202856442e+00
2.105126743369853504e+00
2.105126743369853504e+00
2.018499099703970678e+00
2.061062898648029940e+00
2.061062898648029940e+00
2.127439924314096675e+00
2.127439924314096675e+00
2.058062807092501334e+00
2.055812738425855546e+00
2.055812738425855546e+00
2.126502395702994264e+00
2.126502395702994264e+00
2.165316080202642990e+00
2.062937955870235207e+00
2.062937955870235207e+00
2.076813379314554453e+00
2.076813379314554453e+00
2.039687246314890068e+00
2.014186468092898252e+00
2.014186468092898252e+00
2.056562761314737475e+00
2.070438184759056277e+00
2.070438184759056277e+00
2.036312143314920498e+00
2.036312143314920498e+00
2.056375255592516993e+00
2.068375621814630971e+00
2.068375621814630971e+00
2.084501113925596005e+00
2.084501113925596005e+00
2.118252143925290376e+00
2.097814020203253360e+00
2.097814020203253360e+00
2.123877315591906623e+00
2.286069765312662039e+00
2.286069765312662039e+00
2.207317361980041248e+00
2.207317361980041248e+00
2.211629993591112786e+00
2.083751091036713632e+00
2.083751091036713632e+00
1.877307290871913947e+00
1.877307290871913947e+00
1.819180516983550655e+00
1.908808252204962308e+00
1.908808252204962308e+00
2.018874111148411643e+00
2.047749992370372585e+00
2.047749992370372585e+00
2.113189489425336465e+00
2.113189489425336465e+00
2.128564958647419569e+00
2.097439008758812395e+00
2.097439008758812395e+00
2.116564592425305591e+00
2.116564592425305591e+00
2.167003631702627775e+00
1.852744041261024766e+00
1.852744041261024766e+00
1.920246101260414395e+00
1.920246101260414395e+00
2.056562761314737475e+00
1.997685964537492032e+00
1.997685964537492032e+00
1.951934568315683460e+00
1.951934568315683460e+00
1.989810724204229997e+00
2.116939603869747000e+00
2.116939603869747000e+00
2.297132602923673161e+00
2.249318643757439062e+00
2.249318643757439062e+00
2.100626606036561483e+00
2.100626606036561483e+00
2.045124912259285388e+00
2.049625049592577852e+00
2.049625049592577852e+00
2.080750999481185470e+00
2.080750999481185470e+00
2.147315530869472244e+00
2.121064729758598499e+00
2.121064729758598499e+00
2.087688711203345093e+00
2.087688711203345093e+00
2.060125370036927084e+00
2.080563493758964988e+00
2.080563493758964988e+00
2.072125736259041062e+00
2.072125736259041062e+00
2.092001342814417075e+00
2.122377269814142320e+00
2.122377269814142320e+00
2.110189397869807859e+00
2.110189397869807859e+00
2.031624500259407551e+00
2.041187292092654371e+00
2.041187292092654371e+00
1.992248298593096711e+00
1.998998504593035630e+00
1.998998504593035630e+00
1.923058687093722297e+00
1.923058687093722297e+00
1.966560014648884636e+00
2.197004547257912055e+00
2.197004547257912055e+00
2.192504409924619146e+00
2.192504409924619146e+00
2.136627704702902530e+00
2.054125186925870761e+00
2.054125186925870761e+00
2.165128574480422063e+00
2.165128574480422063e+00
2.026936857203894160e+00
2.001436078981902345e+00
2.001436078981902345e+00
1.909745780816064942e+00
1.844118778038880579e+00
1.844118778038880579e+00
1.987560655537583543e+00
1.987560655537583543e+00
2.122752281258583285e+00
2.091813837092196593e+00
2.091813837092196593e+00
2.146378002258369833e+00
2.146378002258369833e+00
2.160815942869350526e+00
2.148628070925016065e+00
2.148628070925016065e+00
2.041374797814874853e+00
2.041374797814874853e+00
2.080938505203405953e+00
2.120877224036378017e+00
2.120877224036378017e+00
2.086563676870021755e+00
2.086563676870021755e+00
2.079813470870083059e+00
2.045687429425947279e+00
2.045687429425947279e+00
2.025249305703909375e+00
2.044374889370403459e+00
2.044374889370403459e+00
2.055812738425855546e+00
2.055812738425855546e+00
2.063875484481338063e+00
2.050375072481459782e+00
2.050375072481459782e+00
2.029749443037202283e+00
2.029749443037202283e+00
2.092938871425519931e+00
2.092001342814417075e+00
2.092001342814417075e+00
2.106064271980956359e+00
2.106064271980956359e+00
2.138690267647328280e+00
2.134752647480697263e+00
2.134752647480697263e+00
2.012123905148472502e+00
2.012123905148472502e+00
2.033124546037171854e+00
1.997123447370830363e+00
1.997123447370830363e+00
1.994873378704184130e+00
2.079625965147862576e+00
2.079625965147862576e+00
2.100814111758781966e+00
2.100814111758781966e+00
2.092938871425519931e+00
2.047374980925931620e+00
2.047374980925931620e+00
2.077938413647877791e+00
2.084876125370036970e+00
2.084876125370036970e+00
2.089563768425550361e+00
2.089563768425550361e+00
2.021499191259499284e+00
2.091626331369976111e+00
2.091626331369976111e+00
2.087501205481124167e+00
2.087501205481124167e+00
2.030874477370525177e+00
2.135315164647358710e+00
2.135315164647358710e+00
2.235068208868678852e+00
2.235068208868678852e+00
2.200942167424543072e+00
2.077000885036774935e+00
2.077000885036774935e+00
2.027874385814997016e+00
2.027874385814997016e+00
2.125752372814111890e+00
2.058812829981383707e+00
2.058812829981383707e+00
2.016249031037324002e+00
1.912933378093814030e+00
1.912933378093814030e+00
1.927933835871455948e+00
1.927933835871455948e+00
1.974247749259926188e+00
2.066125553147984295e+00
2.066125553147984295e+00
2.186316721091342341e+00
2.186316721091342341e+00
2.272194341868343237e+00
2.090501297036652772e+00
2.090501297036652772e+00
2.021499191259499284e+00
2.021499191259499284e+00
1.999561021759697299e+00
1.897370403149510221e+00
1.897370403149510221e+00
2.011373882259590129e+00
2.222317819757682944e+00
2.177503952146977007e+00
2.177503952146977007e+00
1.996560930204168693e+00
2.015311502426221590e+00
2.015311502426221590e+00
2.054312692648091243e+00
2.054312692648091243e+00
2.202817224646748340e+00
2.272194341868343237e+00
2.272194341868343237e+00
2.099314065981017663e+00
2.062187932981353278e+00
2.062187932981353278e+00
2.043249855037080120e+00
2.043249855037080120e+00
2.089751274147770843e+00
2.046812463759269729e+00
2.046812463759269729e+00
2.022999237037263143e+00
2.007623767815180038e+00
2.007623767815180038e+00
1.971622669148838769e+00
1.971622669148838769e+00
1.948371959593493630e+00
1.969747611926633502e+00
1.969747611926633502e+00
2.054687704092532208e+00
2.054687704092532208e+00
2.040812280648213406e+00
2.100626606036561483e+00
2.100626606036561483e+00
2.121627246925260390e+00
2.210504959257789892e+00
2.210504959257789892e+00
2.161565965758232455e+00
2.161565965758232455e+00
2.027124362926114642e+00
2.052437635425885976e+00
2.052437635425885976e+00
2.122752281258583285e+00
2.122752281258583285e+00
2.063312967314676172e+00
1.999561021759697299e+00
1.999561021759697299e+00
1.982122989593188223e+00
1.982122989593188223e+00
2.004811181981871915e+00
1.968435071871089903e+00
1.968435071871089903e+00
2.030311960203863730e+00
2.030311960203863730e+00
2.103251686147648680e+00
2.125189855647450443e+00
2.125189855647450443e+00
2.153690725424969976e+00
2.101376628925443413e+00
2.101376628925443413e+00
2.093313882869960452e+00
2.093313882869960452e+00
2.092751365703299449e+00
2.052437635425885976e+00
2.052437635425885976e+00
2.017936582537308787e+00
2.017936582537308787e+00
2.053750175481429796e+00
2.045687429425947279e+00
2.045687429425947279e+00
2.056750267036957958e+00
2.056750267036957958e+00
2.057125278481399366e+00
2.077375896481215900e+00
2.077375896481215900e+00
2.124252327036347587e+00
2.124252327036347587e+00
2.158753379924924776e+00
2.158378368480483367e+00
2.158378368480483367e+00
2.094251411481063307e+00
2.065938047425763813e+00
2.065938047425763813e+00
2.071188207647938206e+00
2.071188207647938206e+00
2.008373790704061967e+00
2.080188482314524023e+00
2.080188482314524023e+00
2.036874660481581945e+00
2.004061159092989985e+00
2.084126102481154597e+00
2.123689809869686140e+00
2.123689809869686140e+00
2.186129215369121415e+00
2.186129215369121415e+00
2.124439832758568070e+00
2.103626697592089645e+00
2.103626697592089645e+00
2.152003173924985191e+00
2.152003173924985191e+00
2.059750358592486119e+00
1.939559190649128739e+00
1.939559190649128739e+00
1.880869899594103778e+00
1.880869899594103778e+00
2.046249946592608282e+00
2.093501388592180934e+00
2.093501388592180934e+00
2.120314706869716570e+00
2.095751457258827610e+00
2.095751457258827610e+00
2.045687429425947279e+00
2.045687429425947279e+00
2.081501022370067400e+00
2.077563402203436382e+00
2.077563402203436382e+00
2.034812097537156195e+00
2.034812097537156195e+00
2.008186284981841485e+00
1.990748252815332409e+00
1.990748252815332409e+00
2.125002349925229961e+00
2.125002349925229961e+00
2.143940427869502674e+00
2.097814020203253360e+00
2.097814020203253360e+00
2.043624866481521085e+00
2.043624866481521085e+00
2.092563859981078966e+00
2.145627979369487459e+00
2.145627979369487459e+00
2.118439649647511303e+00
2.141690359202856442e+00
2.141690359202856442e+00
2.119939695425275605e+00
2.045874935148167761e+00
1.958497268593401897e+00
1.958497268593401897e+00
1.848243903927732301e+00
1.848243903927732301e+00
1.959434797204504530e+00
2.030311960203863730e+00
2.030311960203863730e+00
2.110189397869807859e+00
2.099501571703238145e+00
2.099501571703238145e+00
2.095001434369945237e+00
2.147128025147251762e+00
2.147128025147251762e+00
2.102876674703207716e+00
2.046999969481490211e+00
2.046999969481490211e+00
2.095751457258827610e+00
2.095751457258827610e+00
2.114314523758659803e+00
2.061625415814691387e+00
2.061625415814691387e+00
2.061250404370250422e+00
2.061250404370250422e+00
2.068000610370189563e+00
2.068188116092410045e+00
2.068188116092410045e+00
2.090688802758873255e+00
2.112626972258675018e+00
2.112626972258675018e+00
2.085251136814477935e+00
2.085251136814477935e+00
2.022999237037263143e+00
2.046812463759269729e+00
2.046812463759269729e+00
2.064250495925779028e+00
2.064250495925779028e+00
2.025811822870570822e+00
2.035374614703817642e+00
2.035374614703817642e+00
2.081126010925626435e+00
2.081126010925626435e+00
2.093876400036621899e+00
2.051500106814783120e+00
2.051500106814783120e+00
2.071000701925717724e+00
2.071000701925717724e+00
2.107001800592058771e+00
2.125564867091891408e+00
2.125564867091891408e+00
2.095563951536606684e+00
2.086188665425580790e+00
2.086188665425580790e+00
2.156315805536057617e+00
2.156315805536057617e+00
2.169628711813714972e+00
2.137190221869563977e+00
2.137190221869563977e+00
1.928308847315897134e+00
1.928308847315897134e+00
1.960559831537827868e+00
1.984185552537614194e+00
1.984185552537614194e+00
2.026186834315011787e+00
2.026186834315011787e+00
2.047937498092593067e+00
2.108126834925382109e+00
2.108126834925382109e+00
2.103626697592089645e+00
2.103626697592089645e+00
2.070063173314615312e+00
2.099314065981017663e+00
2.099314065981017663e+00
2.060125370036927084e+00
2.109439374980925930e+00
2.109439374980925930e+00
2.154628254036072832e+00
2.154628254036072832e+00
2.063125461592455689e+00
2.052437635425885976e+00
2.052437635425885976e+00
2.026374340037232713e+00
2.026374340037232713e+00
1.997685964537492032e+00
2.037999694814905283e+00
2.037999694814905283e+00
2.098751548814355772e+00
2.098189031647694325e+00
2.046624958037049247e+00
2.046624958037049247e+00
2.032749534592730889e+00
2.032749534592730889e+00
2.056187749870296511e+00
2.076813379314554453e+00
2.076813379314554453e+00
2.079813470870083059e+00
2.079813470870083059e+00
2.074375804925687294e+00
2.077375896481215900e+00
2.077375896481215900e+00
2.092188848536637558e+00
2.069313150425733383e+00
2.069313150425733383e+00
2.065563035981322848e+00
2.065563035981322848e+00
2.063687978759117581e+00
2.086751182592242237e+00
2.086751182592242237e+00
2.103626697592089645e+00
2.103626697592089645e+00
2.102314157536546269e+00
2.100064088869899592e+00
2.100064088869899592e+00
2.101751640369884377e+00
2.101751640369884377e+00
2.109626880703146412e+00
2.063687978759117581e+00
2.063687978759117581e+00
2.056937772759178884e+00
2.056937772759178884e+00
2.109439374980925930e+00
2.098751548814355772e+00
2.098751548814355772e+00
2.049062532425916405e+00
2.041749809259315818e+00
2.041749809259315818e+00
2.040999786370433888e+00
2.040999786370433888e+00
1.925308755760368751e+00
2.113939512314218838e+00
2.113939512314218838e+00
2.125377361369670925e+00
2.125377361369670925e+00
2.110376903592028786e+00
1.992998321481978863e+00
1.969747611926633502e+00
1.969747611926633502e+00
2.086376171147801273e+00
2.086376171147801273e+00
2.161003448591571008e+00
2.154440748313852350e+00
2.154440748313852350e+00
2.034624591814935712e+00
2.058812829981383707e+00
2.058812829981383707e+00
2.155378276924954761e+00
2.155378276924954761e+00
2.053187658314767905e+00
2.033687063203833301e+00
2.033687063203833301e+00
2.022624225592822178e+00
2.022624225592822178e+00
2.004998687704092397e+00
1.990373241370891666e+00
1.990373241370891666e+00
2.017561571092867823e+00
2.017561571092867823e+00
2.057125278481399366e+00
2.052250129703665493e+00
2.052250129703665493e+00
2.063875484481338063e+00
2.062937955870235207e+00
2.062937955870235207e+00
2.107189306314279698e+00
2.107189306314279698e+00
2.102126651814325342e+00
2.075313333536790150e+00
2.075313333536790150e+00
2.098751548814355772e+00
2.098751548814355772e+00
2.119752189703054679e+00
2.054687704092532208e+00
2.054687704092532208e+00
2.069500656147953865e+00
2.069500656147953865e+00
2.083563585314493150e+00
2.058812829981383707e+00
2.058812829981383707e+00
2.031249488814966586e+00
2.031249488814966586e+00
2.056000244148076028e+00
2.054312692648091243e+00
2.054312692648091243e+00
2.053750175481429796e+00
2.053187658314767905e+00
2.053187658314767905e+00
2.078500930814539238e+00
2.078500930814539238e+00
2.083938596758934114e+00
2.067813104647969080e+00
2.067813104647969080e+00
2.078500930814539238e+00
2.078500930814539238e+00
2.080375988036744506e+00
2.068750633259071936e+00
2.068750633259071936e+00
2.076250862147892562e+00
2.076250862147892562e+00
2.076063356425672080e+00
2.074750816370128703e+00
2.074750816370128703e+00
2.118627155369731785e+00
2.118627155369731785e+00
2.119564683980834197e+00
2.069500656147953865e+00
2.069500656147953865e+00
2.026374340037232713e+00
2.050375072481459782e+00
2.050375072481459782e+00
2.045124912259285388e+00
2.045124912259285388e+00
2.071750724814600098e+00
2.103251686147648680e+00
2.103251686147648680e+00
2.077375896481215900e+00
2.077375896481215900e+00
2.051687612537003602e+00
2.034624591814935712e+00
2.034624591814935712e+00
2.041187292092654371e+00
2.041187292092654371e+00
2.056562761314737475e+00
2.083188573870052185e+00
2.083188573870052185e+00
2.078688436536759720e+00
2.121439741203039464e+00
2.121439741203039464e+00
2.108876857814264483e+00
2.108876857814264483e+00
2.098189031647694325e+00
2.084501113925596005e+00
2.084501113925596005e+00
2.096876491592150504e+00
2.157815851313821920e+00
2.157815851313821920e+00
2.066875576036866669e+00
2.066875576036866669e+00
1.938434156315805401e+00
1.968622577593310385e+00
1.968622577593310385e+00
2.104376720480972018e+00
2.104376720480972018e+00
2.135690176091799675e+00
2.075500839259010633e+00
2.075500839259010633e+00
2.076813379314554453e+00
2.076813379314554453e+00
2.062750450148014725e+00
2.056375255592516993e+00
2.056375255592516993e+00
2.040624774925992480e+00
2.040624774925992480e+00
1.989810724204229997e+00
1.985123081148716606e+00
1.985123081148716606e+00
2.009498825037385306e+00
2.009498825037385306e+00
2.035562120426038124e+00
2.063687978759117581e+00
2.063687978759117581e+00
2.081126010925626435e+00
2.079813470870083059e+00
2.079813470870083059e+00
2.068563127536851454e+00
2.068563127536851454e+00
2.071938230536820580e+00
2.069500656147953865e+00
2.067625598925748598e+00
2.068375621814630971e+00
2.068375621814630971e+00
2.069500656147953865e+00
2.069500656147953865e+00
2.081313516647846917e+00
2.094251411481063307e+00
2.094251411481063307e+00
2.081126010925626435e+00
2.072125736259041062e+00
2.072125736259041062e+00
2.063687978759117581e+00
2.063687978759117581e+00
2.055437726981414581e+00
2.067813104647969080e+00
2.067813104647969080e+00
2.105501754814294912e+00
2.105501754814294912e+00
2.074938322092349186e+00
2.034812097537156195e+00
2.034812097537156195e+00
2.065750541703543330e+00
2.077563402203436382e+00
2.077563402203436382e+00
2.067438093203528116e+00
2.067438093203528116e+00
2.042124820703756782e+00
2.023186742759483625e+00
2.023186742759483625e+00
2.017186559648426858e+00
2.017186559648426858e+00
2.069125644703512901e+00
2.085251136814477935e+00
2.085251136814477935e+00
2.096313974425489057e+00
2.135502670369579192e+00
2.135502670369579192e+00
2.130440015869624837e+00
2.130440015869624837e+00
2.084313608203375079e+00
2.073438276314584883e+00
2.073438276314584883e+00
2.038562211981566730e+00
2.038562211981566730e+00
2.041374797814874853e+00
2.051687612537003602e+00
2.051687612537003602e+00
2.061812921536912313e+00
2.061812921536912313e+00
2.006123722037415735e+00
1.990185735648670962e+00
1.990185735648670962e+00
2.131565050202948175e+00
2.131565050202948175e+00
2.162691000091555793e+00
2.126314889980773337e+00
2.126314889980773337e+00
2.086001159703360308e+00
2.085251136814477935e+00
2.085251136814477935e+00
2.054312692648091243e+00
2.054312692648091243e+00
2.017561571092867823e+00
1.978935392315439357e+00
1.978935392315439357e+00
1.939371684926908257e+00
1.939371684926908257e+00
1.970310129093295171e+00
2.008748802148503376e+00
2.008748802148503376e+00
2.063125461592455689e+00
2.063125461592455689e+00
2.098939054536576698e+00
2.095001434369945237e+00
2.095001434369945237e+00
2.106814294869838289e+00
2.059187841425824672e+00
2.059187841425824672e+00
2.056187749870296511e+00
2.056187749870296511e+00
2.035937131870479533e+00
2.073063264870143918e+00
2.073063264870143918e+00
2.077000885036774935e+00
2.077000885036774935e+00
2.076438367870113488e+00
2.057500289925840331e+00
2.057500289925840331e+00
2.074375804925687294e+00
2.064813013092440475e+00
2.064813013092440475e+00
2.064438001647999510e+00
2.064438001647999510e+00
2.076250862147892562e+00
2.073063264870143918e+00
2.073063264870143918e+00
2.028436902981658463e+00
2.028436902981658463e+00
2.056750267036957958e+00
2.048312509537034032e+00
2.048312509537034032e+00
2.046812463759269729e+00
2.046812463759269729e+00
2.110751915036469750e+00
2.083938596758934114e+00
2.083938596758934114e+00
2.084688619647816488e+00
2.067063081759087151e+00
2.067063081759087151e+00
2.067625598925748598e+00
2.067625598925748598e+00
2.097251503036591469e+00
2.025811822870570822e+00
2.025811822870570822e+00
1.996185918759727951e+00
1.996185918759727951e+00
2.015686513870662555e+00
2.056750267036957958e+00
2.056750267036957958e+00
2.071375713370158689e+00
2.071375713370158689e+00
2.073625782036805365e+00
2.053000152592547423e+00
2.053000152592547423e+00
2.032374523148289480e+00
2.046812463759269729e+00
2.046812463759269729e+00
2.062375438703573760e+00
2.062375438703573760e+00
2.065188024536881883e+00
2.098564043092135289e+00
2.098564043092135289e+00
2.136440198980682048e+00
2.136440198980682048e+00
2.127064912869655711e+00
2.127064912869655711e+00
2.100251594592120075e+00
2.100251594592120075e+00
2.062000427259132795e+00
2.013061433759574914e+00
2.013061433759574914e+00
1.994873378704184130e+00
1.994873378704184130e+00
1.972935209204382367e+00
1.977622852259895758e+00
1.977622852259895758e+00
2.029749443037202283e+00
2.074938322092349186e+00
2.074938322092349186e+00
2.071188207647938206e+00
2.071188207647938206e+00
2.095563951536606684e+00
2.064438001647999510e+00
2.064438001647999510e+00
2.103439191869869163e+00
2.077188390758995418e+00
2.077188390758995418e+00
2.089563768425550361e+00
2.089563768425550361e+00
2.117314615314187964e+00
2.058625324259163225e+00
2.058625324259163225e+00
1.951372051149021791e+00
1.951372051149021791e+00
1.986060609759819240e+00
2.017561571092867823e+00
2.017561571092867823e+00
2.065375530259102366e+00
2.054312692648091243e+00
2.054312692648091243e+00
2.043437360759300603e+00
2.043437360759300603e+00
2.041187292092654371e+00
2.049250038148136888e+00
2.049250038148136888e+00
2.085626148258918899e+00
2.085626148258918899e+00
2.126877407147435228e+00
2.093126377147739969e+00
2.093126377147739969e+00
2.094813928647724754e+00
2.094813928647724754e+00
2.071375713370158689e+00
2.044374889370403459e+00
2.044374889370403459e+00
2.053750175481429796e+00
2.049437543870357370e+00
2.049437543870357370e+00
2.036312143314920498e+00
2.036312143314920498e+00
2.025061799981688893e+00
2.034812097537156195e+00
2.034812097537156195e+00
2.051875118259224084e+00
2.051875118259224084e+00
2.069313150425733383e+00
2.096688985869930022e+00
2.096688985869930022e+00
2.088438734092227023e+00
2.088438734092227023e+00
2.060875392925809457e+00
2.073063264870143918e+00
2.073063264870143918e+00
2.053000152592547423e+00
2.053000152592547423e+00
2.063687978759117581e+00
2.065188024536881883e+00
2.065188024536881883e+00
2.069875667592394830e+00
2.093313882869960452e+00
2.093313882869960452e+00
2.078875942258980203e+00
2.078875942258980203e+00
2.065188024536881883e+00
2.082626056703390294e+00
2.082626056703390294e+00
2.060500381481368493e+00
2.060500381481368493e+00
2.050187566759239299e+00
2.036124637592700015e+00
2.036124637592700015e+00
2.035187108981597159e+00
2.066125553147984295e+00
2.066125553147984295e+00
2.087313699758903685e+00
2.087313699758903685e+00
2.065000518814661401e+00
2.079438459425641650e+00
2.079438459425641650e+00
2.104939237647633021e+00
2.104939237647633021e+00
2.086001159703360308e+00
2.103251686147648680e+00
2.103251686147648680e+00
2.027686880092776089e+00
1.974435254982146670e+00
1.974435254982146670e+00
2.017561571092867823e+00
2.017561571092867823e+00
2.059375347148045154e+00
2.042124820703756782e+00
2.042124820703756782e+00
2.059562852870265637e+00
2.059562852870265637e+00
2.104189214758751536e+00
2.079438459425641650e+00
2.079438459425641650e+00
2.054125186925870761e+00
2.054125186925870761e+00
2.059750358592486119e+00
2.063125461592455689e+00
2.063125461592455689e+00
2.076813379314554453e+00
2.070063173314615312e+00
2.070063173314615312e+00
2.059937864314706601e+00
2.059937864314706601e+00
2.065000518814661401e+00
2.068188116092410045e+00
2.068188116092410045e+00
2.084688619647816488e+00
2.084688619647816488e+00
2.047187475203710694e+00
2.018124088259529714e+00
2.018124088259529714e+00
2.047562486648152102e+00
2.047562486648152102e+00
2.076625873592333971e+00
2.081313516647846917e+00
2.059937864314706601e+00
2.059937864314706601e+00
2.053000152592547423e+00
2.061437910092470904e+00
2.061437910092470904e+00
2.071000701925717724e+00
2.071000701925717724e+00
2.065563035981322848e+00
2.068375621814630971e+00
2.068375621814630971e+00
2.070063173314615312e+00
2.070063173314615312e+00
2.077750907925656865e+00
2.072875759147922992e+00
2.072875759147922992e+00
2.045124912259285388e+00
2.045124912259285388e+00
2.045312417981505870e+00
2.070063173314615312e+00
2.070063173314615312e+00
2.065750541703543330e+00
2.055250221259193655e+00
2.055250221259193655e+00
2.054875209814752690e+00
2.054875209814752690e+00
2.057125278481399366e+00
2.063312967314676172e+00
2.063312967314676172e+00
2.069313150425733383e+00
2.069313150425733383e+00
2.056375255592516993e+00
2.051500106814783120e+00
2.051500106814783120e+00
2.066500564592425260e+00
2.081501022370067400e+00
2.081501022370067400e+00
2.075500839259010633e+00
2.075500839259010633e+00
2.063875484481338063e+00
2.063500473036897098e+00
2.063500473036897098e+00
2.066500564592425260e+00
2.066500564592425260e+00
2.081876033814508364e+00
2.067625598925748598e+00
2.067625598925748598e+00
2.057125278481399366e+00
2.057125278481399366e+00
2.066875576036866669e+00
2.050750083925901190e+00
2.050750083925901190e+00
2.045312417981505870e+00
2.045312417981505870e+00
2.074938322092349186e+00
2.051875118259224084e+00
2.051875118259224084e+00
2.051875118259224084e+00
2.072500747703482027e+00
2.072500747703482027e+00
2.073438276314584883e+00
2.073438276314584883e+00
2.075313333536790150e+00
2.081126010925626435e+00
2.081126010925626435e+00
2.084501113925596005e+00
2.084501113925596005e+00
2.075313333536790150e+00
2.056187749870296511e+00
2.056187749870296511e+00
2.056562761314737475e+00
2.056562761314737475e+00
2.064625507370219992e+00
2.044749900814844423e+00
2.044749900814844423e+00
2.028999420148319910e+00
2.053937681203650278e+00
2.053937681203650278e+00
2.071188207647938206e+00
2.071188207647938206e+00
2.054125186925870761e+00
2.047187475203710694e+00
2.047187475203710694e+00
2.050187566759239299e+00
2.050187566759239299e+00
2.051500106814783120e+00
2.073813287759025847e+00
2.073813287759025847e+00
2.089188756981108952e+00
2.095188940092165719e+00
2.095188940092165719e+00
2.096501480147709540e+00
2.070625690481276759e+00
2.070625690481276759e+00
2.082438550981169811e+00
2.082251045258949329e+00
2.082251045258949329e+00
2.073250770592364400e+00
2.073250770592364400e+00
2.066875576036866669e+00
2.049437543870357370e+00
2.049437543870357370e+00
2.043249855037080120e+00
2.043249855037080120e+00
2.032749534592730889e+00
2.019999145481734981e+00
2.019999145481734981e+00
2.031436994537187068e+00
2.031436994537187068e+00
2.045687429425947279e+00
2.060312875759148010e+00
2.060312875759148010e+00
2.063875484481338063e+00
2.063875484481338063e+00
2.062562944425794242e+00
2.069500656147953865e+00
2.069500656147953865e+00
2.065375530259102366e+00
2.082063539536728847e+00
2.082063539536728847e+00
2.078500930814539238e+00
2.078500930814539238e+00
2.077188390758995418e+00
2.075313333536790150e+00
2.075313333536790150e+00
2.060125370036927084e+00
2.060125370036927084e+00
2.073813287759025847e+00
2.049437543870357370e+00
2.049437543870357370e+00
2.047187475203710694e+00
2.047187475203710694e+00
2.086188665425580790e+00
2.096688985869930022e+00
2.046062440870388244e+00
2.046062440870388244e+00
2.020749168370616911e+00
2.020749168370616911e+00
2.026186834315011787e+00
2.063687978759117581e+00
2.063687978759117581e+00
2.071563219092379615e+00
2.073438276314584883e+00
2.073438276314584883e+00
2.058812829981383707e+00
2.058812829981383707e+00
2.049250038148136888e+00
2.041937314981536300e+00
2.041937314981536300e+00
2.053750175481429796e+00
2.053750175481429796e+00
2.057500289925840331e+00
2.068563127536851454e+00
2.068563127536851454e+00
2.065000518814661401e+00
2.051125095370342155e+00
2.051125095370342155e+00
2.036874660481581945e+00
2.036874660481581945e+00
2.056562761314737475e+00
2.071938230536820580e+00
2.071938230536820580e+00
2.074938322092349186e+00
2.074938322092349186e+00
2.092001342814417075e+00
2.102689168980987233e+00
2.102689168980987233e+00
2.061250404370250422e+00
2.061250404370250422e+00
2.046999969481490211e+00
2.062187932981353278e+00
2.062187932981353278e+00
2.059937864314706601e+00
2.053000152592547423e+00
2.053000152592547423e+00
2.034624591814935712e+00
2.034624591814935712e+00
2.064438001647999510e+00
2.068563127536851454e+00
2.068563127536851454e+00
2.074938322092349186e+00
2.074938322092349186e+00
2.070625690481276759e+00
2.072875759147922992e+00
2.072875759147922992e+00
2.077188390758995418e+00
2.077188390758995418e+00
2.049437543870357370e+00
2.029561937314981801e+00
2.029561937314981801e+00
2.049812555314798335e+00
2.049812555314798335e+00
2.053937681203650278e+00
2.069125644703512901e+00
2.069125644703512901e+00
2.055625232703635064e+00
2.050750083925901190e+00
2.050750083925901190e+00
2.073250770592364400e+00
2.073250770592364400e+00
2.095376445814386202e+00
2.066500564592425260e+00
2.066500564592425260e+00
2.044937406537064906e+00
2.044937406537064906e+00
2.060875392925809457e+00
2.076813379314554453e+00
2.076813379314554453e+00
2.070625690481276759e+00
2.054687704092532208e+00
2.054687704092532208e+00
2.030311960203863730e+00
2.030311960203863730e+00
2.035749626148258606e+00
2.044749900814844423e+00
2.044749900814844423e+00
2.050187566759239299e+00
2.050187566759239299e+00
2.053750175481429796e+00
2.057125278481399366e+00
2.057125278481399366e+00
2.059187841425824672e+00
2.059187841425824672e+00
2.080750999481185470e+00
2.070063173314615312e+00
2.072875759147922992e+00
2.072875759147922992e+00
2.083751091036713632e+00
2.083751091036713632e+00
2.082438550981169811e+00
2.042874843592639156e+00
2.042874843592639156e+00
2.060125370036927084e+00
2.045499923703726353e+00
2.045499923703726353e+00
2.064250495925779028e+00
2.064250495925779028e+00
2.052625141148106458e+00
2.059000335703604190e+00
2.059000335703604190e+00
2.065375530259102366e+00
2.065375530259102366e+00
2.050937589648121673e+00
2.040999786370433888e+00
2.040999786370433888e+00
2.042687337870418673e+00
2.042687337870418673e+00
2.046249946592608282e+00
2.060125370036927084e+00
2.060125370036927084e+00
2.065375530259102366e+00
2.065375530259102366e+00
2.048125003814813549e+00
2.049062532425916405e+00
2.049062532425916405e+00
2.063312967314676172e+00
2.066313058870204777e+00
2.066313058870204777e+00
2.066875576036866669e+00
2.066875576036866669e+00
2.043999877925962494e+00
2.053000152592547423e+00
2.053000152592547423e+00
2.056375255592516993e+00
2.056375255592516993e+00
2.085251136814477935e+00
2.061625415814691387e+00
2.072688253425702509e+00
2.090688802758873255e+00
2.090688802758873255e+00
2.071375713370158689e+00
2.071375713370158689e+00
2.038749717703787212e+00
2.042874843592639156e+00
2.042874843592639156e+00
2.062562944425794242e+00
2.062562944425794242e+00
2.058062807092501334e+00
2.043812372203741567e+00
2.043999877925962494e+00
2.043999877925962494e+00
2.043624866481521085e+00
2.043624866481521085e+00
2.056937772759178884e+00
2.061250404370250422e+00
2.061250404370250422e+00
2.061062898648029940e+00
2.061625415814691387e+00
2.061625415814691387e+00
2.065938047425763813e+00
2.072125736259041062e+00
2.072125736259041062e+00
2.065750541703543330e+00
2.061437910092470904e+00
2.061437910092470904e+00
2.066313058870204777e+00
2.066313058870204777e+00
2.066125553147984295e+00
2.054125186925870761e+00
2.054125186925870761e+00
2.050937589648121673e+00
2.050937589648121673e+00
2.053937681203650278e+00
2.053937681203650278e+00
2.053937681203650278e+00
2.059375347148045154e+00
2.059375347148045154e+00
2.059375347148045154e+00
2.064813013092440475e+00
2.064813013092440475e+00
2.069500656147953865e+00
2.069500656147953865e+00
2.073250770592364400e+00
2.074000793481246330e+00
2.074000793481246330e+00
2.068938138981292418e+00
2.067438093203528116e+00
2.067438093203528116e+00
2.064250495925779028e+00
2.064250495925779028e+00
2.035937131870479533e+00
2.054875209814752690e+00
2.054875209814752690e+00
2.074000793481246330e+00
2.074000793481246330e+00
2.047749992370372585e+00
2.037999694814905283e+00
2.037999694814905283e+00
2.081126010925626435e+00
2.081126010925626435e+00
2.049250038148136888e+00
2.039874752037110550e+00
2.039874752037110550e+00
2.081688528092287882e+00
2.081688528092287882e+00
2.077563402203436382e+00
2.057500289925840331e+00
2.057500289925840331e+00
2.047749992370372585e+00
2.077563402203436382e+00
2.077563402203436382e+00
2.052437635425885976e+00
2.052437635425885976e+00
2.050562578203680708e+00
2.077000885036774935e+00
2.077000885036774935e+00
2.068188116092410045e+00
2.068188116092410045e+00
2.054875209814752690e+00
2.055062715536973172e+00
2.055062715536973172e+00
2.064438001647999510e+00
2.064438001647999510e+00
2.062562944425794242e+00
2.056562761314737475e+00
2.056562761314737475e+00
2.054687704092532208e+00
2.063125461592455689e+00
2.063125461592455689e+00
2.067063081759087151e+00
2.064062990203558545e+00
2.064062990203558545e+00
2.057875301370280852e+00
2.057875301370280852e+00
2.057312784203619849e+00
2.063875484481338063e+00
2.063875484481338063e+00
2.067625598925748598e+00
2.067625598925748598e+00
2.068750633259071936e+00
2.070625690481276759e+00
2.070625690481276759e+00
2.060125370036927084e+00
2.060125370036927084e+00
2.056750267036957958e+00
2.049062532425916405e+00
2.049062532425916405e+00
2.056562761314737475e+00
2.059750358592486119e+00
2.059750358592486119e+00
2.062000427259132795e+00
2.062000427259132795e+00
2.066688070314646186e+00
2.074563310647907777e+00
2.074563310647907777e+00
2.061625415814691387e+00
2.061625415814691387e+00
2.055437726981414581e+00
2.061625415814691387e+00
2.061625415814691387e+00
2.070625690481276759e+00
2.070625690481276759e+00
2.056750267036957958e+00
2.055250221259193655e+00
2.055250221259193655e+00
2.046999969481490211e+00
2.046999969481490211e+00
2.046062440870388244e+00
2.054312692648091243e+00
2.070625690481276759e+00
2.072313241981261545e+00
2.072313241981261545e+00
2.058250312814721816e+00
2.058250312814721816e+00
2.041374797814874853e+00
2.089938779869991325e+00
2.089938779869991325e+00
2.067063081759087151e+00
2.067063081759087151e+00
2.069313150425733383e+00
2.062937955870235207e+00
2.062937955870235207e+00
2.055812738425855546e+00
2.055812738425855546e+00
2.074563310647907777e+00
2.077375896481215900e+00
2.077375896481215900e+00
2.088063722647786058e+00
2.062187932981353278e+00
2.062187932981353278e+00
2.059562852870265637e+00
2.065375530259102366e+00
2.065375530259102366e+00
2.066313058870204777e+00
2.066313058870204777e+00
2.057125278481399366e+00
2.061625415814691387e+00
2.061625415814691387e+00
2.074750816370128703e+00
2.074750816370128703e+00
2.085063631092257452e+00
2.064438001647999510e+00
2.064438001647999510e+00
2.059000335703604190e+00
2.060687887203588975e+00
2.060687887203588975e+00
2.043999877925962494e+00
2.043999877925962494e+00
2.040437269203771997e+00
2.052250129703665493e+00
2.052250129703665493e+00
2.062750450148014725e+00
2.062750450148014725e+00
2.067438093203528116e+00
2.068938138981292418e+00
2.068938138981292418e+00
2.070063173314615312e+00
2.070063173314615312e+00
2.068563127536851454e+00
2.071188207647938206e+00
2.071188207647938206e+00
2.067063081759087151e+00
2.067063081759087151e+00
2.062750450148014725e+00
2.066688070314646186e+00
2.066688070314646186e+00
2.074000793481246330e+00
2.039499740592669585e+00
2.039499740592669585e+00
2.032562028870509963e+00
2.032562028870509963e+00
2.058062807092501334e+00
2.071000701925717724e+00
2.071000701925717724e+00
2.068188116092410045e+00
2.068188116092410045e+00
2.073063264870143918e+00
2.061625415814691387e+00
2.061625415814691387e+00
2.062000427259132795e+00
2.062000427259132795e+00
2.072688253425702509e+00
2.075313333536790150e+00
2.075313333536790150e+00
2.067813104647969080e+00
2.067813104647969080e+00
2.051312601092562637e+00
2.054312692648091243e+00
2.054312692648091243e+00
2.059562852870265637e+00
2.058625324259163225e+00
2.058625324259163225e+00
2.057125278481399366e+00
2.057125278481399366e+00
2.070063173314615312e+00
2.065375530259102366e+00
2.065375530259102366e+00
2.070813196203497242e+00
2.073438276314584883e+00
2.073438276314584883e+00
2.074375804925687294e+00
2.074375804925687294e+00
2.071563219092379615e+00
2.074375804925687294e+00
2.074375804925687294e+00
2.062562944425794242e+00
2.062562944425794242e+00
2.048500015259254514e+00
2.062750450148014725e+00
2.062750450148014725e+00
2.064625507370219992e+00
2.056187749870296511e+00
2.056187749870296511e+00
2.057500289925840331e+00
2.057500289925840331e+00
2.056187749870296511e+00
2.061625415814691387e+00
2.061625415814691387e+00
2.070063173314615312e+00
2.070063173314615312e+00
2.059562852870265637e+00
2.069875667592394830e+00
2.069875667592394830e+00
2.075313333536790150e+00
2.075313333536790150e+00
2.081876033814508364e+00
2.066875576036866669e+00
2.066875576036866669e+00
2.050187566759239299e+00
2.050187566759239299e+00
2.046437452314828764e+00
2.071188207647938206e+00
2.071188207647938206e+00
2.078875942258980203e+00
2.068000610370189563e+00
2.068000610370189563e+00
2.068938138981292418e+00
2.068938138981292418e+00
2.057687795648060813e+00
2.049625049592577852e+00
2.049625049592577852e+00
2.058062807092501334e+00
2.058062807092501334e+00
2.052437635425885976e+00
2.074563310647907777e+00
2.077938413647877791e+00
2.077938413647877791e+00
2.070063173314615312e+00
2.070063173314615312e+00
2.070438184759056277e+00
2.068000610370189563e+00
2.068000610370189563e+00
2.065750541703543330e+00
2.065375530259102366e+00
2.065375530259102366e+00
2.055625232703635064e+00
2.055625232703635064e+00
2.050562578203680708e+00
2.049625049592577852e+00
2.049625049592577852e+00
2.058812829981383707e+00
2.058812829981383707e+00
2.063312967314676172e+00
2.060500381481368493e+00
2.060500381481368493e+00
2.048875026703695923e+00
2.048875026703695923e+00
2.062937955870235207e+00
2.079063447981200685e+00
2.079063447981200685e+00
2.072500747703482027e+00
2.059750358592486119e+00
2.059750358592486119e+00
2.060500381481368493e+00
2.060500381481368493e+00
2.067813104647969080e+00
2.074563310647907777e+00
2.074563310647907777e+00
2.062187932981353278e+00
2.062187932981353278e+00
2.056937772759178884e+00
2.065938047425763813e+00
2.065938047425763813e+00
2.068375621814630971e+00
2.068375621814630971e+00
2.070063173314615312e+00
2.068563127536851454e+00
2.068563127536851454e+00
2.075313333536790150e+00
2.075313333536790150e+00
2.078688436536759720e+00
2.067813104647969080e+00
2.067813104647969080e+00
2.058062807092501334e+00
2.058062807092501334e+00
2.056750267036957958e+00
2.058812829981383707e+00
2.058812829981383707e+00
2.069313150425733383e+00
2.063687978759117581e+00
2.063687978759117581e+00
2.071188207647938206e+00
2.071188207647938206e+00
2.065188024536881883e+00
2.056937772759178884e+00
2.056937772759178884e+00
2.048500015259254514e+00
2.048500015259254514e+00
2.065938047425763813e+00
2.061625415814691387e+00
2.061625415814691387e+00
2.059000335703604190e+00
2.059000335703604190e+00
2.065188024536881883e+00
2.070813196203497242e+00
2.070813196203497242e+00
2.075500839259010633e+00
2.075500839259010633e+00
2.078125919370098273e+00
2.068750633259071936e+00
2.068750633259071936e+00
2.059562852870265637e+00
2.053187658314767905e+00
2.053187658314767905e+00
2.054125186925870761e+00
2.054125186925870761e+00
2.058812829981383707e+00
2.067813104647969080e+00
2.067813104647969080e+00
2.071375713370158689e+00
2.071375713370158689e+00
2.076625873592333971e+00
2.073625782036805365e+00
2.069688161870173904e+00
2.082438550981169811e+00
2.082438550981169811e+00
2.071750724814600098e+00
2.071750724814600098e+00
2.060312875759148010e+00
2.055062715536973172e+00
2.055062715536973172e+00
2.053187658314767905e+00
2.053187658314767905e+00
2.037812189092684800e+00
2.052437635425885976e+00
2.052437635425885976e+00
2.059187841425824672e+00
2.076063356425672080e+00
2.076063356425672080e+00
2.072500747703482027e+00
2.072500747703482027e+00
2.059000335703604190e+00
2.066688070314646186e+00
2.066688070314646186e+00
2.085063631092257452e+00
2.085063631092257452e+00
2.078688436536759720e+00
2.084876125370036970e+00
2.084876125370036970e+00
2.080750999481185470e+00
2.080750999481185470e+00
2.087313699758903685e+00
2.080938505203405953e+00
2.080938505203405953e+00
2.065563035981322848e+00
2.065563035981322848e+00
2.056937772759178884e+00
2.047937498092593067e+00
2.047937498092593067e+00
2.034249580370494748e+00
2.047562486648152102e+00
2.047562486648152102e+00
2.061062898648029940e+00
2.061062898648029940e+00
2.055250221259193655e+00
2.061625415814691387e+00
2.067438093203528116e+00
2.078688436536759720e+00
2.078688436536759720e+00
2.073813287759025847e+00
2.070250679036835795e+00
2.070250679036835795e+00
2.075313333536790150e+00
2.075313333536790150e+00
2.075875850703451597e+00
2.071188207647938206e+00
2.071188207647938206e+00
2.070063173314615312e+00
2.063500473036897098e+00
2.063500473036897098e+00
2.055812738425855546e+00
2.056937772759178884e+00
2.056937772759178884e+00
2.064625507370219992e+00
2.061625415814691387e+00
2.061625415814691387e+00
2.065188024536881883e+00
2.065188024536881883e+00
2.061625415814691387e+00
2.052062623981445011e+00
2.052062623981445011e+00
2.055437726981414581e+00
2.070063173314615312e+00
2.070063173314615312e+00
2.073250770592364400e+00
2.073250770592364400e+00
2.071000701925717724e+00
2.063500473036897098e+00
2.063500473036897098e+00
2.078313425092318756e+00
2.078313425092318756e+00
2.095188940092165719e+00
2.076813379314554453e+00
2.076813379314554453e+00
2.068750633259071936e+00
2.068750633259071936e+00
2.073250770592364400e+00
2.059375347148045154e+00
2.059375347148045154e+00
2.042312326425977265e+00
2.072688253425702509e+00
2.072688253425702509e+00
2.076063356425672080e+00
2.076063356425672080e+00
2.057875301370280852e+00
2.060125370036927084e+00
2.060125370036927084e+00
2.068563127536851454e+00
2.068563127536851454e+00
2.052250129703665493e+00
2.063125461592455689e+00
2.063125461592455689e+00
2.070438184759056277e+00
2.070438184759056277e+00
2.070063173314615312e+00
2.071563219092379615e+00
2.071563219092379615e+00
2.038562211981566730e+00
2.063687978759117581e+00
2.063687978759117581e+00
2.067063081759087151e+00
2.067063081759087151e+00
2.070250679036835795e+00
2.052625141148106458e+00
2.052625141148106458e+00
2.051500106814783120e+00
2.051500106814783120e+00
2.055437726981414581e+00
2.049437543870357370e+00
2.049437543870357370e+00
2.070063173314615312e+00
2.070063173314615312e+00
2.073625782036805365e+00
2.076250862147892562e+00
2.076250862147892562e+00
2.063125461592455689e+00
2.063125461592455689e+00
2.072313241981261545e+00
2.072500747703482027e+00
2.072500747703482027e+00
2.067813104647969080e+00
2.066125553147984295e+00
2.066125553147984295e+00
2.068563127536851454e+00
2.068563127536851454e+00
2.083001068147831703e+00
2.081688528092287882e+00
2.081688528092287882e+00
2.072125736259041062e+00
2.073813287759025847e+00
2.073813287759025847e+00
2.055812738425855546e+00
2.055812738425855546e+00
2.055625232703635064e+00
2.059937864314706601e+00
2.059937864314706601e+00
2.071938230536820580e+00
2.071938230536820580e+00
2.063687978759117581e+00
2.074563310647907777e+00
2.074563310647907777e+00
2.067813104647969080e+00
2.067813104647969080e+00
2.065750541703543330e+00
2.059750358592486119e+00
2.059750358592486119e+00
2.067063081759087151e+00
2.059562852870265637e+00
2.059562852870265637e+00
2.054125186925870761e+00
2.054125186925870761e+00
2.068000610370189563e+00
2.070438184759056277e+00
2.070438184759056277e+00
2.085813653981139382e+00
2.085813653981139382e+00
2.087876216925565576e+00
2.083376079592272667e+00
2.083376079592272667e+00
2.070063173314615312e+00
2.070063173314615312e+00
2.056750267036957958e+00
2.061625415814691387e+00
2.061625415814691387e+00
2.061437910092470904e+00
2.061437910092470904e+00
2.063500473036897098e+00
2.051125095370342155e+00
2.051125095370342155e+00
2.053000152592547423e+00
2.094063905758842381e+00
2.070625690481276759e+00
2.070625690481276759e+00
2.071750724814600098e+00
2.071750724814600098e+00
2.076625873592333971e+00
2.094251411481063307e+00
2.094251411481063307e+00
2.074750816370128703e+00
2.074750816370128703e+00
2.053187658314767905e+00
2.048500015259254514e+00
2.048500015259254514e+00
2.047562486648152102e+00
2.047562486648152102e+00
2.061062898648029940e+00
2.071188207647938206e+00
2.071188207647938206e+00
2.066688070314646186e+00
2.082063539536728847e+00
2.082063539536728847e+00
2.075688344981231115e+00
2.075688344981231115e+00
2.076438367870113488e+00
2.073813287759025847e+00
2.073813287759025847e+00
2.072500747703482027e+00
2.072500747703482027e+00
2.074750816370128703e+00
2.070813196203497242e+00
2.070813196203497242e+00
2.062562944425794242e+00
2.062562944425794242e+00
2.065375530259102366e+00
2.069875667592394830e+00
2.069875667592394830e+00
2.064062990203558545e+00
2.064062990203558545e+00
2.064062990203558545e+00
2.082251045258949329e+00
2.082251045258949329e+00
2.061812921536912313e+00
2.051875118259224084e+00
2.051875118259224084e+00
2.061812921536912313e+00
2.061812921536912313e+00
2.078313425092318756e+00
2.077375896481215900e+00
2.077375896481215900e+00
2.073813287759025847e+00
2.073813287759025847e+00
2.066688070314646186e+00
2.062750450148014725e+00
2.062750450148014725e+00
2.067625598925748598e+00
2.067625598925748598e+00
2.070438184759056277e+00
2.058437818536942299e+00
2.058437818536942299e+00
2.071563219092379615e+00
2.084313608203375079e+00
2.084313608203375079e+00
2.067250587481307633e+00
2.067250587481307633e+00
2.073625782036805365e+00
2.067250587481307633e+00
2.067250587481307633e+00
2.050375072481459782e+00
2.050375072481459782e+00
2.057687795648060813e+00
2.066688070314646186e+00
2.066688070314646186e+00
2.070813196203497242e+00
2.070813196203497242e+00
2.077750907925656865e+00
2.081688528092287882e+00
2.081688528092287882e+00
2.079813470870083059e+00
2.079813470870083059e+00
2.071188207647938206e+00
2.067063081759087151e+00
2.067063081759087151e+00
2.064625507370219992e+00
2.063875484481338063e+00
2.063875484481338063e+00
2.061812921536912313e+00
2.061812921536912313e+00
2.070063173314615312e+00
2.078125919370098273e+00
2.078125919370098273e+00
2.075125827814569668e+00
2.075125827814569668e+00
2.061625415814691387e+00
2.065750541703543330e+00
2.065750541703543330e+00
2.055812738425855546e+00
2.070813196203497242e+00
2.070813196203497242e+00
2.079438459425641650e+00
2.079438459425641650e+00
2.061625415814691387e+00
2.066875576036866669e+00
2.066875576036866669e+00
2.075500839259010633e+00
2.075500839259010633e+00
2.068188116092410045e+00
2.061437910092470904e+00
2.061437910092470904e+00
2.080750999481185470e+00
2.080750999481185470e+00
2.081876033814508364e+00
2.075875850703451597e+00
2.075875850703451597e+00
2.081688528092287882e+00
2.081688528092287882e+00
2.063687978759117581e+00
2.054125186925870761e+00
2.054125186925870761e+00
2.058250312814721816e+00
2.062000427259132795e+00
2.062000427259132795e+00
2.060687887203588975e+00
2.060687887203588975e+00
2.051312601092562637e+00
2.039312234870449103e+00
2.039312234870449103e+00
2.053937681203650278e+00
2.053937681203650278e+00
2.074188299203466812e+00
2.074000793481246330e+00
2.074000793481246330e+00
2.061250404370250422e+00
2.061250404370250422e+00
2.060875392925809457e+00
2.065375530259102366e+00
2.065375530259102366e+00
2.074938322092349186e+00
2.072875759147922992e+00
2.072875759147922992e+00
2.070625690481276759e+00
2.070625690481276759e+00
2.076813379314554453e+00
2.073813287759025847e+00
2.073813287759025847e+00
2.071188207647938206e+00
2.071188207647938206e+00
2.069125644703512901e+00
2.062187932981353278e+00
2.062187932981353278e+00
2.056187749870296511e+00
2.056187749870296511e+00
2.059000335703604190e+00
2.063875484481338063e+00
2.063875484481338063e+00
2.077375896481215900e+00
2.073250770592364400e+00
2.073250770592364400e+00
2.075500839259010633e+00
2.075500839259010633e+00
2.080563493758964988e+00
2.084688619647816488e+00
2.084688619647816488e+00
2.074188299203466812e+00
2.074188299203466812e+00
2.063500473036897098e+00
2.064250495925779028e+00
2.064250495925779028e+00
2.063125461592455689e+00
2.063125461592455689e+00
2.067250587481307633e+00
2.059187841425824672e+00
2.059187841425824672e+00
2.061437910092470904e+00
2.056937772759178884e+00
2.056937772759178884e+00
2.052250129703665493e+00
2.052250129703665493e+00
2.050562578203680708e+00
2.064625507370219992e+00
2.064625507370219992e+00
2.078688436536759720e+00
2.078688436536759720e+00
2.084126102481154597e+00
2.082626056703390294e+00
2.082626056703390294e+00
2.075875850703451597e+00
2.075875850703451597e+00
2.067625598925748598e+00
2.059562852870265637e+00
2.059562852870265637e+00
2.048875026703695923e+00
2.048875026703695923e+00
2.052625141148106458e+00
2.057500289925840331e+00
2.057500289925840331e+00
2.072500747703482027e+00
2.087313699758903685e+00
2.087313699758903685e+00
2.078125919370098273e+00
2.078125919370098273e+00
2.047937498092593067e+00
2.051687612537003602e+00
2.051687612537003602e+00
2.051125095370342155e+00
2.051125095370342155e+00
2.051312601092562637e+00
2.061062898648029940e+00
2.061062898648029940e+00
2.069313150425733383e+00
2.069313150425733383e+00
2.074000793481246330e+00
2.073625782036805365e+00
2.073625782036805365e+00
2.075313333536790150e+00
2.068375621814630971e+00
2.068375621814630971e+00
2.064625507370219992e+00
2.064625507370219992e+00
2.071375713370158689e+00
2.052062623981445011e+00
2.052062623981445011e+00
2.046062440870388244e+00
2.046062440870388244e+00
2.063687978759117581e+00
2.059750358592486119e+00
2.059750358592486119e+00
2.066313058870204777e+00
2.078500930814539238e+00
2.078500930814539238e+00
2.073813287759025847e+00
2.073813287759025847e+00
2.071750724814600098e+00
2.068188116092410045e+00
2.068188116092410045e+00
2.066125553147984295e+00
2.066125553147984295e+00
2.066875576036866669e+00
2.047562486648152102e+00
2.047562486648152102e+00
2.054312692648091243e+00
2.054312692648091243e+00
2.064250495925779028e+00
2.065750541703543330e+00
2.065750541703543330e+00
2.076250862147892562e+00
2.069500656147953865e+00
2.069500656147953865e+00
2.068000610370189563e+00
2.068000610370189563e+00
2.077938413647877791e+00
2.071000701925717724e+00
2.071000701925717724e+00
2.071375713370158689e+00
2.071375713370158689e+00
2.062750450148014725e+00
2.060875392925809457e+00
2.060875392925809457e+00
2.050375072481459782e+00
2.057500289925840331e+00
2.057500289925840331e+00
2.050750083925901190e+00
2.050750083925901190e+00
2.059187841425824672e+00
2.067438093203528116e+00
2.067438093203528116e+00
2.079250953703421168e+00
2.079250953703421168e+00
2.071563219092379615e+00
2.073250770592364400e+00
2.073250770592364400e+00
2.075688344981231115e+00
2.062000427259132795e+00
2.062000427259132795e+00
2.041187292092654371e+00
2.041187292092654371e+00
2.046437452314828764e+00
2.064250495925779028e+00
2.064250495925779028e+00
2.067438093203528116e+00
2.067438093203528116e+00
2.062562944425794242e+00
2.059000335703604190e+00
2.059000335703604190e+00
2.062000427259132795e+00
2.062000427259132795e+00
2.069313150425733383e+00
2.056937772759178884e+00
2.056937772759178884e+00
2.067813104647969080e+00
2.067813104647969080e+00
2.070063173314615312e+00
2.060687887203588975e+00
2.060687887203588975e+00
2.067813104647969080e+00
2.064813013092440475e+00
2.064813013092440475e+00
2.068188116092410045e+00
2.068188116092410045e+00
2.065563035981322848e+00
2.056000244148076028e+00
2.056000244148076028e+00
2.053375164036988387e+00
2.053375164036988387e+00
2.062937955870235207e+00
2.068188116092410045e+00
2.068188116092410045e+00
2.074750816370128703e+00
2.074750816370128703e+00
2.078875942258980203e+00
2.080000976592303541e+00
2.080000976592303541e+00
2.076813379314554453e+00
2.069875667592394830e+00
2.069875667592394830e+00
2.061062898648029940e+00
2.061062898648029940e+00
2.061250404370250422e+00
2.058062807092501334e+00
2.058062807092501334e+00
2.068750633259071936e+00
2.068750633259071936e+00
2.062375438703573760e+00
2.041749809259315818e+00
2.041749809259315818e+00
2.027686880092776089e+00
2.027686880092776089e+00
2.049437543870357370e+00
2.046249946592608282e+00
2.046249946592608282e+00
2.075875850703451597e+00
2.075875850703451597e+00
2.074375804925687294e+00
2.067063081759087151e+00
2.067063081759087151e+00
2.062750450148014725e+00
2.070813196203497242e+00
2.070813196203497242e+00
2.067438093203528116e+00
2.067438093203528116e+00
2.060312875759148010e+00
2.057125278481399366e+00
2.057125278481399366e+00
2.079438459425641650e+00
2.079438459425641650e+00
2.090313791314432290e+00
2.092751365703299449e+00
2.092751365703299449e+00
2.079625965147862576e+00
2.079625965147862576e+00
2.060687887203588975e+00
2.058250312814721816e+00
2.058250312814721816e+00
2.059000335703604190e+00
2.043437360759300603e+00
2.043437360759300603e+00
2.047374980925931620e+00
2.047374980925931620e+00
2.050000061037018817e+00
2.054687704092532208e+00
2.054687704092532208e+00
2.061812921536912313e+00
2.061812921536912313e+00
2.072500747703482027e+00
2.077938413647877791e+00
2.077938413647877791e+00
2.076438367870113488e+00
2.076438367870113488e+00
2.074563310647907777e+00
2.076063356425672080e+00
2.076063356425672080e+00
2.078313425092318756e+00
2.081126010925626435e+00
2.081126010925626435e+00
2.062562944425794242e+00
2.062562944425794242e+00
2.050187566759239299e+00
2.052437635425885976e+00
2.052437635425885976e+00
2.069313150425733383e+00
2.069313150425733383e+00
2.058250312814721816e+00
2.055437726981414581e+00
2.055437726981414581e+00
2.066313058870204777e+00
2.066313058870204777e+00
2.047749992370372585e+00
2.025249305703909375e+00
2.025249305703909375e+00
2.042312326425977265e+00
2.042312326425977265e+00
2.062562944425794242e+00
2.070438184759056277e+00
2.070438184759056277e+00
2.077563402203436382e+00
2.072875759147922992e+00
2.072875759147922992e+00
2.053562669759208870e+00
2.053562669759208870e+00
2.056562761314737475e+00
2.057687795648060813e+00
2.057687795648060813e+00
2.062187932981353278e+00
2.062187932981353278e+00
2.079438459425641650e+00
2.083751091036713632e+00
2.083751091036713632e+00
2.072688253425702509e+00
2.071188207647938206e+00
2.071188207647938206e+00
2.056187749870296511e+00
2.056187749870296511e+00
2.063875484481338063e+00
2.048312509537034032e+00
2.048312509537034032e+00
2.043249855037080120e+00
2.043249855037080120e+00
2.052250129703665493e+00
2.064813013092440475e+00
2.064813013092440475e+00
2.070813196203497242e+00
2.070813196203497242e+00
2.067250587481307633e+00
2.040249763481551515e+00
2.040249763481551515e+00
2.060500381481368493e+00
2.066688070314646186e+00
2.066688070314646186e+00
2.078688436536759720e+00
2.078688436536759720e+00
2.079438459425641650e+00
2.077188390758995418e+00
2.077188390758995418e+00
2.052250129703665493e+00
2.052250129703665493e+00
2.047374980925931620e+00
2.068563127536851454e+00
2.068563127536851454e+00
2.073625782036805365e+00
2.073625782036805365e+00
2.060125370036927084e+00
2.056000244148076028e+00
2.056000244148076028e+00
2.069313150425733383e+00
2.074188299203466812e+00
2.074188299203466812e+00
2.068000610370189563e+00
2.068000610370189563e+00
2.050187566759239299e+00
2.039312234870449103e+00
2.039312234870449103e+00
2.058625324259163225e+00
2.058625324259163225e+00
2.059562852870265637e+00
2.064438001647999510e+00
2.064438001647999510e+00
2.066125553147984295e+00
2.081876033814508364e+00
2.081876033814508364e+00
2.078125919370098273e+00
2.078125919370098273e+00
2.072875759147922992e+00
2.077000885036774935e+00
2.077000885036774935e+00
2.067625598925748598e+00
2.067625598925748598e+00
2.057125278481399366e+00
2.032187017426068998e+00
2.032187017426068998e+00
2.028624408703878945e+00
2.028624408703878945e+00
2.044562395092623941e+00
2.059562852870265637e+00
2.059562852870265637e+00
2.076063356425672080e+00
2.076063356425672080e+00
2.083751091036713632e+00
2.063312967314676172e+00
2.063312967314676172e+00
2.071375713370158689e+00
2.077938413647877791e+00
2.077938413647877791e+00
2.076625873592333971e+00
2.076625873592333971e+00
2.056750267036957958e+00
2.051312601092562637e+00
2.051312601092562637e+00
2.056375255592516993e+00
2.056375255592516993e+00
2.059000335703604190e+00
2.064438001647999510e+00
2.064438001647999510e+00
2.056187749870296511e+00
2.056187749870296511e+00
2.056750267036957958e+00
2.063875484481338063e+00
2.063875484481338063e+00
2.059375347148045154e+00
2.066875576036866669e+00
2.066875576036866669e+00
2.071750724814600098e+00
2.071750724814600098e+00
2.055062715536973172e+00
2.056562761314737475e+00
2.056562761314737475e+00
2.062750450148014725e+00
2.062750450148014725e+00
2.065563035981322848e+00
2.069313150425733383e+00
2.069313150425733383e+00
2.065938047425763813e+00
2.065938047425763813e+00
2.057125278481399366e+00
2.054875209814752690e+00
2.054875209814752690e+00
2.075125827814569668e+00
2.068000610370189563e+00
2.068000610370189563e+00
2.059750358592486119e+00
2.059750358592486119e+00
2.063500473036897098e+00
2.070250679036835795e+00
2.070250679036835795e+00
2.076250862147892562e+00
2.076250862147892562e+00
2.069313150425733383e+00
2.077750907925656865e+00
2.077750907925656865e+00
2.060500381481368493e+00
2.060500381481368493e+00
2.051312601092562637e+00
2.056562761314737475e+00
2.056562761314737475e+00
2.067063081759087151e+00
2.067063081759087151e+00
2.065563035981322848e+00
2.058437818536942299e+00
2.058437818536942299e+00
2.051312601092562637e+00
2.056937772759178884e+00
2.056937772759178884e+00
2.053375164036988387e+00
2.053375164036988387e+00
2.067625598925748598e+00
2.076063356425672080e+00
2.076063356425672080e+00
2.060875392925809457e+00
2.060875392925809457e+00
2.057875301370280852e+00
2.057687795648060813e+00
2.057687795648060813e+00
2.055812738425855546e+00
2.086563676870021755e+00
2.086563676870021755e+00
2.059750358592486119e+00
2.059750358592486119e+00
2.046249946592608282e+00
2.060500381481368493e+00
2.060500381481368493e+00
2.066500564592425260e+00
2.066500564592425260e+00
2.065750541703543330e+00
2.055625232703635064e+00
2.055625232703635064e+00
2.054125186925870761e+00
2.055437726981414581e+00
2.055437726981414581e+00
2.074563310647907777e+00
2.074563310647907777e+00
2.073438276314584883e+00
2.058437818536942299e+00
2.058437818536942299e+00
2.069313150425733383e+00
2.069313150425733383e+00
2.060875392925809457e+00
2.065938047425763813e+00
2.065938047425763813e+00
2.056375255592516993e+00
2.056375255592516993e+00
2.058062807092501334e+00
2.064625507370219992e+00
2.064625507370219992e+00
2.058250312814721816e+00
2.060125370036927084e+00
2.060125370036927084e+00
2.067438093203528116e+00
2.067438093203528116e+00
2.064250495925779028e+00
2.059187841425824672e+00
2.059187841425824672e+00
2.073063264870143918e+00
2.073063264870143918e+00
2.054500198370311725e+00
2.052250129703665493e+00
2.052250129703665493e+00
2.052062623981445011e+00
2.052062623981445011e+00
2.061812921536912313e+00
2.059000335703604190e+00
2.059000335703604190e+00
2.067438093203528116e+00
2.067438093203528116e+00
2.071938230536820580e+00
2.061437910092470904e+00
2.061437910092470904e+00
2.055625232703635064e+00
2.058062807092501334e+00
2.058062807092501334e+00
2.062562944425794242e+00
2.062562944425794242e+00
2.068000610370189563e+00
2.071000701925717724e+00
2.071000701925717724e+00
2.078875942258980203e+00
2.078875942258980203e+00
2.075125827814569668e+00
2.082813562425611220e+00
2.082813562425611220e+00
2.084126102481154597e+00
2.084126102481154597e+00
2.058625324259163225e+00
2.030874477370525177e+00
2.030874477370525177e+00
2.053750175481429796e+00
2.053750175481429796e+00
2.046062440870388244e+00
2.043062349314859638e+00
2.043062349314859638e+00
2.063687978759117581e+00
2.075313333536790150e+00
2.075313333536790150e+00
2.075688344981231115e+00
2.075688344981231115e+00
2.077938413647877791e+00
2.068375621814630971e+00
2.062375438703573760e+00
2.062375438703573760e+00
2.045874935148167761e+00
2.049625049592577852e+00
2.049625049592577852e+00
2.052062623981445011e+00
2.052062623981445011e+00
2.055437726981414581e+00
2.060875392925809457e+00
2.060875392925809457e+00
2.071563219092379615e+00
2.071563219092379615e+00
2.080188482314524023e+00
2.079813470870083059e+00
2.079813470870083059e+00
2.073063264870143918e+00
2.073063264870143918e+00
2.070438184759056277e+00
2.063875484481338063e+00
2.063875484481338063e+00
2.043062349314859638e+00
2.043062349314859638e+00
2.042687337870418673e+00
2.061812921536912313e+00
2.061812921536912313e+00
2.062000427259132795e+00
2.053937681203650278e+00
2.053937681203650278e+00
2.050000061037018817e+00
2.050000061037018817e+00
2.058062807092501334e+00
2.065563035981322848e+00
2.065563035981322848e+00
2.064813013092440475e+00
2.064813013092440475e+00
2.071938230536820580e+00
2.069313150425733383e+00
2.069313150425733383e+00
2.065750541703543330e+00
2.065750541703543330e+00
2.069125644703512901e+00
2.069313150425733383e+00
2.069313150425733383e+00
2.080000976592303541e+00
2.060687887203588975e+00
2.060687887203588975e+00
2.052250129703665493e+00
2.052250129703665493e+00
2.054125186925870761e+00
2.057312784203619849e+00
2.057312784203619849e+00
2.059562852870265637e+00
2.054125186925870761e+00
2.054125186925870761e+00
2.054125186925870761e+00
2.056187749870296511e+00
2.056187749870296511e+00
2.064438001647999510e+00
2.062562944425794242e+00
2.062562944425794242e+00
2.065750541703543330e+00
2.065750541703543330e+00
2.070625690481276759e+00
2.071750724814600098e+00
2.071750724814600098e+00
2.061625415814691387e+00
2.061625415814691387e+00
2.061437910092470904e+00
2.063875484481338063e+00
2.063875484481338063e+00
2.057312784203619849e+00
2.053187658314767905e+00
2.053187658314767905e+00
2.062000427259132795e+00
2.062000427259132795e+00
2.076063356425672080e+00
2.073250770592364400e+00
2.073250770592364400e+00
2.069875667592394830e+00
2.069875667592394830e+00
2.049250038148136888e+00
2.048875026703695923e+00
2.048875026703695923e+00
2.056000244148076028e+00
2.060687887203588975e+00
2.060687887203588975e+00
2.048875026703695923e+00
2.048875026703695923e+00
2.053750175481429796e+00
2.061250404370250422e+00
2.061250404370250422e+00
2.064438001647999510e+00
2.064438001647999510e+00
2.072125736259041062e+00
2.074375804925687294e+00
2.074375804925687294e+00
2.073438276314584883e+00
2.073438276314584883e+00
2.074188299203466812e+00
2.062187932981353278e+00
2.062187932981353278e+00
2.051125095370342155e+00
2.051125095370342155e+00
2.043812372203741567e+00
2.035187108981597159e+00
2.035187108981597159e+00
2.071563219092379615e+00
2.072688253425702509e+00
2.072688253425702509e+00
2.074375804925687294e+00
2.074375804925687294e+00
2.065000518814661401e+00
2.055625232703635064e+00
2.055625232703635064e+00
2.061250404370250422e+00
2.061250404370250422e+00
2.063687978759117581e+00
2.065000518814661401e+00
2.065000518814661401e+00
2.067250587481307633e+00
2.067250587481307633e+00
2.070813196203497242e+00
2.059937864314706601e+00
2.059937864314706601e+00
2.066125553147984295e+00
2.071938230536820580e+00
2.071938230536820580e+00
2.062000427259132795e+00
2.062000427259132795e+00
2.045499923703726353e+00
2.062375438703573760e+00
2.062375438703573760e+00
2.071000701925717724e+00
2.071000701925717724e+00
2.055812738425855546e+00
2.049250038148136888e+00
2.049250038148136888e+00
2.054875209814752690e+00
2.063875484481338063e+00
2.063875484481338063e+00
2.063875484481338063e+00
2.063875484481338063e+00
2.062937955870235207e+00
2.070438184759056277e+00
2.070438184759056277e+00
2.066125553147984295e+00
2.066125553147984295e+00
2.058062807092501334e+00
2.053375164036988387e+00
2.053375164036988387e+00
2.057312784203619849e+00
2.057312784203619849e+00
2.069125644703512901e+00
2.064438001647999510e+00
2.064438001647999510e+00
2.061062898648029940e+00
2.064438001647999510e+00
2.064438001647999510e+00
2.063500473036897098e+00
2.063500473036897098e+00
2.065188024536881883e+00
2.060312875759148010e+00
2.060312875759148010e+00
2.064625507370219992e+00
2.064625507370219992e+00
2.066500564592425260e+00
2.040624774925992480e+00
2.040624774925992480e+00
2.062562944425794242e+00
2.062562944425794242e+00
2.052625141148106458e+00
2.060500381481368493e+00
2.060500381481368493e+00
2.065000518814661401e+00
2.065000518814661401e+00
2.064062990203558545e+00
2.053750175481429796e+00
2.053750175481429796e+00
2.053187658314767905e+00
2.064062990203558545e+00
2.064062990203558545e+00
2.080000976592303541e+00
2.080000976592303541e+00
2.066500564592425260e+00
2.061625415814691387e+00
2.061625415814691387e+00
2.064625507370219992e+00
2.064625507370219992e+00
2.067063081759087151e+00
2.065563035981322848e+00
2.065563035981322848e+00
2.061812921536912313e+00
2.062937955870235207e+00
2.062937955870235207e+00
2.072313241981261545e+00
2.072313241981261545e+00
2.074938322092349186e+00
2.055250221259193655e+00
2.055250221259193655e+00
2.049437543870357370e+00
2.049437543870357370e+00
2.048687520981474997e+00
2.057875301370280852e+00
2.057875301370280852e+00
2.060500381481368493e+00
2.061250404370250422e+00
2.061250404370250422e+00
2.059187841425824672e+00
2.059187841425824672e+00
2.071938230536820580e+00
2.062937955870235207e+00
2.062937955870235207e+00
2.059187841425824672e+00
2.059187841425824672e+00
2.045499923703726353e+00
2.057125278481399366e+00
2.057125278481399366e+00
2.065188024536881883e+00
2.065188024536881883e+00
2.071563219092379615e+00
2.065563035981322848e+00
2.065563035981322848e+00
2.066875576036866669e+00
2.066875576036866669e+00
2.065938047425763813e+00
2.062562944425794242e+00
2.062562944425794242e+00
2.068750633259071936e+00
2.067813104647969080e+00
2.067813104647969080e+00
2.065375530259102366e+00
2.065375530259102366e+00
2.063875484481338063e+00
2.057125278481399366e+00
2.057125278481399366e+00
2.060687887203588975e+00
2.060687887203588975e+00
2.059750358592486119e+00
2.055625232703635064e+00
2.055625232703635064e+00
2.058437818536942299e+00
2.058437818536942299e+00
2.068188116092410045e+00
2.075688344981231115e+00
2.075688344981231115e+00
2.056375255592516993e+00
2.062562944425794242e+00
2.062562944425794242e+00
2.056937772759178884e+00
2.056937772759178884e+00
2.055812738425855546e+00
2.064250495925779028e+00
2.064250495925779028e+00
2.065188024536881883e+00
2.065188024536881883e+00
2.053562669759208870e+00
2.058062807092501334e+00
2.058062807092501334e+00
2.065938047425763813e+00
2.071938230536820580e+00
2.071938230536820580e+00
2.068188116092410045e+00
2.068188116092410045e+00
2.074375804925687294e+00
2.068188116092410045e+00
2.068188116092410045e+00
2.064625507370219992e+00
2.064625507370219992e+00
2.057125278481399366e+00
2.053937681203650278e+00
2.053937681203650278e+00
2.068563127536851454e+00
2.068563127536851454e+00
2.080188482314524023e+00
2.044562395092623941e+00
2.044562395092623941e+00
2.042124820703756782e+00
2.055437726981414581e+00
2.055437726981414581e+00
2.060500381481368493e+00
2.060500381481368493e+00
2.060312875759148010e+00
2.059562852870265637e+00
2.059562852870265637e+00
2.050937589648121673e+00
2.050937589648121673e+00
2.059375347148045154e+00
2.062750450148014725e+00
2.062750450148014725e+00
2.064625507370219992e+00
2.064625507370219992e+00
2.064438001647999510e+00
2.073438276314584883e+00
2.073438276314584883e+00
2.071938230536820580e+00
2.071938230536820580e+00
2.062375438703573760e+00
2.051312601092562637e+00
2.051312601092562637e+00
2.059375347148045154e+00
2.074938322092349186e+00
2.074938322092349186e+00
2.081501022370067400e+00
2.081501022370067400e+00
2.069500656147953865e+00
2.055062715536973172e+00
2.055062715536973172e+00
2.061625415814691387e+00
2.061625415814691387e+00
2.062562944425794242e+00
2.059000335703604190e+00
2.059000335703604190e+00
2.063125461592455689e+00
2.048875026703695923e+00
2.048875026703695923e+00
2.053937681203650278e+00
2.053937681203650278e+00
2.066125553147984295e+00
2.056562761314737475e+00
2.056562761314737475e+00
2.065563035981322848e+00
2.065563035981322848e+00
2.066313058870204777e+00
2.069500656147953865e+00
2.069500656147953865e+00
2.064062990203558545e+00
2.064062990203558545e+00
2.073438276314584883e+00
2.066125553147984295e+00
2.066125553147984295e+00
2.071563219092379615e+00
2.064813013092440475e+00
2.064813013092440475e+00
2.060125370036927084e+00
2.060125370036927084e+00
2.065188024536881883e+00
2.070250679036835795e+00
2.070250679036835795e+00
2.045124912259285388e+00
2.045124912259285388e+00
2.050000061037018817e+00
2.051875118259224084e+00
2.051875118259224084e+00
2.070250679036835795e+00
2.070250679036835795e+00
2.076063356425672080e+00
2.062187932981353278e+00
2.062187932981353278e+00
2.049250038148136888e+00
2.050937589648121673e+00
2.050937589648121673e+00
2.049625049592577852e+00
2.049625049592577852e+00
2.065750541703543330e+00
2.071188207647938206e+00
2.071188207647938206e+00
2.071938230536820580e+00
2.071938230536820580e+00
2.072875759147922992e+00
2.075500839259010633e+00
2.075500839259010633e+00
2.066688070314646186e+00
2.066688070314646186e+00
2.065750541703543330e+00
2.061250404370250422e+00
2.061250404370250422e+00
2.064250495925779028e+00
2.064250495925779028e+00
2.062750450148014725e+00
2.052812646870326940e+00
2.052812646870326940e+00
2.050750083925901190e+00
2.052250129703665493e+00
2.052250129703665493e+00
2.058062807092501334e+00
2.058062807092501334e+00
2.060500381481368493e+00
2.066500564592425260e+00
2.066500564592425260e+00
2.073063264870143918e+00
2.073063264870143918e+00
2.065563035981322848e+00
2.068938138981292418e+00
2.068938138981292418e+00
2.072500747703482027e+00
2.072500747703482027e+00
2.059187841425824672e+00
2.066688070314646186e+00
2.066688070314646186e+00
2.062937955870235207e+00
2.062937955870235207e+00
2.053375164036988387e+00
2.062375438703573760e+00
2.062375438703573760e+00
2.070250679036835795e+00
2.065750541703543330e+00
2.065750541703543330e+00
2.052625141148106458e+00
2.052625141148106458e+00
2.051875118259224084e+00
2.060687887203588975e+00
2.060687887203588975e+00
2.065375530259102366e+00
2.065375530259102366e+00
2.074750816370128703e+00
2.070813196203497242e+00
2.068750633259071936e+00
2.068750633259071936e+00
2.080938505203405953e+00
2.073625782036805365e+00
2.073625782036805365e+00
2.062000427259132795e+00
2.062000427259132795e+00
2.056375255592516993e+00
2.060125370036927084e+00
2.060125370036927084e+00
2.068188116092410045e+00
2.068188116092410045e+00
2.052250129703665493e+00
2.038187200537125765e+00
2.038187200537125765e+00
2.057687795648060813e+00
2.067250587481307633e+00
2.067250587481307633e+00
2.063312967314676172e+00
2.063312967314676172e+00
2.063875484481338063e+00
2.056937772759178884e+00
2.056937772759178884e+00
2.065000518814661401e+00
2.065000518814661401e+00
2.068563127536851454e+00
2.069500656147953865e+00
2.069500656147953865e+00
2.071938230536820580e+00
2.071938230536820580e+00
2.065188024536881883e+00
2.083938596758934114e+00
2.083938596758934114e+00
2.069875667592394830e+00
2.069875667592394830e+00
2.060312875759148010e+00
2.051125095370342155e+00
2.051125095370342155e+00
2.056937772759178884e+00
2.059937864314706601e+00
2.059937864314706601e+00
2.064250495925779028e+00
2.064250495925779028e+00
2.059375347148045154e+00
2.056562761314737475e+00
2.056562761314737475e+00
2.066125553147984295e+00
2.066125553147984295e+00
2.066688070314646186e+00
2.060500381481368493e+00
2.060500381481368493e+00
2.072688253425702509e+00
2.069313150425733383e+00
2.069313150425733383e+00
2.072125736259041062e+00
2.069125644703512901e+00
2.069125644703512901e+00
2.069500656147953865e+00
2.065188024536881883e+00
2.065188024536881883e+00
2.066125553147984295e+00
2.066313058870204777e+00
2.066313058870204777e+00
2.065563035981322848e+00
2.065563035981322848e+00
2.048875026703695923e+00
2.048125003814813549e+00
2.048125003814813549e+00
2.056750267036957958e+00
2.056750267036957958e+00
2.070063173314615312e+00
2.073063264870143918e+00
2.073063264870143918e+00
2.053375164036988387e+00
2.046999969481490211e+00
2.046999969481490211e+00
2.048687520981474997e+00
2.048687520981474997e+00
2.058812829981383707e+00
2.060500381481368493e+00
2.060500381481368493e+00
2.075875850703451597e+00
2.075875850703451597e+00
2.072688253425702509e+00
2.079625965147862576e+00
2.079625965147862576e+00
2.080000976592303541e+00
2.080000976592303541e+00
2.076813379314554453e+00
2.056562761314737475e+00
2.056562761314737475e+00
2.050750083925901190e+00
2.050750083925901190e+00
2.051312601092562637e+00
2.070063173314615312e+00
2.070063173314615312e+00
2.067438093203528116e+00
2.059562852870265637e+00
2.059562852870265637e+00
2.077938413647877791e+00
2.077938413647877791e+00
2.080188482314524023e+00
2.065938047425763813e+00
2.065938047425763813e+00
2.055625232703635064e+00
2.055625232703635064e+00
2.003123630481887130e+00
2.081688528092287882e+00
2.081688528092287882e+00
2.074563310647907777e+00
2.074563310647907777e+00
2.071000701925717724e+00
2.069313150425733383e+00
2.069313150425733383e+00
2.061437910092470904e+00
2.054687704092532208e+00
2.054687704092532208e+00
2.060312875759148010e+00
2.060312875759148010e+00
2.063312967314676172e+00
2.062750450148014725e+00
2.062750450148014725e+00
2.074375804925687294e+00
2.074375804925687294e+00
2.070625690481276759e+00
2.062937955870235207e+00
2.062937955870235207e+00
2.047562486648152102e+00
2.047562486648152102e+00
2.063875484481338063e+00
2.080000976592303541e+00
2.080000976592303541e+00
2.082813562425611220e+00
2.068938138981292418e+00
2.068938138981292418e+00
2.059375347148045154e+00
2.059375347148045154e+00
2.042124820703756782e+00
2.051875118259224084e+00
2.051875118259224084e+00
2.057875301370280852e+00
2.057875301370280852e+00
2.061625415814691387e+00
2.068938138981292418e+00
2.068938138981292418e+00
2.067625598925748598e+00
2.067625598925748598e+00
2.067813104647969080e+00
2.090126285592211808e+00
2.090126285592211808e+00
2.080750999481185470e+00
2.053750175481429796e+00
2.053750175481429796e+00
2.053937681203650278e+00
2.053937681203650278e+00
2.051125095370342155e+00
2.055625232703635064e+00
2.055625232703635064e+00
2.057500289925840331e+00
2.057500289925840331e+00
2.071375713370158689e+00
2.071750724814600098e+00
2.071750724814600098e+00
2.059750358592486119e+00
2.059750358592486119e+00
2.073063264870143918e+00
2.076438367870113488e+00
2.076438367870113488e+00
2.025624317148350340e+00
2.025624317148350340e+00
2.062937955870235207e+00
2.053375164036988387e+00
2.053375164036988387e+00
2.048312509537034032e+00
2.068000610370189563e+00
2.068000610370189563e+00
2.067438093203528116e+00
2.067438093203528116e+00
2.080563493758964988e+00
2.083188573870052185e+00
2.083188573870052185e+00
2.065000518814661401e+00
2.065000518814661401e+00
2.060312875759148010e+00
2.056375255592516993e+00
2.056375255592516993e+00
2.069875667592394830e+00
2.063875484481338063e+00
2.063875484481338063e+00
2.059562852870265637e+00
2.059562852870265637e+00
2.062937955870235207e+00
2.067625598925748598e+00
2.067625598925748598e+00
2.062375438703573760e+00
2.062375438703573760e+00
2.062187932981353278e+00
2.070250679036835795e+00
2.070250679036835795e+00
2.068000610370189563e+00
2.068000610370189563e+00
2.072313241981261545e+00
2.060500381481368493e+00
2.060500381481368493e+00
2.056750267036957958e+00
2.062562944425794242e+00
2.062562944425794242e+00
2.063125461592455689e+00
2.063125461592455689e+00
2.055250221259193655e+00
2.063500473036897098e+00
2.063500473036897098e+00
2.069688161870173904e+00
2.069688161870173904e+00
2.070813196203497242e+00
2.061625415814691387e+00
2.061625415814691387e+00
2.061625415814691387e+00
2.061625415814691387e+00
2.072875759147922992e+00
2.067625598925748598e+00
2.067625598925748598e+00
2.067625598925748598e+00
2.067625598925748598e+00
2.056000244148076028e+00
2.060687887203588975e+00
2.060687887203588975e+00
2.057875301370280852e+00
2.065938047425763813e+00
2.065938047425763813e+00
2.064438001647999510e+00
2.064438001647999510e+00
2.068188116092410045e+00
2.073625782036805365e+00
2.073625782036805365e+00
2.065563035981322848e+00
2.065563035981322848e+00
2.058250312814721816e+00
2.064062990203558545e+00
2.064062990203558545e+00
2.057312784203619849e+00
2.057312784203619849e+00
2.059937864314706601e+00
2.066688070314646186e+00
2.066688070314646186e+00
2.070438184759056277e+00
2.070438184759056277e+00
2.069875667592394830e+00
2.063125461592455689e+00
2.063125461592455689e+00
2.059187841425824672e+00
2.058437818536942299e+00
2.058437818536942299e+00
2.069313150425733383e+00
2.069313150425733383e+00
2.064062990203558545e+00
2.070063173314615312e+00
2.070063173314615312e+00
2.074188299203466812e+00
2.074188299203466812e+00
2.066688070314646186e+00
2.067438093203528116e+00
2.067438093203528116e+00
2.065938047425763813e+00
2.065938047425763813e+00
2.066875576036866669e+00
2.054687704092532208e+00
2.054687704092532208e+00
2.063687978759117581e+00
2.068750633259071936e+00
2.068750633259071936e+00
2.065188024536881883e+00
2.065188024536881883e+00
2.069688161870173904e+00
2.052062623981445011e+00
2.052062623981445011e+00
2.060312875759148010e+00
2.060312875759148010e+00
2.056187749870296511e+00
2.061062898648029940e+00
2.061062898648029940e+00
2.067813104647969080e+00
2.067813104647969080e+00
2.063687978759117581e+00
2.060125370036927084e+00
2.060125370036927084e+00
2.057687795648060813e+00
2.057687795648060813e+00
2.068188116092410045e+00
2.070063173314615312e+00
2.070063173314615312e+00
2.062750450148014725e+00
2.063312967314676172e+00
2.063312967314676172e+00
2.071750724814600098e+00
2.071750724814600098e+00
2.073813287759025847e+00
2.072125736259041062e+00
2.072125736259041062e+00
2.068375621814630971e+00
2.068375621814630971e+00
2.051125095370342155e+00
2.048312509537034032e+00
2.048312509537034032e+00
2.061812921536912313e+00
2.061812921536912313e+00
2.060125370036927084e+00
2.071000701925717724e+00
2.071000701925717724e+00
2.064625507370219992e+00
2.055812738425855546e+00
2.055812738425855546e+00
2.066313058870204777e+00
2.066313058870204777e+00
2.071375713370158689e+00
2.077938413647877791e+00
2.077938413647877791e+00
2.073625782036805365e+00
2.073625782036805365e+00
2.046812463759269729e+00
2.057500289925840331e+00
2.057500289925840331e+00
2.070438184759056277e+00
2.051875118259224084e+00
2.051875118259224084e+00
2.045312417981505870e+00
2.045312417981505870e+00
2.052437635425885976e+00
2.053375164036988387e+00
2.053375164036988387e+00
2.066500564592425260e+00
2.066500564592425260e+00
2.080000976592303541e+00
2.072500747703482027e+00
2.072500747703482027e+00
2.051875118259224084e+00
2.051875118259224084e+00
2.063687978759117581e+00
2.074188299203466812e+00
2.074188299203466812e+00
2.077375896481215900e+00
2.076438367870113488e+00
2.076438367870113488e+00
2.072500747703482027e+00
2.072500747703482027e+00
2.046624958037049247e+00
2.058062807092501334e+00
2.058062807092501334e+00
2.068188116092410045e+00
2.068188116092410045e+00
2.069500656147953865e+00
2.074188299203466812e+00
2.074188299203466812e+00
2.082626056703390294e+00
2.082626056703390294e+00
2.072688253425702509e+00
2.052625141148106458e+00
2.052625141148106458e+00
2.055250221259193655e+00
2.052062623981445011e+00
2.052062623981445011e+00
2.063312967314676172e+00
2.063312967314676172e+00
2.064250495925779028e+00
2.070250679036835795e+00
2.070250679036835795e+00
2.054875209814752690e+00
2.054875209814752690e+00
2.040249763481551515e+00
2.058250312814721816e+00
2.058250312814721816e+00
2.059750358592486119e+00
2.059750358592486119e+00
2.060875392925809457e+00
2.062750450148014725e+00
2.062750450148014725e+00
2.071000701925717724e+00
2.073625782036805365e+00
2.073625782036805365e+00
2.064625507370219992e+00
2.064625507370219992e+00
2.062000427259132795e+00
2.062000427259132795e+00
2.062000427259132795e+00
2.062937955870235207e+00
2.062937955870235207e+00
2.065938047425763813e+00
2.069313150425733383e+00
2.069313150425733383e+00
2.065750541703543330e+00
2.065750541703543330e+00
2.068750633259071936e+00
2.067063081759087151e+00
2.067063081759087151e+00
2.077938413647877791e+00
2.077938413647877791e+00
2.069313150425733383e+00
2.058625324259163225e+00
2.058625324259163225e+00
2.056937772759178884e+00
2.059000335703604190e+00
2.059000335703604190e+00
2.048687520981474997e+00
2.048687520981474997e+00
2.056937772759178884e+00
2.059937864314706601e+00
2.059937864314706601e+00
2.065000518814661401e+00
2.065000518814661401e+00
2.073625782036805365e+00
2.071188207647938206e+00
2.071188207647938206e+00
2.058062807092501334e+00
2.058062807092501334e+00
2.060125370036927084e+00
2.065188024536881883e+00
2.065188024536881883e+00
2.065750541703543330e+00
2.080375988036744506e+00
2.080375988036744506e+00
2.083001068147831703e+00
2.083001068147831703e+00
2.063312967314676172e+00
2.057875301370280852e+00
2.057875301370280852e+00
2.063500473036897098e+00
2.063500473036897098e+00
2.061812921536912313e+00
2.057687795648060813e+00
2.057687795648060813e+00
2.047374980925931620e+00
2.047374980925931620e+00
2.052250129703665493e+00
2.067250587481307633e+00
2.067250587481307633e+00
2.075500839259010633e+00
2.065375530259102366e+00
2.065375530259102366e+00
2.064625507370219992e+00
2.064625507370219992e+00
2.057687795648060813e+00
2.064813013092440475e+00
2.064813013092440475e+00
2.066125553147984295e+00
2.066125553147984295e+00
2.072500747703482027e+00
2.064813013092440475e+00
2.064813013092440475e+00
2.059187841425824672e+00
2.070438184759056277e+00
2.070438184759056277e+00
2.060687887203588975e+00
2.060687887203588975e+00
2.050937589648121673e+00
2.062000427259132795e+00
2.062000427259132795e+00
2.057500289925840331e+00
2.057500289925840331e+00
2.061812921536912313e+00
2.063687978759117581e+00
2.063687978759117581e+00
2.078688436536759720e+00
2.078688436536759720e+00
2.079438459425641650e+00
2.071188207647938206e+00
2.071188207647938206e+00
2.070438184759056277e+00
2.070438184759056277e+00
2.067250587481307633e+00
2.063312967314676172e+00
2.063312967314676172e+00
2.073438276314584883e+00
2.065188024536881883e+00
2.065188024536881883e+00
2.061062898648029940e+00
2.061062898648029940e+00
2.059937864314706601e+00
2.040624774925992480e+00
2.040624774925992480e+00
2.066688070314646186e+00
2.066688070314646186e+00
2.065750541703543330e+00
2.062187932981353278e+00
2.062187932981353278e+00
2.071938230536820580e+00
2.071938230536820580e+00
2.077938413647877791e+00
2.063312967314676172e+00
2.063312967314676172e+00
2.056562761314737475e+00
2.056562761314737475e+00
2.058437818536942299e+00
2.064250495925779028e+00
2.064250495925779028e+00
2.057875301370280852e+00
2.044374889370403459e+00
2.044374889370403459e+00
2.055625232703635064e+00
2.055625232703635064e+00
2.076625873592333971e+00
2.081313516647846917e+00
2.081313516647846917e+00
2.063875484481338063e+00
2.063875484481338063e+00
2.044562395092623941e+00
2.055062715536973172e+00
2.055062715536973172e+00
2.058437818536942299e+00
2.058437818536942299e+00
2.061437910092470904e+00
2.055250221259193655e+00
2.055250221259193655e+00
2.055812738425855546e+00
2.055812738425855546e+00
2.061437910092470904e+00
2.067813104647969080e+00
2.067813104647969080e+00
2.068375621814630971e+00
2.076625873592333971e+00
2.076625873592333971e+00
2.065188024536881883e+00
2.065188024536881883e+00
2.055812738425855546e+00
2.062187932981353278e+00
2.062187932981353278e+00
2.064062990203558545e+00
2.064062990203558545e+00
2.063125461592455689e+00
2.068375621814630971e+00
2.068375621814630971e+00
2.071375713370158689e+00
2.071375713370158689e+00
2.062750450148014725e+00
2.064625507370219992e+00
2.064625507370219992e+00
2.069688161870173904e+00
2.066875576036866669e+00
2.066875576036866669e+00
2.069500656147953865e+00
2.069500656147953865e+00
2.074375804925687294e+00
2.065000518814661401e+00
2.065000518814661401e+00
2.061812921536912313e+00
2.061812921536912313e+00
2.050750083925901190e+00
2.055062715536973172e+00
2.055062715536973172e+00
2.030124454481643248e+00
2.030124454481643248e+00
2.047937498092593067e+00
2.067438093203528116e+00
2.067438093203528116e+00
2.074938322092349186e+00
2.067438093203528116e+00
2.067438093203528116e+00
2.063125461592455689e+00
2.063125461592455689e+00
2.066125553147984295e+00
2.073625782036805365e+00
2.073625782036805365e+00
2.062750450148014725e+00
2.062750450148014725e+00
2.067063081759087151e+00
2.062562944425794242e+00
2.062562944425794242e+00
2.048875026703695923e+00
2.048875026703695923e+00
2.053187658314767905e+00
2.062375438703573760e+00
2.062375438703573760e+00
2.059562852870265637e+00
2.059562852870265637e+00
2.058062807092501334e+00
2.065750541703543330e+00
2.065750541703543330e+00
2.065188024536881883e+00
2.064438001647999510e+00
2.064438001647999510e+00
2.066500564592425260e+00
2.066500564592425260e+00
2.069875667592394830e+00
2.075313333536790150e+00
2.075313333536790150e+00
2.071938230536820580e+00
2.071938230536820580e+00
2.064250495925779028e+00
2.052625141148106458e+00
2.052625141148106458e+00
2.065938047425763813e+00
2.065938047425763813e+00
2.060500381481368493e+00
2.059937864314706601e+00
2.059937864314706601e+00
2.055437726981414581e+00
2.063312967314676172e+00
2.063312967314676172e+00
2.062562944425794242e+00
2.062562944425794242e+00
2.061062898648029940e+00
2.057312784203619849e+00
2.057312784203619849e+00
2.065938047425763813e+00
2.065938047425763813e+00
2.067438093203528116e+00
2.064625507370219992e+00
2.064625507370219992e+00
2.069500656147953865e+00
2.069500656147953865e+00
2.063687978759117581e+00
2.069688161870173904e+00
2.069688161870173904e+00
2.066875576036866669e+00
2.066875576036866669e+00
2.064062990203558545e+00
2.056562761314737475e+00
2.056562761314737475e+00
2.050750083925901190e+00
2.052437635425885976e+00
2.052437635425885976e+00
2.059000335703604190e+00
2.059000335703604190e+00
2.069688161870173904e+00
2.066875576036866669e+00
2.066875576036866669e+00
2.065563035981322848e+00
2.065563035981322848e+00
2.072313241981261545e+00
2.069313150425733383e+00
2.069313150425733383e+00
2.059562852870265637e+00
2.059562852870265637e+00
2.059000335703604190e+00
2.065938047425763813e+00
2.065938047425763813e+00
2.066875576036866669e+00
2.066875576036866669e+00
2.073625782036805365e+00
2.062000427259132795e+00
2.062000427259132795e+00
2.062187932981353278e+00
2.059187841425824672e+00
2.059187841425824672e+00
2.056562761314737475e+00
2.056562761314737475e+00
2.063687978759117581e+00
2.064625507370219992e+00
2.064625507370219992e+00
2.068938138981292418e+00
2.068938138981292418e+00
2.063500473036897098e+00
2.069875667592394830e+00
2.069875667592394830e+00
2.076813379314554453e+00
2.076813379314554453e+00
2.063500473036897098e+00
2.047374980925931620e+00
2.047374980925931620e+00
2.064062990203558545e+00
2.064062990203558545e+00
2.067250587481307633e+00
2.055625232703635064e+00
2.055625232703635064e+00
2.056750267036957958e+00
2.070063173314615312e+00
2.070063173314615312e+00
2.051500106814783120e+00
2.051500106814783120e+00
2.055625232703635064e+00
2.063312967314676172e+00
2.063312967314676172e+00
2.067813104647969080e+00
2.067813104647969080e+00
2.076813379314554453e+00
2.051687612537003602e+00
2.051687612537003602e+00
2.053187658314767905e+00
2.053187658314767905e+00
2.048312509537034032e+00
2.054500198370311725e+00
2.054500198370311725e+00
2.073438276314584883e+00
2.069875667592394830e+00
2.069875667592394830e+00
2.067063081759087151e+00
2.067063081759087151e+00
2.073438276314584883e+00
2.077375896481215900e+00
2.077375896481215900e+00
2.066125553147984295e+00
2.066125553147984295e+00
2.066313058870204777e+00
2.072500747703482027e+00
2.072500747703482027e+00
2.071000701925717724e+00
2.071000701925717724e+00
2.052812646870326940e+00
2.059750358592486119e+00
2.059750358592486119e+00
2.052437635425885976e+00
2.050937589648121673e+00
2.050937589648121673e+00
2.055625232703635064e+00
2.055625232703635064e+00
2.068938138981292418e+00
2.062187932981353278e+00
2.062187932981353278e+00
2.057687795648060813e+00
2.057687795648060813e+00
2.076813379314554453e+00
2.064250495925779028e+00
2.064250495925779028e+00
2.053375164036988387e+00
2.053375164036988387e+00
2.060500381481368493e+00
2.078125919370098273e+00
2.078125919370098273e+00
2.076063356425672080e+00
2.073625782036805365e+00
2.073625782036805365e+00
2.060312875759148010e+00
2.060312875759148010e+00
2.056375255592516993e+00
2.051500106814783120e+00
2.051500106814783120e+00
2.051687612537003602e+00
2.051687612537003602e+00
2.058250312814721816e+00
2.071563219092379615e+00
2.071563219092379615e+00
2.065563035981322848e+00
2.065563035981322848e+00
2.062562944425794242e+00
2.067813104647969080e+00
2.067813104647969080e+00
2.066875576036866669e+00
2.063125461592455689e+00
2.063125461592455689e+00
2.063312967314676172e+00
2.063312967314676172e+00
2.063687978759117581e+00
2.063312967314676172e+00
2.063312967314676172e+00
2.071938230536820580e+00
2.071938230536820580e+00
2.062375438703573760e+00
2.053562669759208870e+00
2.053562669759208870e+00
2.060312875759148010e+00
2.060312875759148010e+00
2.064438001647999510e+00
2.060875392925809457e+00
2.060875392925809457e+00
2.059000335703604190e+00
2.059000335703604190e+00
2.064813013092440475e+00
2.071563219092379615e+00
2.071563219092379615e+00
2.070250679036835795e+00
2.061437910092470904e+00
2.061437910092470904e+00
2.056187749870296511e+00
2.056187749870296511e+00
2.058062807092501334e+00
2.057687795648060813e+00
2.057687795648060813e+00
2.064438001647999510e+00
2.064438001647999510e+00
2.068938138981292418e+00
2.075125827814569668e+00
2.075125827814569668e+00
2.072688253425702509e+00
2.072688253425702509e+00
2.065938047425763813e+00
2.072875759147922992e+00
2.072875759147922992e+00
2.049812555314798335e+00
2.049812555314798335e+00
2.059750358592486119e+00
2.064625507370219992e+00
2.064625507370219992e+00
2.050187566759239299e+00
2.071188207647938206e+00
2.071188207647938206e+00
2.068750633259071936e+00
2.068750633259071936e+00
2.056187749870296511e+00
2.044937406537064906e+00
2.044937406537064906e+00
2.052812646870326940e+00
2.052812646870326940e+00
2.062937955870235207e+00
2.063500473036897098e+00
2.063500473036897098e+00
2.071938230536820580e+00
2.071938230536820580e+00
2.083751091036713632e+00
2.075875850703451597e+00
2.075875850703451597e+00
2.067063081759087151e+00
2.070063173314615312e+00
2.070063173314615312e+00
2.091063814203314664e+00
2.091063814203314664e+00
2.055437726981414581e+00
2.051687612537003602e+00
2.051687612537003602e+00
2.059750358592486119e+00
2.059750358592486119e+00
2.050187566759239299e+00
2.033124546037171854e+00
2.037624683370464318e+00
2.037624683370464318e+00
2.052062623981445011e+00
2.052062623981445011e+00
2.072313241981261545e+00
2.067438093203528116e+00
2.067438093203528116e+00
2.063687978759117581e+00
2.063687978759117581e+00
2.066875576036866669e+00
2.059562852870265637e+00
2.059562852870265637e+00
2.064813013092440475e+00
2.065750541703543330e+00
2.065750541703543330e+00
2.064813013092440475e+00
2.064813013092440475e+00
2.065563035981322848e+00
2.065750541703543330e+00
2.065750541703543330e+00
2.065375530259102366e+00
2.065375530259102366e+00
2.072875759147922992e+00
2.063500473036897098e+00
2.063500473036897098e+00
2.059750358592486119e+00
2.059750358592486119e+00
2.070063173314615312e+00
2.065563035981322848e+00
2.065563035981322848e+00
2.060312875759148010e+00
2.060312875759148010e+00
2.066688070314646186e+00
2.058812829981383707e+00
2.058812829981383707e+00
2.053937681203650278e+00
2.052812646870326940e+00
2.052812646870326940e+00
2.071563219092379615e+00
2.071563219092379615e+00
2.069500656147953865e+00
2.058625324259163225e+00
2.058625324259163225e+00
2.062000427259132795e+00
2.062000427259132795e+00
2.075313333536790150e+00
2.066688070314646186e+00
2.066688070314646186e+00
2.063687978759117581e+00
2.063312967314676172e+00
2.063312967314676172e+00
2.068000610370189563e+00
2.068000610370189563e+00
2.066688070314646186e+00
2.073813287759025847e+00
2.055062715536973172e+00
2.055062715536973172e+00
2.042687337870418673e+00
2.042687337870418673e+00
2.053750175481429796e+00
2.060500381481368493e+00
2.060500381481368493e+00
2.060687887203588975e+00
2.063500473036897098e+00
2.063500473036897098e+00
2.071750724814600098e+00
2.071750724814600098e+00
2.077750907925656865e+00
2.071188207647938206e+00
2.071188207647938206e+00
2.061812921536912313e+00
2.061812921536912313e+00
2.060500381481368493e+00
2.056562761314737475e+00
2.056562761314737475e+00
2.058437818536942299e+00
2.058437818536942299e+00
2.063312967314676172e+00
2.072688253425702509e+00
2.072688253425702509e+00
2.061812921536912313e+00
2.067063081759087151e+00
2.067063081759087151e+00
2.070063173314615312e+00
2.070063173314615312e+00
2.064625507370219992e+00
2.053562669759208870e+00
2.053562669759208870e+00
2.043812372203741567e+00
2.043812372203741567e+00
2.057312784203619849e+00
2.070063173314615312e+00
2.070063173314615312e+00
2.061812921536912313e+00
2.061812921536912313e+00
2.060687887203588975e+00
2.074188299203466812e+00
2.074188299203466812e+00
2.057500289925840331e+00
2.057500289925840331e+00
2.060125370036927084e+00
2.068750633259071936e+00
2.068750633259071936e+00
2.013248939481795396e+00
2.070438184759056277e+00
2.070438184759056277e+00
2.084126102481154597e+00
2.084126102481154597e+00
2.074188299203466812e+00
2.072875759147922992e+00
2.072875759147922992e+00
2.068938138981292418e+00
2.068938138981292418e+00
2.056000244148076028e+00
2.050750083925901190e+00
2.050750083925901190e+00
2.052062623981445011e+00
2.052062623981445011e+00
2.062000427259132795e+00
2.064813013092440475e+00
2.064813013092440475e+00
2.058062807092501334e+00
2.058437818536942299e+00
2.058437818536942299e+00
2.060500381481368493e+00
2.060500381481368493e+00
2.065375530259102366e+00
2.070813196203497242e+00
2.070813196203497242e+00
2.074188299203466812e+00
2.074188299203466812e+00
2.069313150425733383e+00
2.069688161870173904e+00
2.069688161870173904e+00
2.065563035981322848e+00
2.063312967314676172e+00
2.063312967314676172e+00
2.060875392925809457e+00
2.060875392925809457e+00
2.067250587481307633e+00
2.080938505203405953e+00
2.080938505203405953e+00
2.069500656147953865e+00
2.069500656147953865e+00
2.059375347148045154e+00
2.065750541703543330e+00
2.065750541703543330e+00
2.056937772759178884e+00
2.056937772759178884e+00
2.055062715536973172e+00
2.065188024536881883e+00
2.065188024536881883e+00
2.058625324259163225e+00
2.058625324259163225e+00
2.049062532425916405e+00
2.059750358592486119e+00
2.059750358592486119e+00
2.063125461592455689e+00
2.065375530259102366e+00
2.065375530259102366e+00
2.070813196203497242e+00
2.070813196203497242e+00
