2.341196447645496725e+00
2.341196447645496725e+00
2.341196447645496725e+00
2.341196447645496725e+00
2.329383587145603673e+00
2.329383587145603673e+00
2.329383587145603673e+00
2.267319193090609808e+00
2.267319193090609808e+00
2.267319193090609808e+00
2.250818689535202921e+00
2.250818689535202921e+00
2.250818689535202921e+00
2.250818689535202921e+00
2.247631092257453833e+00
2.247631092257453833e+00
2.247631092257453833e+00
2.184066652424695665e+00
2.184066652424695665e+00
2.184066652424695665e+00
2.117502121036408447e+00
2.117502121036408447e+00
2.117502121036408447e+00
2.117502121036408447e+00
2.422386425366985119e+00
2.422386425366985119e+00
2.422386425366985119e+00
2.337071321756645670e+00
2.337071321756645670e+00
2.337071321756645670e+00
2.262444044312875935e+00
2.262444044312875935e+00
2.262444044312875935e+00
2.262444044312875935e+00
2.269569261757255596e+00
2.269569261757255596e+00
2.269569261757255596e+00
2.266944181646168399e+00
2.266944181646168399e+00
2.266944181646168399e+00
2.266944181646168399e+00
2.253443769646290562e+00
2.253443769646290562e+00
2.253443769646290562e+00
2.272381847590563719e+00
2.272381847590563719e+00
2.272381847590563719e+00
2.381322672200689716e+00
2.381322672200689716e+00
2.381322672200689716e+00
2.381322672200689716e+00
2.295820062868129341e+00
2.295820062868129341e+00
2.295820062868129341e+00
2.262069032868434526e+00
2.262069032868434526e+00
2.262069032868434526e+00
2.242380932035279439e+00
2.242380932035279439e+00
2.242380932035279439e+00
2.242380932035279439e+00
2.250256172368541474e+00
2.250256172368541474e+00
2.250256172368541474e+00
2.145815485091708386e+00
2.145815485091708386e+00
2.145815485091708386e+00
2.164941068758201581e+00
2.164941068758201581e+00
2.164941068758201581e+00
2.164941068758201581e+00
2.454637409588916075e+00
2.454637409588916075e+00
2.454637409588916075e+00
2.292069948423719250e+00
2.292069948423719250e+00
2.292069948423719250e+00
2.260381481368449741e+00
2.260381481368449741e+00
2.260381481368449741e+00
2.260381481368449741e+00
2.274819421979430434e+00
2.274819421979430434e+00
2.274819421979430434e+00
2.266381664479506952e+00
2.266381664479506952e+00
2.266381664479506952e+00
2.272756859035004684e+00
2.272756859035004684e+00
2.272756859035004684e+00
2.279132053590502860e+00
2.279132053590502860e+00
2.279132053590502860e+00
2.384697775200659287e+00
2.384697775200659287e+00
2.384697775200659287e+00
2.264131595812860720e+00
2.264131595812860720e+00
2.264131595812860720e+00
2.264131595812860720e+00
2.248756126590777171e+00
2.248756126590777171e+00
2.248756126590777171e+00
2.245381023590808045e+00
2.245381023590808045e+00
2.245381023590808045e+00
2.245381023590808045e+00
2.242380932035279439e+00
2.242380932035279439e+00
2.242380932035279439e+00
2.131752555925168657e+00
2.131752555925168657e+00
2.131752555925168657e+00
2.265256630146183614e+00
2.265256630146183614e+00
2.265256630146183614e+00
2.419573839533677440e+00
2.419573839533677440e+00
2.419573839533677440e+00
2.419573839533677440e+00
2.269381756035035114e+00
2.269381756035035114e+00
2.269381756035035114e+00
2.253256263924070080e+00
2.253256263924070080e+00
2.253256263924070080e+00
2.257193884090700653e+00
2.257193884090700653e+00
2.257193884090700653e+00
2.257193884090700653e+00
2.255881344035157721e+00
2.255881344035157721e+00
2.255881344035157721e+00
2.289444868312631609e+00
2.289444868312631609e+00
2.289444868312631609e+00
2.320383312479018745e+00
2.320383312479018745e+00
2.320383312479018745e+00
2.325258461256752618e+00
2.325258461256752618e+00
2.325258461256752618e+00
2.224192876979888212e+00
2.224192876979888212e+00
2.224192876979888212e+00
2.238068300424207457e+00
2.238068300424207457e+00
2.238068300424207457e+00
2.238068300424207457e+00
2.242568437757499922e+00
2.242568437757499922e+00
2.242568437757499922e+00
2.219505233924375265e+00
2.219505233924375265e+00
2.219505233924375265e+00
2.169253700369274007e+00
2.169253700369274007e+00
2.169253700369274007e+00
2.169253700369274007e+00
2.406260933256020085e+00
2.406260933256020085e+00
2.406260933256020085e+00
2.384697775200659287e+00
2.384697775200659287e+00
2.384697775200659287e+00
2.260756492812891150e+00
2.260756492812891150e+00
2.260756492812891150e+00
2.260756492812891150e+00
2.259256447035126847e+00
2.259256447035126847e+00
2.259256447035126847e+00
2.267319193090609808e+00
2.267319193090609808e+00
2.267319193090609808e+00
2.262069032868434526e+00
2.262069032868434526e+00
2.262069032868434526e+00
2.273881893368328022e+00
2.273881893368328022e+00
2.273881893368328022e+00
2.355634388256477418e+00
2.355634388256477418e+00
2.355634388256477418e+00
2.355634388256477418e+00
2.298070131534776017e+00
2.298070131534776017e+00
2.298070131534776017e+00
2.247818597979674760e+00
2.247818597979674760e+00
2.247818597979674760e+00
2.237130771813104602e+00
2.237130771813104602e+00
2.237130771813104602e+00
2.237130771813104602e+00
2.250443678090761956e+00
2.250443678090761956e+00
2.250443678090761956e+00
2.149565599536118921e+00
2.149565599536118921e+00
2.149565599536118921e+00
2.149565599536118921e+00
2.127627430036317158e+00
2.127627430036317158e+00
2.127627430036317158e+00
2.446949674977874079e+00
2.446949674977874079e+00
2.446949674977874079e+00
2.312133060701315301e+00
2.312133060701315301e+00
2.312133060701315301e+00
2.312133060701315301e+00
2.265256630146183614e+00
2.265256630146183614e+00
2.265256630146183614e+00
2.263006561479537382e+00
2.263006561479537382e+00
2.263006561479537382e+00
2.261319009979552597e+00
2.261319009979552597e+00
2.261319009979552597e+00
2.261319009979552597e+00
2.270881801812799416e+00
2.270881801812799416e+00
2.270881801812799416e+00
2.279694570757164307e+00
2.279694570757164307e+00
2.279694570757164307e+00
2.397635670033875677e+00
2.397635670033875677e+00
2.397635670033875677e+00
2.397635670033875677e+00
2.284382213812677254e+00
2.284382213812677254e+00
2.284382213812677254e+00
2.260568987090670667e+00
2.260568987090670667e+00
2.260568987090670667e+00
2.260568987090670667e+00
2.261131504257332114e+00
2.261131504257332114e+00
2.261131504257332114e+00
2.263006561479537382e+00
2.263006561479537382e+00
2.263006561479537382e+00
2.126877407147435228e+00
2.126877407147435228e+00
2.126877407147435228e+00
2.126877407147435228e+00
2.215380108035523765e+00
2.215380108035523765e+00
2.215380108035523765e+00
2.457074983977782345e+00
2.457074983977782345e+00
2.457074983977782345e+00
2.297695120090334608e+00
2.297695120090334608e+00
2.297695120090334608e+00
2.297695120090334608e+00
2.258131412701803509e+00
2.258131412701803509e+00
2.258131412701803509e+00
2.246506057924130939e+00
2.246506057924130939e+00
2.246506057924130939e+00
2.239568346201971760e+00
2.239568346201971760e+00
2.239568346201971760e+00
2.239568346201971760e+00
2.254943815424054865e+00
2.254943815424054865e+00
2.254943815424054865e+00
2.298070131534776017e+00
2.298070131534776017e+00
2.298070131534776017e+00
2.378885097811823002e+00
2.378885097811823002e+00
2.378885097811823002e+00
2.378885097811823002e+00
2.265444135868404540e+00
2.265444135868404540e+00
2.265444135868404540e+00
2.255506332590716312e+00
2.255506332590716312e+00
2.255506332590716312e+00
2.255506332590716312e+00
2.249318643757439062e+00
2.249318643757439062e+00
2.249318643757439062e+00
2.217255165257729033e+00
2.217255165257729033e+00
2.217255165257729033e+00
2.135127658925138228e+00
2.135127658925138228e+00
2.135127658925138228e+00
2.135127658925138228e+00
2.316258186590166801e+00
2.316258186590166801e+00
2.316258186590166801e+00
2.403260841700491479e+00
2.403260841700491479e+00
2.403260841700491479e+00
2.284382213812677254e+00
2.284382213812677254e+00
2.284382213812677254e+00
2.284382213812677254e+00
2.273319376201666131e+00
2.273319376201666131e+00
2.273319376201666131e+00
2.260943998535111632e+00
2.260943998535111632e+00
2.260943998535111632e+00
2.251943723868526259e+00
2.251943723868526259e+00
2.251943723868526259e+00
2.251943723868526259e+00
2.272569353312784202e+00
2.272569353312784202e+00
2.272569353312784202e+00
2.351509262367625919e+00
2.351509262367625919e+00
2.351509262367625919e+00
2.336883816034425188e+00
2.336883816034425188e+00
2.336883816034425188e+00
2.336883816034425188e+00
2.260193975646229259e+00
2.260193975646229259e+00
2.260193975646229259e+00
2.236755760368663637e+00
2.236755760368663637e+00
2.236755760368663637e+00
2.249506149479659545e+00
2.249506149479659545e+00
2.249506149479659545e+00
2.249506149479659545e+00
2.183129123813593253e+00
2.183129123813593253e+00
2.183129123813593253e+00
2.124814844203009478e+00
2.124814844203009478e+00
2.124814844203009478e+00
2.417323770867030763e+00
2.417323770867030763e+00
2.417323770867030763e+00
2.417323770867030763e+00
2.333883724478896582e+00
2.333883724478896582e+00
2.333883724478896582e+00
2.259068941312906365e+00
2.259068941312906365e+00
2.259068941312906365e+00
2.260943998535111632e+00
2.260943998535111632e+00
2.260943998535111632e+00
2.260943998535111632e+00
2.252506241035188150e+00
2.252506241035188150e+00
2.252506241035188150e+00
2.245568529313028083e+00
2.245568529313028083e+00
2.245568529313028083e+00
2.255881344035157721e+00
2.255881344035157721e+00
2.255881344035157721e+00
2.255881344035157721e+00
2.356196905423139309e+00
2.356196905423139309e+00
2.356196905423139309e+00
2.282319650868251504e+00
2.282319650868251504e+00
2.282319650868251504e+00
2.282319650868251504e+00
2.270694296090578934e+00
2.270694296090578934e+00
2.270694296090578934e+00
2.360134525589770327e+00
2.360134525589770327e+00
2.360134525589770327e+00
2.313633106479079604e+00
2.313633106479079604e+00
2.313633106479079604e+00
2.313633106479079604e+00
2.205442304757835537e+00
2.205442304757835537e+00
2.205442304757835537e+00
2.186879238258003344e+00
2.186879238258003344e+00
2.186879238258003344e+00
2.512389172032837958e+00
2.512389172032837958e+00
2.512389172032837958e+00
2.512389172032837958e+00
2.280069582201605716e+00
2.280069582201605716e+00
2.280069582201605716e+00
2.207692373424482213e+00
2.207692373424482213e+00
2.207692373424482213e+00
2.219692739646595747e+00
2.219692739646595747e+00
2.219692739646595747e+00
2.219692739646595747e+00
2.232630634479812137e+00
2.232630634479812137e+00
2.232630634479812137e+00
2.254568803979613900e+00
2.254568803979613900e+00
2.254568803979613900e+00
2.281569627979369130e+00
2.281569627979369130e+00
2.281569627979369130e+00
2.383947752311777357e+00
2.383947752311777357e+00
2.383947752311777357e+00
2.383947752311777357e+00
2.250068666646320992e+00
2.250068666646320992e+00
2.250068666646320992e+00
2.248943632312997654e+00
2.248943632312997654e+00
2.248943632312997654e+00
2.251006195257423848e+00
2.251006195257423848e+00
2.251006195257423848e+00
2.251006195257423848e+00
2.216880153813287624e+00
2.216880153813287624e+00
2.216880153813287624e+00
2.119752189703054679e+00
2.119752189703054679e+00
2.119752189703054679e+00
2.238255806146427940e+00
2.238255806146427940e+00
2.238255806146427940e+00
2.238255806146427940e+00
2.408323496200445835e+00
2.408323496200445835e+00
2.408323496200445835e+00
2.270881801812799416e+00
2.270881801812799416e+00
2.270881801812799416e+00
2.270881801812799416e+00
2.267319193090609808e+00
2.267319193090609808e+00
2.267319193090609808e+00
2.275756950590533290e+00
2.275756950590533290e+00
2.275756950590533290e+00
2.273506881923887057e+00
2.273506881923887057e+00
2.273506881923887057e+00
2.273506881923887057e+00
2.271069307535019899e+00
2.271069307535019899e+00
2.271069307535019899e+00
2.305382854701376161e+00
2.305382854701376161e+00
2.305382854701376161e+00
2.343259010589922919e+00
2.343259010589922919e+00
2.343259010589922919e+00
2.343259010589922919e+00
2.269194250312814631e+00
2.269194250312814631e+00
2.269194250312814631e+00
2.253818781090731527e+00
2.253818781090731527e+00
2.253818781090731527e+00
2.250443678090761956e+00
2.250443678090761956e+00
2.250443678090761956e+00
2.250443678090761956e+00
2.202629718924527857e+00
2.202629718924527857e+00
2.202629718924527857e+00
2.133440107425153442e+00
2.133440107425153442e+00
2.133440107425153442e+00
2.363322122867518971e+00
2.363322122867518971e+00
2.363322122867518971e+00
2.363322122867518971e+00
2.371572374645222414e+00
2.371572374645222414e+00
2.371572374645222414e+00
2.277069490646077110e+00
2.277069490646077110e+00
2.277069490646077110e+00
2.272006836146122755e+00
2.272006836146122755e+00
2.272006836146122755e+00
2.272006836146122755e+00
2.257006378368480615e+00
2.257006378368480615e+00
2.257006378368480615e+00
2.255131321146275347e+00
2.255131321146275347e+00
2.255131321146275347e+00
2.261506515701773079e+00
2.261506515701773079e+00
2.261506515701773079e+00
2.261506515701773079e+00
2.339883907589953349e+00
2.339883907589953349e+00
2.339883907589953349e+00
2.294695028534806447e+00
2.294695028534806447e+00
2.294695028534806447e+00
2.249693655201880027e+00
2.249693655201880027e+00
2.249693655201880027e+00
2.249693655201880027e+00
2.246506057924130939e+00
2.246506057924130939e+00
2.246506057924130939e+00
2.264506607257301685e+00
2.264506607257301685e+00
2.264506607257301685e+00
2.264506607257301685e+00
2.170191228980376863e+00
2.170191228980376863e+00
2.170191228980376863e+00
2.124064821314127105e+00
2.124064821314127105e+00
2.124064821314127105e+00
2.430449171422468080e+00
2.430449171422468080e+00
2.430449171422468080e+00
2.430449171422468080e+00
2.322258369701224012e+00
2.322258369701224012e+00
2.322258369701224012e+00
2.281757133701590057e+00
2.281757133701590057e+00
2.281757133701590057e+00
2.282132145146031021e+00
2.282132145146031021e+00
2.282132145146031021e+00
2.282132145146031021e+00
2.264506607257301685e+00
2.264506607257301685e+00
2.264506607257301685e+00
2.274631916257209951e+00
2.274631916257209951e+00
2.274631916257209951e+00
2.288694845423749680e+00
2.288694845423749680e+00
2.288694845423749680e+00
2.288694845423749680e+00
2.392573015533921321e+00
2.392573015533921321e+00
2.392573015533921321e+00
2.278944547868282378e+00
2.278944547868282378e+00
2.278944547868282378e+00
2.258506424146244473e+00
2.258506424146244473e+00
2.258506424146244473e+00
2.258506424146244473e+00
2.232630634479812137e+00
2.232630634479812137e+00
2.232630634479812137e+00
2.250818689535202921e+00
2.250818689535202921e+00
2.250818689535202921e+00
2.126877407147435228e+00
2.126877407147435228e+00
2.126877407147435228e+00
2.126877407147435228e+00
2.195129490035706787e+00
2.195129490035706787e+00
2.195129490035706787e+00
2.440574480422376347e+00
2.440574480422376347e+00
2.440574480422376347e+00
2.440574480422376347e+00
2.275569444868312807e+00
2.275569444868312807e+00
2.275569444868312807e+00
2.250818689535202921e+00
2.250818689535202921e+00
2.250818689535202921e+00
2.262444044312875935e+00
2.262444044312875935e+00
2.262444044312875935e+00
2.262444044312875935e+00
2.259818964201788294e+00
2.259818964201788294e+00
2.259818964201788294e+00
2.266756675923947917e+00
2.266756675923947917e+00
2.266756675923947917e+00
2.287757316812646824e+00
2.287757316812646824e+00
2.287757316812646824e+00
2.287757316812646824e+00
2.374384960478530537e+00
2.374384960478530537e+00
2.374384960478530537e+00
2.263756584368419311e+00
2.263756584368419311e+00
2.263756584368419311e+00
2.254006286812952009e+00
2.254006286812952009e+00
2.254006286812952009e+00
2.254006286812952009e+00
2.240130863368633207e+00
2.240130863368633207e+00
2.240130863368633207e+00
2.208067384868923178e+00
2.208067384868923178e+00
2.208067384868923178e+00
2.125752372814111890e+00
2.125752372814111890e+00
2.125752372814111890e+00
2.125752372814111890e+00
2.311945554979094819e+00
2.311945554979094819e+00
2.311945554979094819e+00
2.407573473311563461e+00
2.407573473311563461e+00
2.407573473311563461e+00
2.288694845423749680e+00
2.288694845423749680e+00
2.288694845423749680e+00
2.288694845423749680e+00
2.281757133701590057e+00
2.281757133701590057e+00
2.281757133701590057e+00
2.281194616534928166e+00
2.281194616534928166e+00
2.281194616534928166e+00
2.273694387646107540e+00
2.273694387646107540e+00
2.273694387646107540e+00
2.273694387646107540e+00
2.276319467757194737e+00
2.276319467757194737e+00
2.276319467757194737e+00
2.333321207312235135e+00
2.333321207312235135e+00
2.333321207312235135e+00
2.333321207312235135e+00
2.315508163701284872e+00
2.315508163701284872e+00
2.315508163701284872e+00
2.239380840479750834e+00
2.239380840479750834e+00
2.239380840479750834e+00
2.229443037202063049e+00
2.229443037202063049e+00
2.229443037202063049e+00
2.229443037202063049e+00
2.241068391979735619e+00
2.241068391979735619e+00
2.241068391979735619e+00
2.177878963591417971e+00
2.177878963591417971e+00
2.177878963591417971e+00
2.113752006591998356e+00
2.113752006591998356e+00
2.113752006591998356e+00
2.113752006591998356e+00
2.403448347422711961e+00
2.403448347422711961e+00
2.403448347422711961e+00
2.364259651478621826e+00
2.364259651478621826e+00
2.364259651478621826e+00
2.293194982757042144e+00
2.293194982757042144e+00
2.293194982757042144e+00
2.293194982757042144e+00
2.298070131534776017e+00
2.298070131534776017e+00
2.298070131534776017e+00
2.298445142979216982e+00
2.298445142979216982e+00
2.298445142979216982e+00
2.291507431257057803e+00
2.291507431257057803e+00
2.291507431257057803e+00
2.291507431257057803e+00
2.280632099368266719e+00
2.280632099368266719e+00
2.280632099368266719e+00
2.375134983367412023e+00
2.375134983367412023e+00
2.375134983367412023e+00
2.287194799645985377e+00
2.287194799645985377e+00
2.287194799645985377e+00
2.267881710257271255e+00
2.267881710257271255e+00
2.267881710257271255e+00
2.267881710257271255e+00
2.257381389812921579e+00
2.257381389812921579e+00
2.257381389812921579e+00
2.252506241035188150e+00
2.252506241035188150e+00
2.252506241035188150e+00
2.137565233314004942e+00
2.137565233314004942e+00
2.137565233314004942e+00
2.137565233314004942e+00
2.138502761925107798e+00
2.138502761925107798e+00
2.138502761925107798e+00
2.444137089144566399e+00
2.444137089144566399e+00
2.444137089144566399e+00
2.444137089144566399e+00
2.295445051423688376e+00
2.295445051423688376e+00
2.295445051423688376e+00
2.254006286812952009e+00
2.254006286812952009e+00
2.254006286812952009e+00
2.257568895535142062e+00
2.257568895535142062e+00
2.257568895535142062e+00
2.257568895535142062e+00
2.252318735312967224e+00
2.252318735312967224e+00
2.252318735312967224e+00
2.259818964201788294e+00
2.259818964201788294e+00
2.259818964201788294e+00
2.278757042146061895e+00
2.278757042146061895e+00
2.278757042146061895e+00
2.278757042146061895e+00
2.385072786645100695e+00
2.385072786645100695e+00
2.385072786645100695e+00
2.262444044312875935e+00
2.262444044312875935e+00
2.262444044312875935e+00
2.252131229590746742e+00
2.252131229590746742e+00
2.252131229590746742e+00
2.252131229590746742e+00
2.248943632312997654e+00
2.248943632312997654e+00
2.248943632312997654e+00
2.246693563646351421e+00
2.246693563646351421e+00
2.246693563646351421e+00
2.120127201147496088e+00
2.120127201147496088e+00
2.120127201147496088e+00
2.120127201147496088e+00
2.238255806146427940e+00
2.238255806146427940e+00
2.238255806146427940e+00
2.427074068422498510e+00
2.427074068422498510e+00
2.427074068422498510e+00
2.282319650868251504e+00
2.282319650868251504e+00
2.282319650868251504e+00
2.282319650868251504e+00
2.275381939146092325e+00
2.275381939146092325e+00
2.275381939146092325e+00
2.259631458479567812e+00
2.259631458479567812e+00
2.259631458479567812e+00
2.257006378368480615e+00
2.257006378368480615e+00
2.257006378368480615e+00
2.257006378368480615e+00
2.266944181646168399e+00
2.266944181646168399e+00
2.266944181646168399e+00
2.309882992034669069e+00
2.309882992034669069e+00
2.309882992034669069e+00
2.309882992034669069e+00
2.354321848200934042e+00
2.354321848200934042e+00
2.354321848200934042e+00
2.263569078646198829e+00
2.263569078646198829e+00
2.263569078646198829e+00
2.252693746757408633e+00
2.252693746757408633e+00
2.252693746757408633e+00
2.252693746757408633e+00
2.266006653035065987e+00
2.266006653035065987e+00
2.266006653035065987e+00
2.213880062257759462e+00
2.213880062257759462e+00
2.213880062257759462e+00
2.134002624591814889e+00
2.134002624591814889e+00
2.134002624591814889e+00
2.134002624591814889e+00
2.360697042756431774e+00
2.360697042756431774e+00
2.360697042756431774e+00
2.385822809533982625e+00
2.385822809533982625e+00
2.385822809533982625e+00
2.272569353312784202e+00
2.272569353312784202e+00
2.272569353312784202e+00
2.272569353312784202e+00
2.263569078646198829e+00
2.263569078646198829e+00
2.263569078646198829e+00
2.259068941312906365e+00
2.259068941312906365e+00
2.259068941312906365e+00
2.267131687368389326e+00
2.267131687368389326e+00
2.267131687368389326e+00
2.267131687368389326e+00
2.283444685201574842e+00
2.283444685201574842e+00
2.283444685201574842e+00
2.356571916867580274e+00
2.356571916867580274e+00
2.356571916867580274e+00
2.311008026367992407e+00
2.311008026367992407e+00
2.311008026367992407e+00
2.311008026367992407e+00
2.255506332590716312e+00
2.255506332590716312e+00
2.255506332590716312e+00
2.239380840479750834e+00
2.239380840479750834e+00
2.239380840479750834e+00
2.239380840479750834e+00
2.243130954924161813e+00
2.243130954924161813e+00
2.243130954924161813e+00
2.158753379924924776e+00
2.158753379924924776e+00
2.158753379924924776e+00
2.118627155369731785e+00
2.118627155369731785e+00
2.118627155369731785e+00
2.118627155369731785e+00
2.440199468977935382e+00
2.440199468977935382e+00
2.440199468977935382e+00
2.334071230201117064e+00
2.334071230201117064e+00
2.334071230201117064e+00
2.264319101535081202e+00
2.264319101535081202e+00
2.264319101535081202e+00
2.264319101535081202e+00
2.261881527146214044e+00
2.261881527146214044e+00
2.261881527146214044e+00
2.241630909146397510e+00
2.241630909146397510e+00
2.241630909146397510e+00
2.246881069368571904e+00
2.246881069368571904e+00
2.246881069368571904e+00
2.246881069368571904e+00
2.256443861201819168e+00
2.256443861201819168e+00
2.256443861201819168e+00
2.367072237311929506e+00
2.367072237311929506e+00
2.367072237311929506e+00
2.264131595812860720e+00
2.264131595812860720e+00
2.264131595812860720e+00
2.264131595812860720e+00
2.246318552201910457e+00
2.246318552201910457e+00
2.246318552201910457e+00
2.231880611590930208e+00
2.231880611590930208e+00
2.231880611590930208e+00
2.264506607257301685e+00
2.264506607257301685e+00
2.264506607257301685e+00
2.264506607257301685e+00
2.157440839869380955e+00
2.157440839869380955e+00
2.157440839869380955e+00
2.213130039368877089e+00
2.213130039368877089e+00
2.213130039368877089e+00
2.213130039368877089e+00
2.467387798699911539e+00
2.467387798699911539e+00
2.467387798699911539e+00
2.303132786034730373e+00
2.303132786034730373e+00
2.303132786034730373e+00
2.278757042146061895e+00
2.278757042146061895e+00
2.278757042146061895e+00
2.278757042146061895e+00
2.294882534257026929e+00
2.294882534257026929e+00
2.294882534257026929e+00
2.283444685201574842e+00
2.283444685201574842e+00
2.283444685201574842e+00
2.284382213812677254e+00
2.284382213812677254e+00
2.284382213812677254e+00
2.284382213812677254e+00
2.300507705923642732e+00
2.300507705923642732e+00
2.300507705923642732e+00
2.391260475478377501e+00
2.391260475478377501e+00
2.391260475478377501e+00
2.266006653035065987e+00
2.266006653035065987e+00
2.266006653035065987e+00
2.266006653035065987e+00
2.260943998535111632e+00
2.260943998535111632e+00
2.260943998535111632e+00
2.254193792535172935e+00
2.254193792535172935e+00
2.254193792535172935e+00
2.228880520035401602e+00
2.228880520035401602e+00
2.228880520035401602e+00
2.228880520035401602e+00
2.129689992980742907e+00
2.129689992980742907e+00
2.129689992980742907e+00
2.291882442701498768e+00
2.291882442701498768e+00
2.291882442701498768e+00
2.402323313089388623e+00
2.402323313089388623e+00
2.402323313089388623e+00
2.402323313089388623e+00
2.279319559312723342e+00
2.279319559312723342e+00
2.279319559312723342e+00
2.268069215979491737e+00
2.268069215979491737e+00
2.268069215979491737e+00
2.257381389812921579e+00
2.257381389812921579e+00
2.257381389812921579e+00
2.257381389812921579e+00
2.254568803979613900e+00
2.254568803979613900e+00
2.254568803979613900e+00
2.272756859035004684e+00
2.272756859035004684e+00
2.272756859035004684e+00
2.337633838923307117e+00
2.337633838923307117e+00
2.337633838923307117e+00
2.337633838923307117e+00
2.337446333201086635e+00
2.337446333201086635e+00
2.337446333201086635e+00
2.257193884090700653e+00
2.257193884090700653e+00
2.257193884090700653e+00
2.249506149479659545e+00
2.249506149479659545e+00
2.249506149479659545e+00
2.249506149479659545e+00
2.269944273201696561e+00
2.269944273201696561e+00
2.269944273201696561e+00
2.214067567979979945e+00
2.214067567979979945e+00
2.214067567979979945e+00
2.116939603869747000e+00
2.116939603869747000e+00
2.116939603869747000e+00
2.116939603869747000e+00
2.384322763756218322e+00
2.384322763756218322e+00
2.384322763756218322e+00
2.343821527756584366e+00
2.343821527756584366e+00
2.343821527756584366e+00
2.258318918424023991e+00
2.258318918424023991e+00
2.258318918424023991e+00
2.258318918424023991e+00
2.254006286812952009e+00
2.254006286812952009e+00
2.254006286812952009e+00
2.247631092257453833e+00
2.247631092257453833e+00
2.247631092257453833e+00
2.257943906979583026e+00
2.257943906979583026e+00
2.257943906979583026e+00
2.257943906979583026e+00
2.271631824701681346e+00
2.271631824701681346e+00
2.271631824701681346e+00
2.360509537034211291e+00
2.360509537034211291e+00
2.360509537034211291e+00
2.286444776757103448e+00
2.286444776757103448e+00
2.286444776757103448e+00
2.286444776757103448e+00
2.253256263924070080e+00
2.253256263924070080e+00
2.253256263924070080e+00
2.229443037202063049e+00
2.229443037202063049e+00
2.229443037202063049e+00
2.237130771813104602e+00
2.237130771813104602e+00
2.237130771813104602e+00
2.237130771813104602e+00
2.133065095980712478e+00
2.133065095980712478e+00
2.133065095980712478e+00
2.124627338480788552e+00
2.124627338480788552e+00
2.124627338480788552e+00
2.443574571977904952e+00
2.443574571977904952e+00
2.443574571977904952e+00
2.443574571977904952e+00
2.303695303201391820e+00
2.303695303201391820e+00
2.303695303201391820e+00
2.282694662312692468e+00
2.282694662312692468e+00
2.282694662312692468e+00
2.281007110812707683e+00
2.281007110812707683e+00
2.281007110812707683e+00
2.281007110812707683e+00
2.272006836146122755e+00
2.272006836146122755e+00
2.272006836146122755e+00
2.286257271034882521e+00
2.286257271034882521e+00
2.286257271034882521e+00
2.286257271034882521e+00
2.290569902645954947e+00
2.290569902645954947e+00
2.290569902645954947e+00
2.394073061311685624e+00
2.394073061311685624e+00
2.394073061311685624e+00
2.257568895535142062e+00
2.257568895535142062e+00
2.257568895535142062e+00
2.257568895535142062e+00
2.239380840479750834e+00
2.239380840479750834e+00
2.239380840479750834e+00
2.235068208868678852e+00
2.235068208868678852e+00
2.235068208868678852e+00
2.247818597979674760e+00
2.247818597979674760e+00
2.247818597979674760e+00
2.247818597979674760e+00
2.132127567369609622e+00
2.132127567369609622e+00
2.132127567369609622e+00
2.239755851924192243e+00
2.239755851924192243e+00
2.239755851924192243e+00
2.440199468977935382e+00
2.440199468977935382e+00
2.440199468977935382e+00
2.285694753868221074e+00
2.285694753868221074e+00
2.285694753868221074e+00
2.285694753868221074e+00
2.265069124423963132e+00
2.265069124423963132e+00
2.265069124423963132e+00
2.278194524979400004e+00
2.278194524979400004e+00
2.278194524979400004e+00
2.273694387646107540e+00
2.273694387646107540e+00
2.273694387646107540e+00
2.273694387646107540e+00
2.263006561479537382e+00
2.263006561479537382e+00
2.263006561479537382e+00
2.295070039979247412e+00
2.295070039979247412e+00
2.295070039979247412e+00
2.358634479812006024e+00
2.358634479812006024e+00
2.358634479812006024e+00
2.258693929868464956e+00
2.258693929868464956e+00
2.258693929868464956e+00
2.258693929868464956e+00
2.236380748924222672e+00
2.236380748924222672e+00
2.236380748924222672e+00
2.242568437757499922e+00
2.242568437757499922e+00
2.242568437757499922e+00
2.200567155980101663e+00
2.200567155980101663e+00
2.200567155980101663e+00
2.200567155980101663e+00
2.131190038758506766e+00
2.131190038758506766e+00
2.131190038758506766e+00
2.355259376812036454e+00
2.355259376812036454e+00
2.355259376812036454e+00
2.355259376812036454e+00
2.393135532700583212e+00
2.393135532700583212e+00
2.393135532700583212e+00
2.286444776757103448e+00
2.286444776757103448e+00
2.286444776757103448e+00
2.281944639423810539e+00
2.281944639423810539e+00
2.281944639423810539e+00
2.281944639423810539e+00
2.274444410534989469e+00
2.274444410534989469e+00
2.274444410534989469e+00
2.262819055757316900e+00
2.262819055757316900e+00
2.262819055757316900e+00
2.271444318979460864e+00
2.271444318979460864e+00
2.271444318979460864e+00
2.271444318979460864e+00
2.350196722312082542e+00
2.350196722312082542e+00
2.350196722312082542e+00
2.323758415478988315e+00
2.323758415478988315e+00
2.323758415478988315e+00
2.261694021423993561e+00
2.261694021423993561e+00
2.261694021423993561e+00
2.261694021423993561e+00
2.237318277535325084e+00
2.237318277535325084e+00
2.237318277535325084e+00
2.250068666646320992e+00
2.250068666646320992e+00
2.250068666646320992e+00
2.171128757591479275e+00
2.171128757591479275e+00
2.171128757591479275e+00
2.171128757591479275e+00
2.115064546647541732e+00
2.115064546647541732e+00
2.115064546647541732e+00
2.431199194311350009e+00
2.431199194311350009e+00
2.431199194311350009e+00
2.431199194311350009e+00
2.333696218756676100e+00
2.333696218756676100e+00
2.333696218756676100e+00
2.269381756035035114e+00
2.269381756035035114e+00
2.269381756035035114e+00
2.262819055757316900e+00
2.262819055757316900e+00
2.262819055757316900e+00
2.262819055757316900e+00
2.254568803979613900e+00
2.254568803979613900e+00
2.254568803979613900e+00
2.257006378368480615e+00
2.257006378368480615e+00
2.257006378368480615e+00
2.267694204535050773e+00
2.267694204535050773e+00
2.267694204535050773e+00
2.267694204535050773e+00
2.374572466200750576e+00
2.374572466200750576e+00
2.374572466200750576e+00
2.274444410534989469e+00
2.274444410534989469e+00
2.274444410534989469e+00
2.259256447035126847e+00
2.259256447035126847e+00
2.259256447035126847e+00
2.259256447035126847e+00
2.250068666646320992e+00
2.250068666646320992e+00
2.250068666646320992e+00
2.263194067201757864e+00
2.263194067201757864e+00
2.263194067201757864e+00
2.136815210425123013e+00
2.136815210425123013e+00
2.136815210425123013e+00
2.136815210425123013e+00
2.184441663869136629e+00
2.184441663869136629e+00
2.184441663869136629e+00
2.455762443922238969e+00
2.455762443922238969e+00
2.455762443922238969e+00
2.290757408368175430e+00
2.290757408368175430e+00
2.290757408368175430e+00
2.290757408368175430e+00
2.269756767479476078e+00
2.269756767479476078e+00
2.269756767479476078e+00
2.276881984923856628e+00
2.276881984923856628e+00
2.276881984923856628e+00
2.276881984923856628e+00
2.265444135868404540e+00
2.265444135868404540e+00
2.265444135868404540e+00
2.269194250312814631e+00
2.269194250312814631e+00
2.269194250312814631e+00
2.285507248146000592e+00
2.285507248146000592e+00
2.285507248146000592e+00
2.285507248146000592e+00
2.382635212256233537e+00
2.382635212256233537e+00
2.382635212256233537e+00
2.264506607257301685e+00
2.264506607257301685e+00
2.264506607257301685e+00
2.244631000701926116e+00
2.244631000701926116e+00
2.244631000701926116e+00
2.234880703146458369e+00
2.234880703146458369e+00
2.234880703146458369e+00
2.234880703146458369e+00
2.229630542924283532e+00
2.229630542924283532e+00
2.229630542924283532e+00
2.131190038758506766e+00
2.131190038758506766e+00
2.131190038758506766e+00
2.318320749534592551e+00
2.318320749534592551e+00
2.318320749534592551e+00
2.318320749534592551e+00
2.431011688589129527e+00
2.431011688589129527e+00
2.431011688589129527e+00
2.270694296090578934e+00
2.270694296090578934e+00
2.270694296090578934e+00
2.259443952757347329e+00
2.259443952757347329e+00
2.259443952757347329e+00
2.259443952757347329e+00
2.249131138035218136e+00
2.249131138035218136e+00
2.249131138035218136e+00
2.244068483535264225e+00
2.244068483535264225e+00
2.244068483535264225e+00
2.248381115146336207e+00
2.248381115146336207e+00
2.248381115146336207e+00
2.248381115146336207e+00
2.310070497756889552e+00
2.310070497756889552e+00
2.310070497756889552e+00
2.319633289590136371e+00
2.319633289590136371e+00
2.319633289590136371e+00
2.319633289590136371e+00
2.250068666646320992e+00
2.250068666646320992e+00
2.250068666646320992e+00
2.243693472090823260e+00
2.243693472090823260e+00
2.243693472090823260e+00
2.255506332590716312e+00
2.255506332590716312e+00
2.255506332590716312e+00
2.255506332590716312e+00
2.201504684591204519e+00
2.201504684591204519e+00
2.201504684591204519e+00
2.143002899258400262e+00
2.143002899258400262e+00
2.143002899258400262e+00
2.415261207922605013e+00
2.415261207922605013e+00
2.415261207922605013e+00
2.415261207922605013e+00
2.385822809533982625e+00
2.385822809533982625e+00
2.385822809533982625e+00
2.284757225257118218e+00
2.284757225257118218e+00
2.284757225257118218e+00
2.278757042146061895e+00
2.278757042146061895e+00
2.278757042146061895e+00
2.278757042146061895e+00
2.260756492812891150e+00
2.260756492812891150e+00
2.260756492812891150e+00
2.257568895535142062e+00
2.257568895535142062e+00
2.257568895535142062e+00
2.268631733146153184e+00
2.268631733146153184e+00
2.268631733146153184e+00
2.268631733146153184e+00
2.356759422589800756e+00
2.356759422589800756e+00
2.356759422589800756e+00
2.298632648701437464e+00
2.298632648701437464e+00
2.298632648701437464e+00
2.253631275368511044e+00
2.253631275368511044e+00
2.253631275368511044e+00
2.253631275368511044e+00
2.234505691702016961e+00
2.234505691702016961e+00
2.234505691702016961e+00
2.263944090090640238e+00
2.263944090090640238e+00
2.263944090090640238e+00
2.174316354869228363e+00
2.174316354869228363e+00
2.174316354869228363e+00
2.174316354869228363e+00
2.153503219702749494e+00
2.153503219702749494e+00
2.153503219702749494e+00
2.456887478255561863e+00
2.456887478255561863e+00
2.456887478255561863e+00
2.311195532090212890e+00
2.311195532090212890e+00
2.311195532090212890e+00
2.311195532090212890e+00
2.266006653035065987e+00
2.266006653035065987e+00
2.266006653035065987e+00
2.263944090090640238e+00
2.263944090090640238e+00
2.263944090090640238e+00
2.247256080813012868e+00
2.247256080813012868e+00
2.247256080813012868e+00
2.247256080813012868e+00
2.248381115146336207e+00
2.248381115146336207e+00
2.248381115146336207e+00
2.266569170201727434e+00
2.266569170201727434e+00
2.266569170201727434e+00
2.266569170201727434e+00
2.388260383922848895e+00
2.388260383922848895e+00
2.388260383922848895e+00
2.269756767479476078e+00
2.269756767479476078e+00
2.269756767479476078e+00
2.254193792535172935e+00
2.254193792535172935e+00
2.254193792535172935e+00
2.254193792535172935e+00
2.247256080813012868e+00
2.247256080813012868e+00
2.247256080813012868e+00
2.261319009979552597e+00
2.261319009979552597e+00
2.261319009979552597e+00
2.124627338480788552e+00
2.124627338480788552e+00
2.124627338480788552e+00
2.124627338480788552e+00
2.236005737479781263e+00
2.236005737479781263e+00
2.236005737479781263e+00
2.444137089144566399e+00
2.444137089144566399e+00
2.444137089144566399e+00
2.283444685201574842e+00
2.283444685201574842e+00
2.283444685201574842e+00
2.283444685201574842e+00
2.264506607257301685e+00
2.264506607257301685e+00
2.264506607257301685e+00
2.261506515701773079e+00
2.261506515701773079e+00
2.261506515701773079e+00
2.257381389812921579e+00
2.257381389812921579e+00
2.257381389812921579e+00
2.257381389812921579e+00
2.274444410534989469e+00
2.274444410534989469e+00
2.274444410534989469e+00
2.316633198034607766e+00
2.316633198034607766e+00
2.316633198034607766e+00
2.373822443311869090e+00
2.373822443311869090e+00
2.373822443311869090e+00
2.373822443311869090e+00
2.264881618701742649e+00
2.264881618701742649e+00
2.264881618701742649e+00
2.253443769646290562e+00
2.253443769646290562e+00
2.253443769646290562e+00
2.256068849757378203e+00
2.256068849757378203e+00
2.256068849757378203e+00
2.256068849757378203e+00
2.212380016479995160e+00
2.212380016479995160e+00
2.212380016479995160e+00
2.116752098147526517e+00
2.116752098147526517e+00
2.116752098147526517e+00
2.322633381145664977e+00
2.322633381145664977e+00
2.322633381145664977e+00
2.322633381145664977e+00
2.380572649311807787e+00
2.380572649311807787e+00
2.380572649311807787e+00
2.266756675923947917e+00
2.266756675923947917e+00
2.266756675923947917e+00
2.260756492812891150e+00
2.260756492812891150e+00
2.260756492812891150e+00
2.260756492812891150e+00
2.246693563646351421e+00
2.246693563646351421e+00
2.246693563646351421e+00
2.243880977813043742e+00
2.243880977813043742e+00
2.243880977813043742e+00
2.275381939146092325e+00
2.275381939146092325e+00
2.275381939146092325e+00
2.275381939146092325e+00
2.355634388256477418e+00
2.355634388256477418e+00
2.355634388256477418e+00
2.332946195867793726e+00
2.332946195867793726e+00
2.332946195867793726e+00
2.260381481368449741e+00
2.260381481368449741e+00
2.260381481368449741e+00
2.260381481368449741e+00
2.235068208868678852e+00
2.235068208868678852e+00
2.235068208868678852e+00
2.243505966368602778e+00
2.243505966368602778e+00
2.243505966368602778e+00
2.243505966368602778e+00
2.174503860591448845e+00
2.174503860591448845e+00
2.174503860591448845e+00
2.127252418591876193e+00
2.127252418591876193e+00
2.127252418591876193e+00
2.437386883144627259e+00
2.437386883144627259e+00
2.437386883144627259e+00
2.437386883144627259e+00
2.327883541367839371e+00
2.327883541367839371e+00
2.327883541367839371e+00
2.256818872646260132e+00
2.256818872646260132e+00
2.256818872646260132e+00
2.266381664479506952e+00
2.266381664479506952e+00
2.266381664479506952e+00
2.266381664479506952e+00
2.266756675923947917e+00
2.266756675923947917e+00
2.266756675923947917e+00
2.269194250312814631e+00
2.269194250312814631e+00
2.269194250312814631e+00
2.273881893368328022e+00
2.273881893368328022e+00
2.273881893368328022e+00
2.273881893368328022e+00
2.372134891811884305e+00
2.372134891811884305e+00
2.372134891811884305e+00
2.281757133701590057e+00
2.281757133701590057e+00
2.281757133701590057e+00
2.268069215979491737e+00
2.268069215979491737e+00
2.268069215979491737e+00
2.256068849757378203e+00
2.256068849757378203e+00
2.256068849757378203e+00
2.256068849757378203e+00
2.273506881923887057e+00
2.273506881923887057e+00
2.273506881923887057e+00
2.142815393536179780e+00
2.142815393536179780e+00
2.142815393536179780e+00
2.142815393536179780e+00
2.187441755424664791e+00
2.187441755424664791e+00
2.187441755424664791e+00
2.459137546922208095e+00
2.459137546922208095e+00
2.459137546922208095e+00
2.311383037812433372e+00
2.311383037812433372e+00
2.311383037812433372e+00
2.311383037812433372e+00
2.275381939146092325e+00
2.275381939146092325e+00
2.275381939146092325e+00
2.248943632312997654e+00
2.248943632312997654e+00
2.248943632312997654e+00
2.250443678090761956e+00
2.250443678090761956e+00
2.250443678090761956e+00
2.250443678090761956e+00
2.270694296090578934e+00
2.270694296090578934e+00
2.270694296090578934e+00
2.295445051423688376e+00
2.295445051423688376e+00
2.295445051423688376e+00
2.403823358867152926e+00
2.403823358867152926e+00
2.283069673757133433e+00
2.283069673757133433e+00
2.283069673757133433e+00
2.260381481368449741e+00
2.260381481368449741e+00
2.242005920590838475e+00
2.242005920590838475e+00
2.224192876979888212e+00
2.224192876979888212e+00
2.117314615314187964e+00
2.117314615314187964e+00
2.257006378368480615e+00
2.257006378368480615e+00
2.394635578478347071e+00
2.394635578478347071e+00
2.263756584368419311e+00
2.263756584368419311e+00
2.270694296090578934e+00
2.270694296090578934e+00
2.270694296090578934e+00
2.263569078646198829e+00
2.263569078646198829e+00
2.259068941312906365e+00
2.259068941312906365e+00
2.260756492812891150e+00
2.260756492812891150e+00
2.323195898312326424e+00
2.323195898312326424e+00
2.344759056367687222e+00
2.344759056367687222e+00
2.253068758201849597e+00
2.253068758201849597e+00
2.239193334757530351e+00
2.239193334757530351e+00
2.251943723868526259e+00
2.251943723868526259e+00
2.251943723868526259e+00
2.205442304757835537e+00
2.205442304757835537e+00
2.140377819147312621e+00
2.140377819147312621e+00
2.386010315256203107e+00
2.386010315256203107e+00
2.370447340311899076e+00
2.370447340311899076e+00
2.273881893368328022e+00
2.273881893368328022e+00
2.264506607257301685e+00
2.264506607257301685e+00
2.249506149479659545e+00
2.249506149479659545e+00
2.253443769646290562e+00
2.253443769646290562e+00
2.253443769646290562e+00
2.279319559312723342e+00
2.279319559312723342e+00
2.372884914700766235e+00
2.372884914700766235e+00
2.317570726645710621e+00
2.317570726645710621e+00
2.276506973479415219e+00
2.276506973479415219e+00
2.253818781090731527e+00
2.253818781090731527e+00
2.249693655201880027e+00
2.249693655201880027e+00
2.144877956480605530e+00
2.144877956480605530e+00
2.124064821314127105e+00
2.124064821314127105e+00
2.455012421033357040e+00
2.455012421033357040e+00
2.455012421033357040e+00
2.331633655812249906e+00
2.331633655812249906e+00
2.282132145146031021e+00
2.282132145146031021e+00
2.269194250312814631e+00
2.269194250312814631e+00
2.247068575090792386e+00
2.247068575090792386e+00
2.249693655201880027e+00
2.249693655201880027e+00
2.260943998535111632e+00
2.260943998535111632e+00
2.380197637867366822e+00
2.380197637867366822e+00
2.273319376201666131e+00
2.273319376201666131e+00
2.266006653035065987e+00
2.266006653035065987e+00
2.266006653035065987e+00
2.247631092257453833e+00
2.247631092257453833e+00
2.248193609424115724e+00
2.248193609424115724e+00
2.120877224036378017e+00
2.120877224036378017e+00
2.209754936368907963e+00
2.209754936368907963e+00
2.448074709311197417e+00
2.448074709311197417e+00
2.291319925534837321e+00
2.291319925534837321e+00
2.278944547868282378e+00
2.278944547868282378e+00
2.278944547868282378e+00
2.282694662312692468e+00
2.282694662312692468e+00
2.255881344035157721e+00
2.255881344035157721e+00
2.258131412701803509e+00
2.258131412701803509e+00
2.293194982757042144e+00
2.293194982757042144e+00
2.361822077089755112e+00
2.361822077089755112e+00
2.257193884090700653e+00
2.257193884090700653e+00
2.253256263924070080e+00
2.253256263924070080e+00
2.260381481368449741e+00
2.260381481368449741e+00
2.260381481368449741e+00
2.234318185979796478e+00
2.234318185979796478e+00
2.139440290536210654e+00
2.139440290536210654e+00
2.317383220923490139e+00
2.317383220923490139e+00
2.374384960478530537e+00
2.374384960478530537e+00
2.246881069368571904e+00
2.246881069368571904e+00
2.251381206701864812e+00
2.251381206701864812e+00
2.261131504257332114e+00
2.261131504257332114e+00
2.268631733146153184e+00
2.268631733146153184e+00
2.268631733146153184e+00
2.283444685201574842e+00
2.283444685201574842e+00
2.356384411145359792e+00
2.356384411145359792e+00
2.335758781701101849e+00
2.335758781701101849e+00
2.275756950590533290e+00
2.275756950590533290e+00
2.261506515701773079e+00
2.261506515701773079e+00
2.264881618701742649e+00
2.264881618701742649e+00
2.186504226813562823e+00
2.186504226813562823e+00
2.110376903592028786e+00
2.110376903592028786e+00
2.408886013367107282e+00
2.408886013367107282e+00
2.321883358256782603e+00
2.321883358256782603e+00
2.321883358256782603e+00
2.248756126590777171e+00
2.248756126590777171e+00
2.278757042146061895e+00
2.278757042146061895e+00
2.301632740256966070e+00
2.301632740256966070e+00
2.257006378368480615e+00
2.257006378368480615e+00
2.247631092257453833e+00
2.247631092257453833e+00
2.342321481978820064e+00
2.342321481978820064e+00
2.250068666646320992e+00
2.250068666646320992e+00
2.228130497146519229e+00
2.228130497146519229e+00
2.214255073702200427e+00
2.214255073702200427e+00
2.214255073702200427e+00
2.237505783257545566e+00
2.237505783257545566e+00
2.126127384258552855e+00
2.126127384258552855e+00
2.156878322702719064e+00
2.156878322702719064e+00
2.461200109866634289e+00
2.461200109866634289e+00
2.321695852534562121e+00
2.321695852534562121e+00
2.293945005645924073e+00
2.293945005645924073e+00
2.302757774590289408e+00
2.302757774590289408e+00
2.281007110812707683e+00
2.281007110812707683e+00
2.281007110812707683e+00
2.268631733146153184e+00
2.268631733146153184e+00
2.291319925534837321e+00
2.291319925534837321e+00
2.402323313089388623e+00
2.402323313089388623e+00
2.264131595812860720e+00
2.264131595812860720e+00
2.229630542924283532e+00
2.229630542924283532e+00
2.200567155980101663e+00
2.200567155980101663e+00
2.188941801202429094e+00
2.188941801202429094e+00
2.188941801202429094e+00
2.074938322092349186e+00
2.074938322092349186e+00
2.203754753257850751e+00
2.203754753257850751e+00
2.371197363200781449e+00
2.371197363200781449e+00
2.235443220313119816e+00
2.235443220313119816e+00
2.244068483535264225e+00
2.244068483535264225e+00
2.264319101535081202e+00
2.264319101535081202e+00
2.292257454145939732e+00
2.292257454145939732e+00
2.324883449812311209e+00
2.324883449812311209e+00
2.371759880367442896e+00
2.371759880367442896e+00
2.382260200811792572e+00
2.382260200811792572e+00
2.284194708090456771e+00
2.284194708090456771e+00
2.284194708090456771e+00
2.272006836146122755e+00
2.272006836146122755e+00
2.282319650868251504e+00
2.282319650868251504e+00
2.240880886257515137e+00
2.240880886257515137e+00
2.161753471480452937e+00
2.161753471480452937e+00
2.398198187200537124e+00
2.398198187200537124e+00
2.400635761589403838e+00
2.400635761589403838e+00
2.297132602923673161e+00
2.297132602923673161e+00
2.297132602923673161e+00
2.293945005645924073e+00
2.293945005645924073e+00
2.253068758201849597e+00
2.253068758201849597e+00
2.226067934202093479e+00
2.226067934202093479e+00
2.231505600146489243e+00
2.231505600146489243e+00
2.310258003479110034e+00
2.310258003479110034e+00
2.255131321146275347e+00
2.255131321146275347e+00
2.217067659535508550e+00
2.217067659535508550e+00
2.203192236091189304e+00
2.203192236091189304e+00
2.203192236091189304e+00
2.224192876979888212e+00
2.224192876979888212e+00
2.128564958647419569e+00
2.128564958647419569e+00
2.103064180425428198e+00
2.103064180425428198e+00
2.427261574144718992e+00
2.427261574144718992e+00
2.323570909756767389e+00
2.323570909756767389e+00
2.291507431257057803e+00
2.291507431257057803e+00
2.304257820368053267e+00
2.304257820368053267e+00
2.276319467757194737e+00
2.276319467757194737e+00
2.276319467757194737e+00
2.248756126590777171e+00
2.248756126590777171e+00
2.253631275368511044e+00
2.253631275368511044e+00
2.385822809533982625e+00
2.385822809533982625e+00
2.279319559312723342e+00
2.279319559312723342e+00
2.260568987090670667e+00
2.260568987090670667e+00
2.250443678090761956e+00
2.250443678090761956e+00
2.259443952757347329e+00
2.259443952757347329e+00
2.259443952757347329e+00
2.143752922147282192e+00
2.143752922147282192e+00
2.233380657368694511e+00
2.233380657368694511e+00
2.488200933866389963e+00
2.488200933866389963e+00
2.315883175145725836e+00
2.315883175145725836e+00
2.280819605090487201e+00
2.280819605090487201e+00
2.305570360423596643e+00
2.305570360423596643e+00
2.304070314645832784e+00
2.304070314645832784e+00
2.302757774590289408e+00
2.302757774590289408e+00
2.330508621478927012e+00
2.330508621478927012e+00
2.330508621478927012e+00
2.377572557756279181e+00
2.377572557756279181e+00
2.255506332590716312e+00
2.255506332590716312e+00
2.228318002868740155e+00
2.228318002868740155e+00
2.190629352702413879e+00
2.190629352702413879e+00
2.135127658925138228e+00
2.135127658925138228e+00
2.036312143314920498e+00
2.036312143314920498e+00
2.240693380535294654e+00
2.240693380535294654e+00
2.352446790978728330e+00
2.352446790978728330e+00
2.260943998535111632e+00
2.260943998535111632e+00
2.260943998535111632e+00
2.263569078646198829e+00
2.263569078646198829e+00
2.275569444868312807e+00
2.275569444868312807e+00
2.296007568590349823e+00
2.296007568590349823e+00
2.362572099978637485e+00
2.362572099978637485e+00
2.425199011200292798e+00
2.425199011200292798e+00
2.393323038422803695e+00
2.393323038422803695e+00
2.313258095034638639e+00
2.313258095034638639e+00
2.305757866145817125e+00
2.305757866145817125e+00
2.305757866145817125e+00
2.304632831812494231e+00
2.304632831812494231e+00
2.219880245368816230e+00
2.219880245368816230e+00
2.129689992980742907e+00
2.129689992980742907e+00
2.427074068422498510e+00
2.427074068422498510e+00
2.344384044923245813e+00
2.344384044923245813e+00
2.248006103701895242e+00
2.248006103701895242e+00
2.244255989257484707e+00
2.244255989257484707e+00
2.244255989257484707e+00
2.221942808313242423e+00
2.221942808313242423e+00
2.231693105868709726e+00
2.231693105868709726e+00
2.254756309701834383e+00
2.254756309701834383e+00
2.350571733756523507e+00
2.350571733756523507e+00
2.252693746757408633e+00
2.252693746757408633e+00
2.228880520035401602e+00
2.228880520035401602e+00
2.221380291146580532e+00
2.221380291146580532e+00
2.241630909146397510e+00
2.241630909146397510e+00
2.156128299813837135e+00
2.156128299813837135e+00
2.156128299813837135e+00
2.171128757591479275e+00
2.171128757591479275e+00
2.485950865199743731e+00
2.485950865199743731e+00
2.316070680867946319e+00
2.316070680867946319e+00
2.248756126590777171e+00
2.248756126590777171e+00
2.269944273201696561e+00
2.269944273201696561e+00
2.269381756035035114e+00
2.269381756035035114e+00
2.253443769646290562e+00
2.253443769646290562e+00
2.266756675923947917e+00
2.266756675923947917e+00
2.266756675923947917e+00
2.377572557756279181e+00
2.377572557756279181e+00
2.267319193090609808e+00
2.267319193090609808e+00
2.253631275368511044e+00
2.253631275368511044e+00
2.214442579424420909e+00
2.214442579424420909e+00
2.210129947813348927e+00
2.210129947813348927e+00
2.121439741203039464e+00
2.121439741203039464e+00
2.258506424146244473e+00
2.258506424146244473e+00
2.416573747978148834e+00
2.416573747978148834e+00
2.416573747978148834e+00
2.255131321146275347e+00
2.255131321146275347e+00
2.268444227423932702e+00
2.268444227423932702e+00
2.278569536423841413e+00
2.278569536423841413e+00
2.286819788201544412e+00
2.286819788201544412e+00
2.302945280312509890e+00
2.302945280312509890e+00
2.353196813867610704e+00
2.353196813867610704e+00
2.398385692922757606e+00
2.398385692922757606e+00
2.292632465590380253e+00
2.292632465590380253e+00
2.292632465590380253e+00
2.299195165868098911e+00
2.299195165868098911e+00
2.305757866145817125e+00
2.305757866145817125e+00
2.241255897701956545e+00
2.241255897701956545e+00
2.156315805536057617e+00
2.156315805536057617e+00
2.392948026978362286e+00
2.392948026978362286e+00
2.374197454756310055e+00
2.374197454756310055e+00
2.257943906979583026e+00
2.257943906979583026e+00
2.256818872646260132e+00
2.256818872646260132e+00
2.256818872646260132e+00
2.254381298257393418e+00
2.254381298257393418e+00
2.265819147312845505e+00
2.265819147312845505e+00
2.301445234534745587e+00
2.301445234534745587e+00
2.393323038422803695e+00
2.393323038422803695e+00
2.331071138645588459e+00
2.331071138645588459e+00
2.226442945646534444e+00
2.226442945646534444e+00
2.172816309091464060e+00
2.172816309091464060e+00
2.164191045869319652e+00
2.164191045869319652e+00
2.164191045869319652e+00
2.084501113925596005e+00
2.084501113925596005e+00
2.034437086092715230e+00
2.034437086092715230e+00
2.360509537034211291e+00
2.360509537034211291e+00
2.277444502090518075e+00
2.277444502090518075e+00
2.237318277535325084e+00
2.237318277535325084e+00
2.293382488479262626e+00
2.293382488479262626e+00
2.318320749534592551e+00
2.318320749534592551e+00
2.318320749534592551e+00
2.341946470534379099e+00
2.341946470534379099e+00
2.376822534867396808e+00
2.376822534867396808e+00
2.484825830866420393e+00
2.484825830866420393e+00
2.347009125034333454e+00
2.347009125034333454e+00
2.312883083590197675e+00
2.312883083590197675e+00
2.256631366924039650e+00
2.256631366924039650e+00
2.241068391979735619e+00
2.241068391979735619e+00
2.106626789147617806e+00
2.106626789147617806e+00
2.161940977202673420e+00
2.161940977202673420e+00
2.415261207922605013e+00
2.415261207922605013e+00
2.282882168034912951e+00
2.282882168034912951e+00
2.282882168034912951e+00
2.261694021423993561e+00
2.261694021423993561e+00
2.224005371257667729e+00
2.224005371257667729e+00
2.196817041535691573e+00
2.196817041535691573e+00
2.208442396313364142e+00
2.208442396313364142e+00
2.234505691702016961e+00
2.234505691702016961e+00
2.310633014923550999e+00
2.310633014923550999e+00
2.179003997924741309e+00
2.179003997924741309e+00
2.228130497146519229e+00
2.228130497146519229e+00
2.228130497146519229e+00
2.334258735923337547e+00
2.334258735923337547e+00
2.313445600756859122e+00
2.313445600756859122e+00
2.182754112369151844e+00
2.182754112369151844e+00
2.305007843256935196e+00
2.305007843256935196e+00
2.353196813867610704e+00
2.353196813867610704e+00
2.194754478591265823e+00
2.194754478591265823e+00
2.231505600146489243e+00
2.231505600146489243e+00
2.257381389812921579e+00
2.257381389812921579e+00
2.257381389812921579e+00
2.293194982757042144e+00
2.293194982757042144e+00
2.345509079256569152e+00
2.345509079256569152e+00
2.442449537644581614e+00
2.442449537644581614e+00
2.459325052644428578e+00
2.459325052644428578e+00
2.398948210089419053e+00
2.398948210089419053e+00
2.363884640034180418e+00
2.363884640034180418e+00
2.336133793145542814e+00
2.336133793145542814e+00
2.213692556535538980e+00
2.213692556535538980e+00
2.213692556535538980e+00
2.068375621814630971e+00
2.068375621814630971e+00
2.322820886867885459e+00
2.322820886867885459e+00
2.257193884090700653e+00
2.257193884090700653e+00
2.170378734702597345e+00
2.170378734702597345e+00
2.182566606646931362e+00
2.182566606646931362e+00
2.147878048036134135e+00
2.147878048036134135e+00
2.116377086703085553e+00
2.116377086703085553e+00
2.137940244758446351e+00
2.137940244758446351e+00
2.137940244758446351e+00
2.230380565813165905e+00
2.230380565813165905e+00
2.177878963591417971e+00
2.177878963591417971e+00
2.187629261146885273e+00
2.187629261146885273e+00
2.249318643757439062e+00
2.249318643757439062e+00
2.302757774590289408e+00
2.302757774590289408e+00
2.218005188146610962e+00
2.218005188146610962e+00
2.211817499313333268e+00
2.211817499313333268e+00
2.531514755699331598e+00
2.531514755699331598e+00
2.531514755699331598e+00
2.403823358867152926e+00
2.403823358867152926e+00
2.367259743034150432e+00
2.367259743034150432e+00
2.396323129978331856e+00
2.396323129978331856e+00
2.414698690755943566e+00
2.414698690755943566e+00
2.401010773033844803e+00
2.401010773033844803e+00
2.349446699423200169e+00
2.349446699423200169e+00
2.428761619922483295e+00
2.428761619922483295e+00
2.277256996368297592e+00
2.277256996368297592e+00
2.277256996368297592e+00
2.221567796868801015e+00
2.221567796868801015e+00
2.199629627368999252e+00
2.199629627368999252e+00
2.195504501480147752e+00
2.195504501480147752e+00
2.073063264870143918e+00
2.073063264870143918e+00
2.175441389202551257e+00
2.175441389202551257e+00
2.388447889645069822e+00
2.388447889645069822e+00
2.278757042146061895e+00
2.278757042146061895e+00
2.291694936979278285e+00
2.291694936979278285e+00
2.291694936979278285e+00
2.298257637256996500e+00
2.298257637256996500e+00
2.292257454145939732e+00
2.292257454145939732e+00
2.313070589312418157e+00
2.313070589312418157e+00
2.352634296700948813e+00
2.352634296700948813e+00
2.370822351756340485e+00
2.370822351756340485e+00
2.229255531479842567e+00
2.229255531479842567e+00
2.173003814813684542e+00
2.173003814813684542e+00
2.169441206091494490e+00
2.169441206091494490e+00
2.169441206091494490e+00
2.121814752647480873e+00
2.121814752647480873e+00
2.028624408703878945e+00
2.028624408703878945e+00
2.235818231757560781e+00
2.235818231757560781e+00
2.289632374034852091e+00
2.289632374034852091e+00
2.243318460646382295e+00
2.243318460646382295e+00
2.313070589312418157e+00
2.313070589312418157e+00
2.336508804589983779e+00
2.336508804589983779e+00
2.292444959868159771e+00
2.292444959868159771e+00
2.292444959868159771e+00
2.335946287423322332e+00
2.335946287423322332e+00
2.452762352366710363e+00
2.452762352366710363e+00
2.367447248756370914e+00
2.367447248756370914e+00
2.293194982757042144e+00
2.293194982757042144e+00
2.242568437757499922e+00
2.242568437757499922e+00
2.214255073702200427e+00
2.214255073702200427e+00
2.062750450148014725e+00
2.062750450148014725e+00
2.003123630481887130e+00
2.003123630481887130e+00
2.388635395367290304e+00
2.388635395367290304e+00
2.314383129367961978e+00
2.314383129367961978e+00
2.314383129367961978e+00
2.251381206701864812e+00
2.251381206701864812e+00
2.281944639423810539e+00
2.281944639423810539e+00
2.315508163701284872e+00
2.315508163701284872e+00
2.333883724478896582e+00
2.333883724478896582e+00
2.314008117923521013e+00
2.314008117923521013e+00
2.419948850978118404e+00
2.419948850978118404e+00
2.325445966978973100e+00
2.325445966978973100e+00
2.232443128757591655e+00
2.232443128757591655e+00
2.232443128757591655e+00
2.180879055146946577e+00
2.180879055146946577e+00
2.187066743980223826e+00
2.187066743980223826e+00
2.080188482314524023e+00
2.080188482314524023e+00
2.166066103091524919e+00
2.166066103091524919e+00
2.430261665700247153e+00
2.430261665700247153e+00
2.302382763145847999e+00
2.302382763145847999e+00
2.361634571367534630e+00
2.361634571367534630e+00
2.445449629200109776e+00
2.445449629200109776e+00
2.432511734366893830e+00
2.432511734366893830e+00
2.432511734366893830e+00
2.373634937589648164e+00
2.373634937589648164e+00
2.358634479812006024e+00
2.358634479812006024e+00
2.368197271645252844e+00
2.368197271645252844e+00
2.180316537980285130e+00
2.180316537980285130e+00
2.155940794091616652e+00
2.155940794091616652e+00
2.180879055146946577e+00
2.180879055146946577e+00
2.160440931424909561e+00
2.160440931424909561e+00
2.023749259926145072e+00
2.023749259926145072e+00
2.023749259926145072e+00
2.134190130314035372e+00
2.134190130314035372e+00
2.256068849757378203e+00
2.256068849757378203e+00
2.143565416425061709e+00
2.143565416425061709e+00
2.156690816980498582e+00
2.156690816980498582e+00
2.176753929258095077e+00
2.176753929258095077e+00
2.173941343424787398e+00
2.173941343424787398e+00
2.248381115146336207e+00
2.248381115146336207e+00
2.356571916867580274e+00
2.356571916867580274e+00
2.356571916867580274e+00
2.389197912533951751e+00
2.389197912533951751e+00
2.379822626422925413e+00
2.379822626422925413e+00
2.400635761589403838e+00
2.400635761589403838e+00
2.374759971922971058e+00
2.374759971922971058e+00
2.293007477034821662e+00
2.293007477034821662e+00
2.228505508590960638e+00
2.228505508590960638e+00
2.434574297311319135e+00
2.434574297311319135e+00
2.302757774590289408e+00
2.302757774590289408e+00
2.302757774590289408e+00
2.213880062257759462e+00
2.213880062257759462e+00
2.155565782647175688e+00
2.155565782647175688e+00
2.138690267647328280e+00
2.138690267647328280e+00
2.222505325479903426e+00
2.222505325479903426e+00
2.243318460646382295e+00
2.243318460646382295e+00
2.349821710867641578e+00
2.349821710867641578e+00
2.276131962034974254e+00
2.276131962034974254e+00
2.219317728202154782e+00
2.219317728202154782e+00
2.219317728202154782e+00
2.252506241035188150e+00
2.252506241035188150e+00
2.299570177312540320e+00
2.299570177312540320e+00
2.191754387035737217e+00
2.191754387035737217e+00
2.175066377758110736e+00
2.175066377758110736e+00
2.494388622699667213e+00
2.494388622699667213e+00
2.426511551255836618e+00
2.426511551255836618e+00
2.481075716422009858e+00
2.481075716422009858e+00
2.514826746421705117e+00
2.514826746421705117e+00
2.514826746421705117e+00
2.430636677144688562e+00
2.430636677144688562e+00
2.360509537034211291e+00
2.360509537034211291e+00
2.278757042146061895e+00
2.278757042146061895e+00
2.338008850367748082e+00
2.338008850367748082e+00
2.224942899868770141e+00
2.224942899868770141e+00
2.242755943479720404e+00
2.242755943479720404e+00
2.205067293313394572e+00
2.205067293313394572e+00
2.203754753257850751e+00
2.203754753257850751e+00
2.203754753257850751e+00
2.090126285592211808e+00
2.090126285592211808e+00
2.097814020203253360e+00
2.097814020203253360e+00
2.100814111758781966e+00
2.100814111758781966e+00
1.865681936094241156e+00
1.865681936094241156e+00
1.943871822260200721e+00
1.943871822260200721e+00
2.028061891537217498e+00
2.028061891537217498e+00
2.096126468703268575e+00
2.096126468703268575e+00
2.193629444257942485e+00
2.193629444257942485e+00
2.193629444257942485e+00
2.367259743034150432e+00
2.367259743034150432e+00
2.559453108310190128e+00
2.559453108310190128e+00
2.620392468031861544e+00
2.620392468031861544e+00
2.687707022309030691e+00
2.687707022309030691e+00
2.629955259865108363e+00
2.629955259865108363e+00
2.450324777977843649e+00
2.450324777977843649e+00
2.280819605090487201e+00
2.280819605090487201e+00
2.530389721366008260e+00
2.530389721366008260e+00
2.569390911587878357e+00
2.569390911587878357e+00
2.569390911587878357e+00
2.324883449812311209e+00
2.324883449812311209e+00
2.147690542313913653e+00
2.147690542313913653e+00
2.047374980925931620e+00
2.047374980925931620e+00
1.978560380870998392e+00
1.978560380870998392e+00
1.987185644093142578e+00
1.987185644093142578e+00
2.037999694814905283e+00
2.037999694814905283e+00
2.070063173314615312e+00
2.070063173314615312e+00
2.048312509537034032e+00
2.048312509537034032e+00
2.077563402203436382e+00
2.077563402203436382e+00
2.077563402203436382e+00
2.130440015869624837e+00
2.130440015869624837e+00
2.114877040925321250e+00
2.114877040925321250e+00
2.200942167424543072e+00
2.200942167424543072e+00
2.598454298532059781e+00
2.598454298532059781e+00
2.499638782921842051e+00
2.499638782921842051e+00
2.372509903256325270e+00
2.372509903256325270e+00
2.284569719534897736e+00
2.284569719534897736e+00
2.249318643757439062e+00
2.249318643757439062e+00
2.249318643757439062e+00
2.247256080813012868e+00
2.247256080813012868e+00
2.249693655201880027e+00
2.249693655201880027e+00
2.424636494033631351e+00
2.424636494033631351e+00
2.291882442701498768e+00
2.291882442701498768e+00
2.165316080202642990e+00
2.165316080202642990e+00
2.068750633259071936e+00
2.068750633259071936e+00
2.056937772759178884e+00
2.056937772759178884e+00
1.957372234260078780e+00
1.957372234260078780e+00
1.957372234260078780e+00
2.134752647480697263e+00
2.134752647480697263e+00
2.526077089754936722e+00
2.526077089754936722e+00
2.459325052644428578e+00
2.459325052644428578e+00
2.462512649922177665e+00
2.462512649922177665e+00
2.498326242866298674e+00
2.498326242866298674e+00
2.521389446699423331e+00
2.521389446699423331e+00
2.551952879421369058e+00
2.551952879421369058e+00
2.654893520920438288e+00
2.654893520920438288e+00
2.654893520920438288e+00
2.604079470198675583e+00
2.604079470198675583e+00
2.257381389812921579e+00
2.257381389812921579e+00
2.140377819147312621e+00
2.140377819147312621e+00
2.158565874202703849e+00
2.158565874202703849e+00
2.163253517258217240e+00
2.163253517258217240e+00
2.101376628925443413e+00
2.101376628925443413e+00
2.338383861812189490e+00
2.338383861812189490e+00
2.473012970366527341e+00
2.473012970366527341e+00
2.284569719534897736e+00
2.284569719534897736e+00
2.284569719534897736e+00
2.268069215979491737e+00
2.268069215979491737e+00
2.209567430646687480e+00
2.209567430646687480e+00
2.230568071535386387e+00
2.230568071535386387e+00
2.256256355479598685e+00
2.256256355479598685e+00
2.262069032868434526e+00
2.262069032868434526e+00
2.204317270424512643e+00
2.204317270424512643e+00
2.204129764702292160e+00
2.204129764702292160e+00
2.187254249702444309e+00
2.187254249702444309e+00
2.187254249702444309e+00
2.151440656758324188e+00
2.151440656758324188e+00
2.116752098147526517e+00
2.116752098147526517e+00
2.012498916592913467e+00
2.012498916592913467e+00
2.233193151646474028e+00
2.233193151646474028e+00
2.151253151036103706e+00
2.151253151036103706e+00
2.019624134037293572e+00
2.019624134037293572e+00
2.027874385814997016e+00
2.027874385814997016e+00
2.023749259926145072e+00
2.023749259926145072e+00
2.023749259926145072e+00
2.033499557481612818e+00
2.033499557481612818e+00
2.194379467146824858e+00
2.194379467146824858e+00
2.527952146977141545e+00
2.527952146977141545e+00
2.493638599810785283e+00
2.493638599810785283e+00
2.458950041199987613e+00
2.458950041199987613e+00
2.484263313699758946e+00
2.484263313699758946e+00
2.422948942533646566e+00
2.422948942533646566e+00
2.325820978423414065e+00
2.325820978423414065e+00
2.325820978423414065e+00
2.204879787591174090e+00
2.204879787591174090e+00
2.392948026978362286e+00
2.392948026978362286e+00
2.319820795312356854e+00
2.319820795312356854e+00
2.290194891201513983e+00
2.290194891201513983e+00
2.306320383312479017e+00
2.306320383312479017e+00
2.273881893368328022e+00
2.273881893368328022e+00
2.255131321146275347e+00
2.255131321146275347e+00
2.085626148258918899e+00
2.085626148258918899e+00
2.085626148258918899e+00
1.975372783593249304e+00
1.975372783593249304e+00
1.826305734427930538e+00
1.826305734427930538e+00
1.889120151371806999e+00
1.889120151371806999e+00
1.924183721427045635e+00
1.924183721427045635e+00
2.135690176091799675e+00
2.135690176091799675e+00
2.123502304147465658e+00
2.123502304147465658e+00
2.195879512924588717e+00
2.195879512924588717e+00
2.372697408978545752e+00
2.372697408978545752e+00
2.437574388866847741e+00
2.437574388866847741e+00
2.437574388866847741e+00
2.567703360087893572e+00
2.567703360087893572e+00
2.747333841975158286e+00
2.747333841975158286e+00
2.783334940641499333e+00
2.783334940641499333e+00
2.780147343363750245e+00
2.780147343363750245e+00
2.802460524307992973e+00
2.802460524307992973e+00
2.740958647419660110e+00
2.740958647419660110e+00
2.425574022644734207e+00
2.425574022644734207e+00
2.311383037812433372e+00
2.311383037812433372e+00
2.242193426313058957e+00
2.242193426313058957e+00
2.242193426313058957e+00
2.170378734702597345e+00
2.170378734702597345e+00
2.082063539536728847e+00
2.082063539536728847e+00
2.288694845423749680e+00
2.288694845423749680e+00
2.401385784478286212e+00
2.401385784478286212e+00
2.307257911923581428e+00
2.307257911923581428e+00
2.273319376201666131e+00
2.273319376201666131e+00
2.218380199591051927e+00
2.218380199591051927e+00
2.301070223090304623e+00
2.301070223090304623e+00
2.301070223090304623e+00
2.389760429700613198e+00
2.389760429700613198e+00
2.214255073702200427e+00
2.214255073702200427e+00
1.995435895870845799e+00
1.995435895870845799e+00
1.927371318704794501e+00
1.927371318704794501e+00
1.989623218482009515e+00
1.989623218482009515e+00
1.901870540482802907e+00
1.901870540482802907e+00
1.732552873317667164e+00
1.732552873317667164e+00
1.676676168095950326e+00
1.676676168095950326e+00
1.676676168095950326e+00
2.087688711203345093e+00
2.087688711203345093e+00
2.103251686147648680e+00
2.103251686147648680e+00
2.227755485702078264e+00
2.227755485702078264e+00
2.351884273812066883e+00
2.351884273812066883e+00
2.249506149479659545e+00
2.249506149479659545e+00
2.026374340037232713e+00
2.026374340037232713e+00
1.959997314371166199e+00
1.959997314371166199e+00
2.071938230536820580e+00
2.071938230536820580e+00
2.071938230536820580e+00
2.045874935148167761e+00
2.045874935148167761e+00
2.317008209479048730e+00
2.317008209479048730e+00
2.666331369975890819e+00
2.666331369975890819e+00
2.825148716696676665e+00
2.825148716696676665e+00
2.773959654530472552e+00
2.773959654530472552e+00
2.654143498031556359e+00
2.654143498031556359e+00
2.927339335306863521e+00
2.927339335306863521e+00
2.710582720419934866e+00
2.710582720419934866e+00
2.710582720419934866e+00
2.511076631977294138e+00
2.511076631977294138e+00
2.314008117923521013e+00
2.314008117923521013e+00
2.200004638813440216e+00
2.200004638813440216e+00
2.112439466536454535e+00
2.112439466536454535e+00
2.059562852870265637e+00
2.059562852870265637e+00
2.014561479537339217e+00
2.014561479537339217e+00
1.791992187261574054e+00
1.791992187261574054e+00
1.954747154148991584e+00
1.954747154148991584e+00
1.954747154148991584e+00
2.193816949980162967e+00
2.193816949980162967e+00
2.412636127811517817e+00
2.412636127811517817e+00
2.518014343699453761e+00
2.518014343699453761e+00
2.631455305642872666e+00
2.631455305642872666e+00
2.743208716086306342e+00
2.743208716086306342e+00
2.649830866420483932e+00
2.649830866420483932e+00
2.676831690420240051e+00
2.676831690420240051e+00
2.634455397198400828e+00
2.634455397198400828e+00
2.634455397198400828e+00
2.421636402478102745e+00
2.421636402478102745e+00
2.235630726035340299e+00
2.235630726035340299e+00
2.093876400036621899e+00
2.093876400036621899e+00
1.915745963927121709e+00
1.915745963927121709e+00
1.743240699484237322e+00
1.743240699484237322e+00
1.754303537095248444e+00
1.754303537095248444e+00
1.954559648426770879e+00
1.954559648426770879e+00
2.364072145756401344e+00
2.364072145756401344e+00
2.364072145756401344e+00
2.417136265144810281e+00
2.417136265144810281e+00
2.761021759697256606e+00
2.761021759697256606e+00
2.809023224585711187e+00
2.809023224585711187e+00
2.590766563921018228e+00
2.590766563921018228e+00
2.417886288033692654e+00
2.417886288033692654e+00
2.200379650257881181e+00
2.200379650257881181e+00
2.035749626148258606e+00
2.035749626148258606e+00
2.035749626148258606e+00
1.981560472426526776e+00
1.981560472426526776e+00
1.925496261482589233e+00
1.925496261482589233e+00
1.547109714041566164e+00
1.547109714041566164e+00
1.360541520432142049e+00
1.360541520432142049e+00
1.345916074098940873e+00
1.345916074098940873e+00
1.432168706320383400e+00
1.432168706320383400e+00
1.495358134708700826e+00
1.495358134708700826e+00
1.772116580706198485e+00
1.772116580706198485e+00
2.409448530533769173e+00
2.409448530533769173e+00
2.847274391918698466e+00
2.847274391918698466e+00
3.129658009582811928e+00
3.129658009582811928e+00
3.129658009582811928e+00
2.976465834528641441e+00
2.976465834528641441e+00
2.829273842585528165e+00
2.829273842585528165e+00
2.908213751640369882e+00
2.908213751640369882e+00
3.069468672750022886e+00
3.069468672750022886e+00
3.066281075472273798e+00
3.066281075472273798e+00
2.632767845698416043e+00
2.632767845698416043e+00
2.569390911587878357e+00
2.569390911587878357e+00
2.542202581865901756e+00
2.542202581865901756e+00
2.542202581865901756e+00
2.595641712698752102e+00
2.595641712698752102e+00
2.327508529923398850e+00
2.327508529923398850e+00
2.260193975646229259e+00
2.260193975646229259e+00
2.389947935422834124e+00
2.389947935422834124e+00
2.227192968535416817e+00
2.227192968535416817e+00
1.965434980315561520e+00
1.965434980315561520e+00
1.617424359874263695e+00
1.617424359874263695e+00
1.569797906430249856e+00
1.569797906430249856e+00
1.569797906430249856e+00
1.638800012207403789e+00
1.638800012207403789e+00
1.789554612872707340e+00
1.789554612872707340e+00
2.024124271370586037e+00
2.024124271370586037e+00
2.041937314981536300e+00
2.041937314981536300e+00
2.115439558091983141e+00
2.115439558091983141e+00
2.014561479537339217e+00
2.014561479537339217e+00
1.649675344096194429e+00
1.649675344096194429e+00
1.439293923764763505e+00
1.439293923764763505e+00
1.439293923764763505e+00
1.715114841151158087e+00
1.715114841151158087e+00
1.874869716483047011e+00
1.874869716483047011e+00
1.781116855372783636e+00
1.781116855372783636e+00
1.872994659260841743e+00
1.872994659260841743e+00
2.164378551591540134e+00
2.164378551591540134e+00
2.712270271919919651e+00
2.712270271919919651e+00
3.238786339915158852e+00
3.238786339915158852e+00
3.547233252967924688e+00
3.547233252967924688e+00
3.293725516525773056e+00
3.293725516525773056e+00
2.970465651417585118e+00
2.970465651417585118e+00
2.857399700918607177e+00
2.857399700918607177e+00
2.857399700918607177e+00
2.807898190252388293e+00
2.807898190252388293e+00
2.359947019867549844e+00
2.359947019867549844e+00
1.971810174871059473e+00
1.971810174871059473e+00
2.394073061311685624e+00
2.394073061311685624e+00
2.650018372142704415e+00
2.650018372142704415e+00
2.742833704641865378e+00
2.742833704641865378e+00
2.643455671864986201e+00
2.643455671864986201e+00
2.444887112033448329e+00
2.444887112033448329e+00
2.444887112033448329e+00
2.480700704977568893e+00
2.480700704977568893e+00
2.432324228644673347e+00
2.432324228644673347e+00
2.268631733146153184e+00
2.268631733146153184e+00
2.106814294869838289e+00
2.106814294869838289e+00
2.140940336313974068e+00
2.140940336313974068e+00
2.063125461592455689e+00
2.063125461592455689e+00
1.999373516037476817e+00
1.999373516037476817e+00
1.742865688039796135e+00
1.742865688039796135e+00
1.742865688039796135e+00
1.743803216650898991e+00
1.743803216650898991e+00
2.086001159703360308e+00
2.086001159703360308e+00
1.974810266426587635e+00
1.974810266426587635e+00
1.942371776482436641e+00
1.942371776482436641e+00
2.066313058870204777e+00
2.066313058870204777e+00
2.129127475814081016e+00
2.129127475814081016e+00
2.120314706869716570e+00
2.120314706869716570e+00
2.211067476424451339e+00
2.211067476424451339e+00
2.211067476424451339e+00
2.175628894924771739e+00
2.175628894924771739e+00
1.910683309427167575e+00
1.910683309427167575e+00
2.070063173314615312e+00
2.070063173314615312e+00
2.364447157200842309e+00
2.364447157200842309e+00
2.657518601031525485e+00
2.657518601031525485e+00
2.740771141697439628e+00
2.740771141697439628e+00
3.055218237861262676e+00
3.055218237861262676e+00
3.188159794915616185e+00
3.188159794915616185e+00
3.188159794915616185e+00
2.877275307473983190e+00
2.877275307473983190e+00
2.529264687032685366e+00
2.529264687032685366e+00
2.203004730368968822e+00
2.203004730368968822e+00
2.059000335703604190e+00
2.059000335703604190e+00
2.131377544480727693e+00
2.131377544480727693e+00
2.188191778313547164e+00
2.188191778313547164e+00
2.212005005035553751e+00
2.212005005035553751e+00
2.110564409314249268e+00
2.110564409314249268e+00
2.108876857814264483e+00
2.108876857814264483e+00
2.161565965758232455e+00
2.161565965758232455e+00
2.092376354258858040e+00
2.092376354258858040e+00
2.092376354258858040e+00
2.109439374980925930e+00
2.109439374980925930e+00
2.408886013367107282e+00
2.408886013367107282e+00
2.429136631366924259e+00
2.429136631366924259e+00
2.388260383922848895e+00
2.388260383922848895e+00
2.393885555589465142e+00
2.393885555589465142e+00
2.373447431867427682e+00
2.373447431867427682e+00
2.304820337534714714e+00
2.304820337534714714e+00
2.207879879146702695e+00
2.207879879146702695e+00
2.207879879146702695e+00
2.341196447645496725e+00
2.341196447645496725e+00
2.302945280312509890e+00
2.302945280312509890e+00
1.926433790093691867e+00
1.926433790093691867e+00
1.703301980651264813e+00
1.703301980651264813e+00
1.701051911984618803e+00
1.701051911984618803e+00
1.744740745262001402e+00
1.744740745262001402e+00
1.932433973204748634e+00
1.932433973204748634e+00
2.411323587755973996e+00
2.411323587755973996e+00
2.451637318033387469e+00
2.451637318033387469e+00
2.451637318033387469e+00
2.516701803643909940e+00
2.516701803643909940e+00
2.566390820032349751e+00
2.566390820032349751e+00
2.595079195532090210e+00
2.595079195532090210e+00
2.559453108310190128e+00
2.559453108310190128e+00
2.588516495254371552e+00
2.588516495254371552e+00
2.652830957976012538e+00
2.652830957976012538e+00
2.420323862422559369e+00
2.420323862422559369e+00
2.399323221533860018e+00
2.399323221533860018e+00
2.399323221533860018e+00
2.317008209479048730e+00
2.317008209479048730e+00
2.217255165257729033e+00
2.217255165257729033e+00
2.039687246314890068e+00
2.039687246314890068e+00
2.160628437147130043e+00
2.160628437147130043e+00
2.478263130588702179e+00
2.478263130588702179e+00
2.293007477034821662e+00
2.293007477034821662e+00
2.295632557145908859e+00
2.295632557145908859e+00
2.295632557145908859e+00
2.352634296700948813e+00
2.352634296700948813e+00
2.393698049867244659e+00
2.393698049867244659e+00
2.392385509811700839e+00
2.392385509811700839e+00
2.365572191534165203e+00
2.365572191534165203e+00
2.379260109256263966e+00
2.379260109256263966e+00
2.228130497146519229e+00
2.228130497146519229e+00
2.222130314035462462e+00
2.222130314035462462e+00
2.215567613757744247e+00
2.215567613757744247e+00
2.221755302591021497e+00
2.221755302591021497e+00
2.221755302591021497e+00
2.136815210425123013e+00
2.136815210425123013e+00
2.298632648701437464e+00
2.298632648701437464e+00
2.377572557756279181e+00
2.377572557756279181e+00
2.246318552201910457e+00
2.246318552201910457e+00
2.221567796868801015e+00
2.221567796868801015e+00
2.184441663869136629e+00
2.184441663869136629e+00
2.184816675313578038e+00
2.184816675313578038e+00
2.219880245368816230e+00
2.219880245368816230e+00
2.219880245368816230e+00
2.206942350535599839e+00
2.206942350535599839e+00
2.068188116092410045e+00
2.068188116092410045e+00
1.934871547593615571e+00
1.934871547593615571e+00
1.922683675649281332e+00
1.922683675649281332e+00
1.957747245704519745e+00
1.957747245704519745e+00
1.904495620593890104e+00
1.904495620593890104e+00
1.871494613483077663e+00
1.871494613483077663e+00
2.257193884090700653e+00
2.257193884090700653e+00
2.257193884090700653e+00
2.385447798089541660e+00
2.385447798089541660e+00
2.493076082644123392e+00
2.493076082644123392e+00
2.562078188421277325e+00
2.562078188421277325e+00
2.608204596087527527e+00
2.608204596087527527e+00
2.684331919309061121e+00
2.684331919309061121e+00
2.697832331308938958e+00
2.697832331308938958e+00
2.691457136753440782e+00
2.691457136753440782e+00
2.504701437421796406e+00
2.504701437421796406e+00
2.504701437421796406e+00
2.436449354533524403e+00
2.436449354533524403e+00
2.425011505478072316e+00
2.425011505478072316e+00
2.383197729422894984e+00
2.383197729422894984e+00
2.172816309091464060e+00
2.172816309091464060e+00
2.106626789147617806e+00
2.106626789147617806e+00
2.413761162144840711e+00
2.413761162144840711e+00
2.165128574480422063e+00
2.165128574480422063e+00
2.078500930814539238e+00
2.078500930814539238e+00
2.078500930814539238e+00
2.104001709036531054e+00
2.104001709036531054e+00
2.031436994537187068e+00
2.031436994537187068e+00
1.974060243537705706e+00
1.974060243537705706e+00
2.073813287759025847e+00
2.073813287759025847e+00
2.292257454145939732e+00
2.292257454145939732e+00
2.268256721701712220e+00
2.268256721701712220e+00
2.416198736533707869e+00
2.416198736533707869e+00
2.493076082644123392e+00
2.493076082644123392e+00
2.493076082644123392e+00
2.427261574144718992e+00
2.427261574144718992e+00
2.212567522202215642e+00
2.212567522202215642e+00
2.362947111423078006e+00
2.362947111423078006e+00
2.561140659810174913e+00
2.561140659810174913e+00
2.373634937589648164e+00
2.373634937589648164e+00
2.303882808923612302e+00
2.303882808923612302e+00
2.314758140812402942e+00
2.314758140812402942e+00
2.313445600756859122e+00
2.313445600756859122e+00
2.281569627979369130e+00
2.281569627979369130e+00
2.281569627979369130e+00
2.267881710257271255e+00
2.267881710257271255e+00
2.288319833979308715e+00
2.288319833979308715e+00
2.170191228980376863e+00
2.170191228980376863e+00
2.119564683980834197e+00
2.119564683980834197e+00
2.096501480147709540e+00
2.096501480147709540e+00
2.074375804925687294e+00
2.074375804925687294e+00
1.997123447370830363e+00
1.997123447370830363e+00
2.264319101535081202e+00
2.264319101535081202e+00
2.264319101535081202e+00
2.345134067812128187e+00
2.345134067812128187e+00
2.217817682424390480e+00
2.217817682424390480e+00
2.195504501480147752e+00
2.195504501480147752e+00
2.232443128757591655e+00
2.232443128757591655e+00
2.209192419202246516e+00
2.209192419202246516e+00
2.317195715201269657e+00
2.317195715201269657e+00
2.456137455366679934e+00
2.456137455366679934e+00
2.441136997589037794e+00
2.441136997589037794e+00
2.441136997589037794e+00
2.426136539811395654e+00
2.426136539811395654e+00
2.386947843867305519e+00
2.386947843867305519e+00
2.257193884090700653e+00
2.257193884090700653e+00
2.054125186925870761e+00
2.054125186925870761e+00
1.968622577593310385e+00
1.968622577593310385e+00
2.248756126590777171e+00
2.248756126590777171e+00
2.120127201147496088e+00
2.120127201147496088e+00
2.194191961424603932e+00
2.194191961424603932e+00
2.194191961424603932e+00
2.293757499923703591e+00
2.293757499923703591e+00
2.218755211035493335e+00
2.218755211035493335e+00
2.149940610980559885e+00
2.149940610980559885e+00
2.177878963591417971e+00
2.177878963591417971e+00
2.347946653645436310e+00
2.347946653645436310e+00
2.265819147312845505e+00
2.265819147312845505e+00
2.289257362590411127e+00
2.289257362590411127e+00
2.389572923978392716e+00
2.389572923978392716e+00
2.493076082644123392e+00
2.493076082644123392e+00
2.493076082644123392e+00
2.425949034089175171e+00
2.425949034089175171e+00
2.509576586199530279e+00
2.509576586199530279e+00
2.741896176030762522e+00
2.741896176030762522e+00
2.475825556199835464e+00
2.475825556199835464e+00
2.367447248756370914e+00
2.367447248756370914e+00
2.268069215979491737e+00
2.268069215979491737e+00
2.268444227423932702e+00
2.268444227423932702e+00
2.269194250312814631e+00
2.269194250312814631e+00
2.267694204535050773e+00
2.267694204535050773e+00
2.267694204535050773e+00
2.236005737479781263e+00
2.236005737479781263e+00
1.972560197759941625e+00
1.972560197759941625e+00
1.913308389538254994e+00
1.913308389538254994e+00
1.947621936704611478e+00
1.947621936704611478e+00
1.992623310037537676e+00
1.992623310037537676e+00
1.989623218482009515e+00
1.989623218482009515e+00
2.280257087923826198e+00
2.280257087923826198e+00
2.503388897366253030e+00
2.503388897366253030e+00
2.503388897366253030e+00
2.468512833033234433e+00
2.468512833033234433e+00
2.471700430310983521e+00
2.471700430310983521e+00
2.497951231421857266e+00
2.497951231421857266e+00
2.474513016144291644e+00
2.474513016144291644e+00
2.438324411755729670e+00
2.438324411755729670e+00
2.461387615588854771e+00
2.461387615588854771e+00
2.435699331644642474e+00
2.435699331644642474e+00
2.322258369701224012e+00
2.322258369701224012e+00
2.322258369701224012e+00
2.276694479201635701e+00
2.276694479201635701e+00
2.205254799035615054e+00
2.205254799035615054e+00
2.065188024536881883e+00
2.065188024536881883e+00
1.918558549760429832e+00
1.918558549760429832e+00
2.178253975035859380e+00
2.178253975035859380e+00
2.119939695425275605e+00
2.119939695425275605e+00
2.011373882259590129e+00
2.011373882259590129e+00
2.026749351481673678e+00
2.026749351481673678e+00
2.026749351481673678e+00
2.147690542313913653e+00
2.147690542313913653e+00
2.275944456312753772e+00
2.275944456312753772e+00
2.272756859035004684e+00
2.272756859035004684e+00
2.332571184423352761e+00
2.332571184423352761e+00
2.264506607257301685e+00
2.264506607257301685e+00
2.231505600146489243e+00
2.231505600146489243e+00
2.230568071535386387e+00
2.230568071535386387e+00
2.278569536423841413e+00
2.278569536423841413e+00
2.278569536423841413e+00
2.241068391979735619e+00
2.334446241645558029e+00
2.334446241645558029e+00
2.334446241645558029e+00
2.683769402142399230e+00
2.683769402142399230e+00
2.541265053254798900e+00
2.541265053254798900e+00
2.452199835200048916e+00
2.452199835200048916e+00
2.419198828089236475e+00
2.419198828089236475e+00
2.347946653645436310e+00
2.347946653645436310e+00
2.341571459089938134e+00
2.341571459089938134e+00
2.345134067812128187e+00
2.345134067812128187e+00
2.405323404644917229e+00
2.405323404644917229e+00
2.405323404644917229e+00
2.212755027924436124e+00
2.212755027924436124e+00
2.130627521591845319e+00
2.130627521591845319e+00
2.080188482314524023e+00
2.080188482314524023e+00
2.119377178258613714e+00
2.119377178258613714e+00
2.012873928037354432e+00
2.012873928037354432e+00
2.159315897091586223e+00
2.159315897091586223e+00
2.432699240089114312e+00
2.432699240089114312e+00
2.337633838923307117e+00
2.337633838923307117e+00
2.337633838923307117e+00
2.397448164311655194e+00
2.397448164311655194e+00
2.413198644978179264e+00
2.413198644978179264e+00
2.366697225867488541e+00
2.366697225867488541e+00
2.353384319589831186e+00
2.353384319589831186e+00
2.326008484145634547e+00
2.326008484145634547e+00
2.339883907589953349e+00
2.339883907589953349e+00
2.184816675313578038e+00
2.184816675313578038e+00
2.153315713980529011e+00
2.153315713980529011e+00
2.153315713980529011e+00
2.161753471480452937e+00
2.161753471480452937e+00
2.149940610980559885e+00
2.149940610980559885e+00
2.034437086092715230e+00
2.034437086092715230e+00
2.188566789757988129e+00
2.188566789757988129e+00
2.232630634479812137e+00
2.232630634479812137e+00
2.174691366313669327e+00
2.174691366313669327e+00
2.231505600146489243e+00
2.231505600146489243e+00
2.264131595812860720e+00
2.264131595812860720e+00
2.264131595812860720e+00
2.305570360423596643e+00
2.305570360423596643e+00
2.380572649311807787e+00
2.380572649311807787e+00
2.548952787865840897e+00
2.548952787865840897e+00
2.562078188421277325e+00
2.562078188421277325e+00
2.488763451033051854e+00
2.488763451033051854e+00
2.364822168645283273e+00
2.364822168645283273e+00
2.179379009369182274e+00
2.179379009369182274e+00
2.016999053926206376e+00
2.016999053926206376e+00
1.982498001037629409e+00
1.982498001037629409e+00
2.342883999145481511e+00
2.342883999145481511e+00
2.342883999145481511e+00
2.296195074312570750e+00
2.296195074312570750e+00
2.198317087313455875e+00
2.198317087313455875e+00
2.147128025147251762e+00
2.147128025147251762e+00
2.115627063814203623e+00
2.115627063814203623e+00
2.111689443647572162e+00
2.111689443647572162e+00
2.145815485091708386e+00
2.145815485091708386e+00
2.305382854701376161e+00
2.305382854701376161e+00
2.287194799645985377e+00
2.287194799645985377e+00
2.287194799645985377e+00
2.364447157200842309e+00
2.364447157200842309e+00
2.406260933256020085e+00
2.406260933256020085e+00
2.425386516922513280e+00
2.425386516922513280e+00
2.266756675923947917e+00
2.266756675923947917e+00
2.230193060090945423e+00
2.230193060090945423e+00
2.464200201422162451e+00
2.464200201422162451e+00
2.304257820368053267e+00
2.304257820368053267e+00
2.304257820368053267e+00
2.258693929868464956e+00
2.258693929868464956e+00
2.257943906979583026e+00
2.257943906979583026e+00
2.247256080813012868e+00
2.247256080813012868e+00
2.222130314035462462e+00
2.222130314035462462e+00
2.289069856868190644e+00
2.289069856868190644e+00
2.387322855311746483e+00
2.387322855311746483e+00
2.231130588702047834e+00
2.231130588702047834e+00
2.208817407757805107e+00
2.208817407757805107e+00
2.208817407757805107e+00
2.209379924924466998e+00
2.209379924924466998e+00
2.238630817590868904e+00
2.238630817590868904e+00
2.207692373424482213e+00
2.207692373424482213e+00
2.407948484756004870e+00
2.407948484756004870e+00
2.557953062532425825e+00
2.557953062532425825e+00
2.446574663533433114e+00
2.446574663533433114e+00
2.407760979033784388e+00
2.407760979033784388e+00
2.342321481978820064e+00
2.342321481978820064e+00
2.342321481978820064e+00
2.292444959868159771e+00
2.292444959868159771e+00
2.289444868312631609e+00
2.289444868312631609e+00
2.370634846034120002e+00
2.370634846034120002e+00
2.352821802423169739e+00
2.352821802423169739e+00
2.201504684591204519e+00
2.201504684591204519e+00
2.138127750480666833e+00
2.138127750480666833e+00
2.064062990203558545e+00
2.064062990203558545e+00
2.000311044648579006e+00
2.000311044648579006e+00
1.986248115482039944e+00
1.986248115482039944e+00
2.289257362590411127e+00
2.289257362590411127e+00
2.329571092867824156e+00
2.329571092867824156e+00
2.329571092867824156e+00
2.277256996368297592e+00
2.277256996368297592e+00
2.271444318979460864e+00
2.271444318979460864e+00
2.297507614368114126e+00
2.297507614368114126e+00
2.295445051423688376e+00
2.295445051423688376e+00
2.281757133701590057e+00
2.281757133701590057e+00
2.352821802423169739e+00
2.352821802423169739e+00
2.305195348979155678e+00
2.305195348979155678e+00
2.305195348979155678e+00
2.266194158757286470e+00
2.266194158757286470e+00
2.238630817590868904e+00
2.238630817590868904e+00
2.282132145146031021e+00
2.282132145146031021e+00
2.191004364146854844e+00
2.191004364146854844e+00
2.142252876369517889e+00
2.142252876369517889e+00
2.445262123477889293e+00
2.445262123477889293e+00
2.328258552812280335e+00
2.328258552812280335e+00
2.278569536423841413e+00
2.278569536423841413e+00
2.251381206701864812e+00
2.251381206701864812e+00
2.251381206701864812e+00
2.241818414868617992e+00
2.241818414868617992e+00
2.277819513534959039e+00
2.277819513534959039e+00
2.345696584978789634e+00
2.345696584978789634e+00
2.485575853755302767e+00
2.485575853755302767e+00
2.346634113589892490e+00
2.346634113589892490e+00
2.307632923368022837e+00
2.307632923368022837e+00
2.245193517868587563e+00
2.245193517868587563e+00
2.245193517868587563e+00
2.139252784813989727e+00
1.995248390148625317e+00
1.995248390148625317e+00
2.066688070314646186e+00
2.066688070314646186e+00
2.303882808923612302e+00
2.303882808923612302e+00
2.198879604480116878e+00
2.198879604480116878e+00
2.222130314035462462e+00
2.222130314035462462e+00
2.222130314035462462e+00
2.283819696646015807e+00
2.283819696646015807e+00
2.349634205145421095e+00
2.349634205145421095e+00
2.425386516922513280e+00
2.425386516922513280e+00
2.499638782921842051e+00
2.499638782921842051e+00
2.543890133365886541e+00
2.543890133365886541e+00
2.391822992645039392e+00
2.391822992645039392e+00
2.366509720145268059e+00
2.366509720145268059e+00
2.362947111423078006e+00
2.362947111423078006e+00
2.362947111423078006e+00
2.282882168034912951e+00
2.282882168034912951e+00
2.137002716147343495e+00
2.137002716147343495e+00
2.282882168034912951e+00
2.282882168034912951e+00
2.325820978423414065e+00
2.325820978423414065e+00
2.196442030091250608e+00
2.196442030091250608e+00
2.219317728202154782e+00
2.219317728202154782e+00
2.227005462813196335e+00
2.227005462813196335e+00
2.236568254646443155e+00
2.236568254646443155e+00
2.236568254646443155e+00
2.255318826868495830e+00
2.255318826868495830e+00
2.325258461256752618e+00
2.325258461256752618e+00
2.306507889034699499e+00
2.306507889034699499e+00
2.264319101535081202e+00
2.264319101535081202e+00
2.255506332590716312e+00
2.255506332590716312e+00
2.271256813257240381e+00
2.271256813257240381e+00
2.192129398480178182e+00
2.192129398480178182e+00
2.134002624591814889e+00
2.134002624591814889e+00
2.134002624591814889e+00
2.417886288033692654e+00
2.417886288033692654e+00
2.333883724478896582e+00
2.333883724478896582e+00
2.275569444868312807e+00
2.275569444868312807e+00
2.275006927701650916e+00
2.275006927701650916e+00
2.242568437757499922e+00
2.242568437757499922e+00
2.203754753257850751e+00
2.203754753257850751e+00
2.211254982146671821e+00
2.211254982146671821e+00
2.319258278145695407e+00
2.319258278145695407e+00
2.319258278145695407e+00
2.247631092257453833e+00
2.247631092257453833e+00
2.253443769646290562e+00
2.253443769646290562e+00
2.276131962034974254e+00
2.276131962034974254e+00
2.304257820368053267e+00
2.304257820368053267e+00
2.158378368480483367e+00
2.158378368480483367e+00
2.176378917813653668e+00
2.176378917813653668e+00
2.459887569811090469e+00
2.459887569811090469e+00
2.307445417645802355e+00
2.307445417645802355e+00
2.307445417645802355e+00
2.267319193090609808e+00
2.267319193090609808e+00
2.288132328257088233e+00
2.288132328257088233e+00
2.296945097201452679e+00
2.296945097201452679e+00
2.305382854701376161e+00
2.305382854701376161e+00
2.333508713034455617e+00
2.333508713034455617e+00
2.385260292367321178e+00
2.385260292367321178e+00
2.191754387035737217e+00
2.191754387035737217e+00
2.148440565202795582e+00
2.148440565202795582e+00
2.148440565202795582e+00
2.173191320535905025e+00
2.173191320535905025e+00
2.195316995757927270e+00
2.195316995757927270e+00
2.118439649647511303e+00
2.118439649647511303e+00
2.254381298257393418e+00
2.254381298257393418e+00
2.412261116367076408e+00
2.412261116367076408e+00
2.283632190923795324e+00
2.283632190923795324e+00
2.286819788201544412e+00
2.286819788201544412e+00
2.296945097201452679e+00
2.296945097201452679e+00
2.281944639423810539e+00
2.281944639423810539e+00
2.281944639423810539e+00
2.291507431257057803e+00
2.291507431257057803e+00
2.356384411145359792e+00
2.356384411145359792e+00
2.378697592089602519e+00
2.378697592089602519e+00
2.276881984923856628e+00
2.276881984923856628e+00
2.249506149479659545e+00
2.249506149479659545e+00
2.244818506424146598e+00
2.244818506424146598e+00
2.199442121646778769e+00
2.199442121646778769e+00
2.111501937925351680e+00
2.111501937925351680e+00
2.111501937925351680e+00
2.327133518478957885e+00
2.317945738090151586e+00
2.317945738090151586e+00
2.228693014313181120e+00
2.256068849757378203e+00
2.256068849757378203e+00
2.277069490646077110e+00
2.292632465590380253e+00
2.292632465590380253e+00
2.315508163701284872e+00
2.379072603534043484e+00
2.379072603534043484e+00
2.308945463423566213e+00
2.266381664479506952e+00
2.266381664479506952e+00
2.258881435590685438e+00
2.256631366924039650e+00
2.256631366924039650e+00
2.178441480758079862e+00
2.119752189703054679e+00
2.119752189703054679e+00
2.412823633533738299e+00
2.287569811090426342e+00
2.287569811090426342e+00
2.247443586535233351e+00
2.256818872646260132e+00
2.256818872646260132e+00
2.258881435590685438e+00
2.283257179479354360e+00
2.283257179479354360e+00
2.318133243812372069e+00
2.431199194311350009e+00
2.431199194311350009e+00
2.306320383312479017e+00
2.302945280312509890e+00
2.302945280312509890e+00
2.276506973479415219e+00
2.221192785424360050e+00
2.221192785424360050e+00
2.097251503036591469e+00
2.177878963591417971e+00
2.177878963591417971e+00
2.396698141422773265e+00
2.257756401257362544e+00
2.257756401257362544e+00
2.267319193090609808e+00
2.297320108645893644e+00
2.297320108645893644e+00
2.282319650868251504e+00
2.267319193090609808e+00
2.267319193090609808e+00
2.286257271034882521e+00
2.361447065645314147e+00
2.361447065645314147e+00
2.250443678090761956e+00
2.251006195257423848e+00
2.251006195257423848e+00
2.249506149479659545e+00
2.223067842646564873e+00
2.223067842646564873e+00
2.141127842036194995e+00
2.315695669423505798e+00
2.315695669423505798e+00
2.391072969756157018e+00
2.265444135868404540e+00
2.265444135868404540e+00
2.261694021423993561e+00
2.252318735312967224e+00
2.252318735312967224e+00
2.269756767479476078e+00
2.299757683034760802e+00
2.299757683034760802e+00
2.385447798089541660e+00
2.363884640034180418e+00
2.363884640034180418e+00
2.264694112979522167e+00
2.224942899868770141e+00
2.224942899868770141e+00
2.218192693868831444e+00
2.218192693868831444e+00
2.160065919980468152e+00
2.107564317758720662e+00
2.107564317758720662e+00
2.392198004089480357e+00
2.313445600756859122e+00
2.313445600756859122e+00
2.222130314035462462e+00
2.261131504257332114e+00
2.261131504257332114e+00
2.269194250312814631e+00
2.275381939146092325e+00
2.275381939146092325e+00
2.292819971312600735e+00
2.407198461867122496e+00
2.407198461867122496e+00
2.329946104312265120e+00
2.310820520645771925e+00
2.310820520645771925e+00
2.273881893368328022e+00
2.251193700979644330e+00
2.251193700979644330e+00
2.141690359202856442e+00
2.160253425702688634e+00
2.160253425702688634e+00
2.466262764366588645e+00
2.323758415478988315e+00
2.323758415478988315e+00
2.292257454145939732e+00
2.288507339701529197e+00
2.288507339701529197e+00
2.272944364757225166e+00
2.257568895535142062e+00
2.257568895535142062e+00
2.252881252479629115e+00
2.341758964812158617e+00
2.341758964812158617e+00
2.205817316202276945e+00
2.185379192480239485e+00
2.185379192480239485e+00
2.168128666035950669e+00
2.172066286202582130e+00
2.172066286202582130e+00
2.076625873592333971e+00
2.221380291146580532e+00
2.221380291146580532e+00
2.425011505478072316e+00
2.314945646534623425e+00
2.314945646534623425e+00
2.314945646534623425e+00
2.325070955534531691e+00
2.325070955534531691e+00
2.351696768089846401e+00
2.351696768089846401e+00
2.348696676534318240e+00
2.348696676534318240e+00
2.332571184423352761e+00
2.332571184423352761e+00
2.350571733756523507e+00
2.350571733756523507e+00
2.377385052034058699e+00
2.377385052034058699e+00
2.270131778923917043e+00
2.270131778923917043e+00
2.244631000701926116e+00
2.244631000701926116e+00
2.252506241035188150e+00
2.252506241035188150e+00
2.252506241035188150e+00
2.211817499313333268e+00
2.211817499313333268e+00
2.125189855647450443e+00
2.125189855647450443e+00
2.364634662923062791e+00
2.364634662923062791e+00
2.358446974089785542e+00
2.358446974089785542e+00
2.227942991424298746e+00
2.227942991424298746e+00
2.217630176702169997e+00
2.217630176702169997e+00
2.208254890591143660e+00
2.208254890591143660e+00
2.230943082979827352e+00
2.230943082979827352e+00
2.230943082979827352e+00
2.273694387646107540e+00
2.273694387646107540e+00
2.373634937589648164e+00
2.373634937589648164e+00
2.335758781701101849e+00
2.335758781701101849e+00
2.265444135868404540e+00
2.265444135868404540e+00
2.234318185979796478e+00
2.234318185979796478e+00
2.232255623035371173e+00
2.232255623035371173e+00
2.136252693258461566e+00
2.136252693258461566e+00
2.115627063814203623e+00
2.115627063814203623e+00
2.115627063814203623e+00
2.415261207922605013e+00
2.415261207922605013e+00
2.308757957701345731e+00
2.308757957701345731e+00
2.253631275368511044e+00
2.253631275368511044e+00
2.269756767479476078e+00
2.269756767479476078e+00
2.276506973479415219e+00
2.276506973479415219e+00
2.277819513534959039e+00
2.277819513534959039e+00
2.283632190923795324e+00
2.283632190923795324e+00
2.392948026978362286e+00
2.392948026978362286e+00
2.392948026978362286e+00
2.274256904812768987e+00
2.274256904812768987e+00
2.256068849757378203e+00
2.256068849757378203e+00
2.233755668813135031e+00
2.233755668813135031e+00
2.245381023590808045e+00
2.245381023590808045e+00
2.125752372814111890e+00
2.125752372814111890e+00
2.194379467146824858e+00
2.194379467146824858e+00
2.447324686422315043e+00
2.447324686422315043e+00
2.291882442701498768e+00
2.291882442701498768e+00
2.291882442701498768e+00
2.263569078646198829e+00
2.263569078646198829e+00
2.264881618701742649e+00
2.264881618701742649e+00
2.255693838312936794e+00
2.255693838312936794e+00
2.260193975646229259e+00
2.260193975646229259e+00
2.285132236701559627e+00
2.285132236701559627e+00
2.381322672200689716e+00
2.381322672200689716e+00
2.258506424146244473e+00
2.258506424146244473e+00
2.250631183812982439e+00
2.250631183812982439e+00
2.250631183812982439e+00
2.267319193090609808e+00
2.267319193090609808e+00
2.245193517868587563e+00
2.245193517868587563e+00
2.128377452925199087e+00
2.128377452925199087e+00
2.283444685201574842e+00
2.283444685201574842e+00
2.395760612811670409e+00
2.395760612811670409e+00
2.273694387646107540e+00
2.273694387646107540e+00
2.264131595812860720e+00
2.264131595812860720e+00
2.265631641590625023e+00
2.265631641590625023e+00
2.265631641590625023e+00
2.261694021423993561e+00
2.261694021423993561e+00
2.286257271034882521e+00
2.286257271034882521e+00
2.359947019867549844e+00
2.359947019867549844e+00
2.354509353923154524e+00
2.354509353923154524e+00
2.264881618701742649e+00
2.264881618701742649e+00
2.233755668813135031e+00
2.233755668813135031e+00
2.244068483535264225e+00
2.244068483535264225e+00
2.197942075869014911e+00
2.197942075869014911e+00
2.197942075869014911e+00
2.129689992980742907e+00
2.129689992980742907e+00
2.398010681478316641e+00
2.398010681478316641e+00
2.338383861812189490e+00
2.338383861812189490e+00
2.254568803979613900e+00
2.254568803979613900e+00
2.255881344035157721e+00
2.255881344035157721e+00
2.263381572923978347e+00
2.263381572923978347e+00
2.252506241035188150e+00
2.252506241035188150e+00
2.257568895535142062e+00
2.257568895535142062e+00
2.359759514145329362e+00
2.359759514145329362e+00
2.359759514145329362e+00
2.292819971312600735e+00
2.292819971312600735e+00
2.244631000701926116e+00
2.244631000701926116e+00
2.243130954924161813e+00
2.243130954924161813e+00
2.271444318979460864e+00
2.271444318979460864e+00
2.166253608813745402e+00
2.166253608813745402e+00
2.153690725424969976e+00
2.153690725424969976e+00
2.449762260811182202e+00
2.449762260811182202e+00
2.305570360423596643e+00
2.305570360423596643e+00
2.305570360423596643e+00
2.264881618701742649e+00
2.264881618701742649e+00
2.264131595812860720e+00
2.264131595812860720e+00
2.256443861201819168e+00
2.256443861201819168e+00
2.268819238868374111e+00
2.268819238868374111e+00
2.284569719534897736e+00
2.284569719534897736e+00
2.381510177922910199e+00
2.381510177922910199e+00
2.249318643757439062e+00
2.249318643757439062e+00
2.241443403424177028e+00
2.241443403424177028e+00
2.241443403424177028e+00
2.234318185979796478e+00
2.234318185979796478e+00
2.236380748924222672e+00
2.236380748924222672e+00
2.146940519425031280e+00
2.146940519425031280e+00
2.258881435590685438e+00
2.258881435590685438e+00
2.422948942533646566e+00
2.422948942533646566e+00
2.257006378368480615e+00
2.257006378368480615e+00
2.247068575090792386e+00
2.247068575090792386e+00
2.285694753868221074e+00
2.285694753868221074e+00
2.285694753868221074e+00
2.265444135868404540e+00
2.265444135868404540e+00
2.276506973479415219e+00
2.276506973479415219e+00
2.317008209479048730e+00
2.317008209479048730e+00
2.366884731589709023e+00
2.366884731589709023e+00
2.275381939146092325e+00
2.275381939146092325e+00
2.270881801812799416e+00
2.270881801812799416e+00
2.261694021423993561e+00
2.261694021423993561e+00
2.208254890591143660e+00
2.208254890591143660e+00
2.208254890591143660e+00
2.119377178258613714e+00
2.119377178258613714e+00
2.323570909756767389e+00
2.323570909756767389e+00
2.356759422589800756e+00
2.356759422589800756e+00
2.244443494979705633e+00
2.244443494979705633e+00
2.235255714590899334e+00
2.235255714590899334e+00
2.258131412701803509e+00
2.258131412701803509e+00
2.272006836146122755e+00
2.272006836146122755e+00
2.286632282479323930e+00
2.286632282479323930e+00
2.370072328867458111e+00
2.370072328867458111e+00
2.370072328867458111e+00
2.321508346812341639e+00
2.321508346812341639e+00
2.260756492812891150e+00
2.260756492812891150e+00
2.231880611590930208e+00
2.231880611590930208e+00
2.235255714590899334e+00
2.235255714590899334e+00
2.160253425702688634e+00
2.160253425702688634e+00
2.125189855647450443e+00
2.125189855647450443e+00
2.444512100589007364e+00
2.444512100589007364e+00
2.343259010589922919e+00
2.343259010589922919e+00
2.343259010589922919e+00
2.292257454145939732e+00
2.292257454145939732e+00
2.274444410534989469e+00
2.274444410534989469e+00
2.253256263924070080e+00
2.253256263924070080e+00
2.266569170201727434e+00
2.266569170201727434e+00
2.266381664479506952e+00
2.266381664479506952e+00
2.369884823145237629e+00
2.369884823145237629e+00
2.271819330423901828e+00
2.271819330423901828e+00
2.263006561479537382e+00
2.263006561479537382e+00
2.236005737479781263e+00
2.236005737479781263e+00
2.236005737479781263e+00
2.251756218146305777e+00
2.251756218146305777e+00
2.137002716147343495e+00
2.137002716147343495e+00
2.184441663869136629e+00
2.184441663869136629e+00
2.440761986144596829e+00
2.440761986144596829e+00
2.297695120090334608e+00
2.297695120090334608e+00
2.255506332590716312e+00
2.255506332590716312e+00
2.260193975646229259e+00
2.260193975646229259e+00
2.265631641590625023e+00
2.265631641590625023e+00
2.265631641590625023e+00
2.283632190923795324e+00
2.283632190923795324e+00
2.310633014923550999e+00
2.310633014923550999e+00
2.389572923978392716e+00
2.389572923978392716e+00
2.258506424146244473e+00
2.258506424146244473e+00
2.255881344035157721e+00
2.255881344035157721e+00
2.251756218146305777e+00
2.251756218146305777e+00
2.237880794701986531e+00
2.237880794701986531e+00
2.142065370647297406e+00
2.142065370647297406e+00
2.142065370647297406e+00
2.296945097201452679e+00
2.296945097201452679e+00
2.400260750144962874e+00
2.400260750144962874e+00
2.260193975646229259e+00
2.260193975646229259e+00
2.257193884090700653e+00
2.257193884090700653e+00
2.256818872646260132e+00
2.256818872646260132e+00
2.257568895535142062e+00
2.257568895535142062e+00
2.275756950590533290e+00
2.275756950590533290e+00
2.327883541367839371e+00
2.327883541367839371e+00
2.339321390423291458e+00
2.339321390423291458e+00
2.339321390423291458e+00
2.267319193090609808e+00
2.267319193090609808e+00
2.271631824701681346e+00
2.271631824701681346e+00
2.279882076479384789e+00
2.279882076479384789e+00
2.216880153813287624e+00
2.216880153813287624e+00
2.142065370647297406e+00
2.142065370647297406e+00
2.395948118533890892e+00
2.395948118533890892e+00
2.347196630756553937e+00
2.347196630756553937e+00
2.254943815424054865e+00
2.254943815424054865e+00
2.254943815424054865e+00
2.230005554368724940e+00
2.230005554368724940e+00
2.230755577257606870e+00
2.230755577257606870e+00
2.239943357646412725e+00
2.239943357646412725e+00
2.266194158757286470e+00
2.266194158757286470e+00
2.370447340311899076e+00
2.370447340311899076e+00
2.298820154423657947e+00
2.298820154423657947e+00
2.252506241035188150e+00
2.252506241035188150e+00
2.235818231757560781e+00
2.235818231757560781e+00
2.235818231757560781e+00
2.253068758201849597e+00
2.253068758201849597e+00
2.152940702536088047e+00
2.152940702536088047e+00
2.140752830591753586e+00
2.140752830591753586e+00
2.449949766533402684e+00
2.449949766533402684e+00
2.313633106479079604e+00
2.313633106479079604e+00
2.262819055757316900e+00
2.262819055757316900e+00
2.259631458479567812e+00
2.259631458479567812e+00
2.248756126590777171e+00
2.248756126590777171e+00
2.248756126590777171e+00
2.270319284646137969e+00
2.270319284646137969e+00
2.289257362590411127e+00
2.289257362590411127e+00
2.365384685811944721e+00
2.365384685811944721e+00
2.258318918424023991e+00
2.258318918424023991e+00
2.262444044312875935e+00
2.262444044312875935e+00
2.250818689535202921e+00
2.250818689535202921e+00
2.271069307535019899e+00
2.271069307535019899e+00
2.157065828424939546e+00
2.157065828424939546e+00
2.257943906979583026e+00
2.257943906979583026e+00
2.257943906979583026e+00
2.452012329477828434e+00
2.452012329477828434e+00
2.291132419812616394e+00
2.291132419812616394e+00
2.277632007812738557e+00
2.277632007812738557e+00
2.267881710257271255e+00
2.267881710257271255e+00
2.259818964201788294e+00
2.259818964201788294e+00
2.271069307535019899e+00
2.271069307535019899e+00
2.318695760979033516e+00
2.318695760979033516e+00
2.377385052034058699e+00
2.377385052034058699e+00
2.377385052034058699e+00
2.263381572923978347e+00
2.263381572923978347e+00
2.234130680257575996e+00
2.234130680257575996e+00
2.225317911313211550e+00
2.225317911313211550e+00
2.177316446424756524e+00
2.177316446424756524e+00
2.100439100314340557e+00
2.100439100314340557e+00
2.322445875423444495e+00
2.322445875423444495e+00
2.390322946867275089e+00
2.390322946867275089e+00
2.390322946867275089e+00
2.276881984923856628e+00
2.276881984923856628e+00
2.263569078646198829e+00
2.263569078646198829e+00
2.268819238868374111e+00
2.268819238868374111e+00
2.276881984923856628e+00
2.276881984923856628e+00
2.291319925534837321e+00
2.291319925534837321e+00
2.375322489089632505e+00
2.375322489089632505e+00
2.349634205145421095e+00
2.349634205145421095e+00
2.278569536423841413e+00
2.278569536423841413e+00
2.242193426313058957e+00
2.242193426313058957e+00
2.242193426313058957e+00
2.236568254646443155e+00
2.236568254646443155e+00
2.155003265480513797e+00
2.155003265480513797e+00
2.105501754814294912e+00
2.105501754814294912e+00
2.410573564867091623e+00
2.410573564867091623e+00
2.314570635090182460e+00
2.314570635090182460e+00
2.257943906979583026e+00
2.257943906979583026e+00
2.266006653035065987e+00
2.266006653035065987e+00
2.271444318979460864e+00
2.271444318979460864e+00
2.271444318979460864e+00
2.281194616534928166e+00
2.281194616534928166e+00
2.287944822534867306e+00
2.287944822534867306e+00
2.401948301644947659e+00
2.401948301644947659e+00
2.299570177312540320e+00
2.299570177312540320e+00
2.263006561479537382e+00
2.263006561479537382e+00
2.231318094424268317e+00
2.231318094424268317e+00
2.248006103701895242e+00
2.248006103701895242e+00
2.144315439313944083e+00
2.144315439313944083e+00
2.144315439313944083e+00
2.188191778313547164e+00
2.188191778313547164e+00
2.467575304422132465e+00
2.467575304422132465e+00
2.321320841090121156e+00
2.281569627979369130e+00
2.281569627979369130e+00
2.281569627979369130e+00
2.284194708090456771e+00
2.284194708090456771e+00
2.275381939146092325e+00
2.275381939146092325e+00
2.276131962034974254e+00
2.276131962034974254e+00
2.291319925534837321e+00
2.291319925534837321e+00
2.375509994811853431e+00
2.375509994811853431e+00
2.243880977813043742e+00
2.243880977813043742e+00
2.232068117313150690e+00
2.232068117313150690e+00
2.231505600146489243e+00
2.231505600146489243e+00
2.221942808313242423e+00
2.221942808313242423e+00
2.221942808313242423e+00
2.125564867091891408e+00
2.125564867091891408e+00
2.270881801812799416e+00
2.270881801812799416e+00
2.418073793755913137e+00
2.418073793755913137e+00
2.277256996368297592e+00
2.277256996368297592e+00
2.270319284646137969e+00
2.270319284646137969e+00
2.269006744590594149e+00
2.269006744590594149e+00
2.265819147312845505e+00
2.265819147312845505e+00
2.268819238868374111e+00
2.268819238868374111e+00
2.268819238868374111e+00
2.326946012756737403e+00
2.326946012756737403e+00
2.340633930478835278e+00
2.340633930478835278e+00
2.250256172368541474e+00
2.250256172368541474e+00
2.233943174535355514e+00
2.233943174535355514e+00
2.248193609424115724e+00
2.248193609424115724e+00
2.188941801202429094e+00
2.188941801202429094e+00
2.121439741203039464e+00
2.121439741203039464e+00
2.377947569200720146e+00
2.377947569200720146e+00
2.377947569200720146e+00
2.357509445478682686e+00
2.357509445478682686e+00
2.272569353312784202e+00
2.272569353312784202e+00
2.276506973479415219e+00
2.276506973479415219e+00
2.261131504257332114e+00
2.261131504257332114e+00
2.259818964201788294e+00
2.259818964201788294e+00
2.297882625812555535e+00
2.297882625812555535e+00
2.364447157200842309e+00
2.364447157200842309e+00
2.283632190923795324e+00
2.283632190923795324e+00
2.245943540757469048e+00
2.245943540757469048e+00
2.231505600146489243e+00
2.231505600146489243e+00
2.243880977813043742e+00
2.243880977813043742e+00
2.157253334147160473e+00
2.157253334147160473e+00
2.136252693258461566e+00
2.136252693258461566e+00
2.438886928922391562e+00
2.438886928922391562e+00
2.318133243812372069e+00
2.318133243812372069e+00
2.318133243812372069e+00
2.273881893368328022e+00
2.273881893368328022e+00
2.271256813257240381e+00
2.271256813257240381e+00
2.251006195257423848e+00
2.251006195257423848e+00
2.256443861201819168e+00
2.256443861201819168e+00
2.264506607257301685e+00
2.264506607257301685e+00
2.376822534867396808e+00
2.376822534867396808e+00
2.261131504257332114e+00
2.261131504257332114e+00
2.263944090090640238e+00
2.263944090090640238e+00
2.263944090090640238e+00
2.251568712424085295e+00
2.251568712424085295e+00
2.264131595812860720e+00
2.264131595812860720e+00
2.148440565202795582e+00
2.148440565202795582e+00
2.233568163090914993e+00
2.233568163090914993e+00
2.436824365977965812e+00
2.436824365977965812e+00
2.276694479201635701e+00
2.276694479201635701e+00
2.264131595812860720e+00
2.264131595812860720e+00
2.272381847590563719e+00
2.272381847590563719e+00
2.272381847590563719e+00
2.267694204535050773e+00
2.267694204535050773e+00
2.275756950590533290e+00
2.275756950590533290e+00
2.305757866145817125e+00
2.305757866145817125e+00
2.367072237311929506e+00
2.367072237311929506e+00
2.263569078646198829e+00
2.263569078646198829e+00
2.255318826868495830e+00
2.255318826868495830e+00
2.257193884090700653e+00
2.257193884090700653e+00
2.220067751091036712e+00
2.220067751091036712e+00
2.220067751091036712e+00
2.125002349925229961e+00
2.125002349925229961e+00
2.308570451979125249e+00
2.308570451979125249e+00
2.376822534867396808e+00
2.376822534867396808e+00
2.257568895535142062e+00
2.257568895535142062e+00
2.247068575090792386e+00
2.247068575090792386e+00
2.245756035035248566e+00
2.245756035035248566e+00
2.251756218146305777e+00
2.251756218146305777e+00
2.256443861201819168e+00
2.256443861201819168e+00
2.256443861201819168e+00
2.332571184423352761e+00
2.332571184423352761e+00
2.339133884701071420e+00
2.339133884701071420e+00
2.274256904812768987e+00
2.274256904812768987e+00
2.254568803979613900e+00
2.254568803979613900e+00
2.254568803979613900e+00
2.254568803979613900e+00
2.181629078035828950e+00
2.181629078035828950e+00
2.121064729758598499e+00
2.121064729758598499e+00
2.421261391033662225e+00
2.421261391033662225e+00
2.346634113589892490e+00
2.346634113589892490e+00
2.282507156590471986e+00
2.282507156590471986e+00
2.282507156590471986e+00
2.276131962034974254e+00
2.276131962034974254e+00
2.268631733146153184e+00
2.268631733146153184e+00
2.274444410534989469e+00
2.274444410534989469e+00
2.285132236701559627e+00
2.285132236701559627e+00
2.378697592089602519e+00
2.378697592089602519e+00
2.295070039979247412e+00
2.295070039979247412e+00
2.266569170201727434e+00
2.266569170201727434e+00
2.246881069368571904e+00
2.246881069368571904e+00
2.246881069368571904e+00
2.261319009979552597e+00
2.261319009979552597e+00
2.142815393536179780e+00
2.142815393536179780e+00
2.161565965758232455e+00
2.161565965758232455e+00
2.447512192144535526e+00
2.447512192144535526e+00
2.294882534257026929e+00
2.294882534257026929e+00
2.253068758201849597e+00
2.253068758201849597e+00
2.252131229590746742e+00
2.252131229590746742e+00
2.255693838312936794e+00
2.255693838312936794e+00
2.266944181646168399e+00
2.266944181646168399e+00
2.266944181646168399e+00
2.282882168034912951e+00
2.282882168034912951e+00
2.380010132145145896e+00
2.380010132145145896e+00
2.259068941312906365e+00
2.259068941312906365e+00
2.250068666646320992e+00
2.250068666646320992e+00
2.240880886257515137e+00
2.240880886257515137e+00
2.246131046479689974e+00
2.246131046479689974e+00
2.146002990813928868e+00
2.146002990813928868e+00
2.273131870479445649e+00
2.273131870479445649e+00
2.273131870479445649e+00
2.413011139255958781e+00
2.413011139255958781e+00
2.262069032868434526e+00
2.262069032868434526e+00
2.261131504257332114e+00
2.261131504257332114e+00
2.258881435590685438e+00
2.258881435590685438e+00
2.260381481368449741e+00
2.260381481368449741e+00
2.281194616534928166e+00
2.281194616534928166e+00
2.338008850367748082e+00
2.338008850367748082e+00
2.338008850367748082e+00
2.382822717978454019e+00
2.382822717978454019e+00
2.293007477034821662e+00
2.293007477034821662e+00
2.245381023590808045e+00
2.245381023590808045e+00
2.245568529313028083e+00
2.245568529313028083e+00
2.195316995757927270e+00
2.195316995757927270e+00
2.116939603869747000e+00
2.116939603869747000e+00
2.360697042756431774e+00
2.360697042756431774e+00
2.359947019867549844e+00
2.359947019867549844e+00
2.256256355479598685e+00
2.256256355479598685e+00
2.256256355479598685e+00
2.263006561479537382e+00
2.263006561479537382e+00
2.248568620868556689e+00
2.248568620868556689e+00
2.251756218146305777e+00
2.251756218146305777e+00
2.268631733146153184e+00
2.268631733146153184e+00
2.350384228034303025e+00
2.350384228034303025e+00
2.297695120090334608e+00
2.297695120090334608e+00
2.253443769646290562e+00
2.253443769646290562e+00
2.236568254646443155e+00
2.236568254646443155e+00
2.256068849757378203e+00
2.256068849757378203e+00
2.256068849757378203e+00
2.168691183202612560e+00
2.168691183202612560e+00
2.135877681814020157e+00
2.135877681814020157e+00
2.454637409588916075e+00
2.454637409588916075e+00
2.333321207312235135e+00
2.333321207312235135e+00
2.270131778923917043e+00
2.270131778923917043e+00
2.270319284646137969e+00
2.270319284646137969e+00
2.268819238868374111e+00
2.268819238868374111e+00
2.269381756035035114e+00
2.269381756035035114e+00
2.269381756035035114e+00
2.282507156590471986e+00
2.282507156590471986e+00
2.402135807367168141e+00
2.402135807367168141e+00
2.292632465590380253e+00
2.292632465590380253e+00
2.268819238868374111e+00
2.268819238868374111e+00
2.246318552201910457e+00
2.246318552201910457e+00
2.254193792535172935e+00
2.254193792535172935e+00
2.122564775536362802e+00
2.122564775536362802e+00
2.200567155980101663e+00
2.200567155980101663e+00
2.200567155980101663e+00
2.431011688589129527e+00
2.431011688589129527e+00
2.276131962034974254e+00
2.276131962034974254e+00
2.257193884090700653e+00
2.257193884090700653e+00
2.255318826868495830e+00
2.255318826868495830e+00
2.261131504257332114e+00
2.261131504257332114e+00
2.276881984923856628e+00
2.276881984923856628e+00
2.307445417645802355e+00
2.307445417645802355e+00
2.373822443311869090e+00
2.373822443311869090e+00
2.373822443311869090e+00
2.256068849757378203e+00
2.256068849757378203e+00
2.244443494979705633e+00
2.244443494979705633e+00
2.246881069368571904e+00
2.246881069368571904e+00
2.221192785424360050e+00
2.221192785424360050e+00
2.133065095980712478e+00
2.133065095980712478e+00
2.311195532090212890e+00
2.311195532090212890e+00
2.395010589922788480e+00
2.395010589922788480e+00
2.268256721701712220e+00
2.268256721701712220e+00
2.273131870479445649e+00
2.273131870479445649e+00
2.273131870479445649e+00
2.268444227423932702e+00
2.268444227423932702e+00
2.264881618701742649e+00
2.264881618701742649e+00
2.268256721701712220e+00
2.268256721701712220e+00
2.337633838923307117e+00
2.337633838923307117e+00
2.327696035645618888e+00
2.327696035645618888e+00
2.261881527146214044e+00
2.261881527146214044e+00
2.253256263924070080e+00
2.253256263924070080e+00
2.260381481368449741e+00
2.260381481368449741e+00
2.260381481368449741e+00
2.191379375591296252e+00
2.191379375591296252e+00
2.132127567369609622e+00
2.132127567369609622e+00
2.421261391033662225e+00
2.421261391033662225e+00
2.345509079256569152e+00
2.345509079256569152e+00
2.257006378368480615e+00
2.257006378368480615e+00
2.261131504257332114e+00
2.261131504257332114e+00
2.247443586535233351e+00
2.247443586535233351e+00
2.256631366924039650e+00
2.256631366924039650e+00
2.256631366924039650e+00
2.277819513534959039e+00
2.277819513534959039e+00
2.360134525589770327e+00
2.360134525589770327e+00
2.271444318979460864e+00
2.271444318979460864e+00
2.255506332590716312e+00
2.255506332590716312e+00
2.252506241035188150e+00
2.252506241035188150e+00
2.267131687368389326e+00
2.267131687368389326e+00
2.161003448591571008e+00
2.161003448591571008e+00
2.167566148869289222e+00
2.167566148869289222e+00
2.167566148869289222e+00
2.458950041199987613e+00
2.458950041199987613e+00
2.305945371868038052e+00
2.305945371868038052e+00
2.261131504257332114e+00
2.261131504257332114e+00
2.261319009979552597e+00
2.261319009979552597e+00
2.254568803979613900e+00
2.254568803979613900e+00
2.258506424146244473e+00
2.258506424146244473e+00
2.279319559312723342e+00
2.279319559312723342e+00
2.391447981200597983e+00
2.391447981200597983e+00
2.391447981200597983e+00
2.264131595812860720e+00
2.264131595812860720e+00
2.259068941312906365e+00
2.259068941312906365e+00
2.254193792535172935e+00
2.254193792535172935e+00
2.225505417035432032e+00
2.225505417035432032e+00
2.116564592425305591e+00
2.116564592425305591e+00
2.242568437757499922e+00
2.242568437757499922e+00
2.423323953978087530e+00
2.423323953978087530e+00
2.277632007812738557e+00
2.277632007812738557e+00
2.277632007812738557e+00
2.260943998535111632e+00
2.260943998535111632e+00
2.253443769646290562e+00
2.253443769646290562e+00
2.247068575090792386e+00
2.247068575090792386e+00
2.277069490646077110e+00
2.277069490646077110e+00
2.338946378978850937e+00
2.338946378978850937e+00
2.373822443311869090e+00
2.373822443311869090e+00
2.278757042146061895e+00
2.278757042146061895e+00
2.263569078646198829e+00
2.263569078646198829e+00
2.263569078646198829e+00
2.258693929868464956e+00
2.258693929868464956e+00
2.204129764702292160e+00
2.204129764702292160e+00
2.123502304147465658e+00
2.123502304147465658e+00
2.361822077089755112e+00
2.361822077089755112e+00
2.381135166478469234e+00
2.381135166478469234e+00
2.268819238868374111e+00
2.268819238868374111e+00
2.254756309701834383e+00
2.254756309701834383e+00
2.232068117313150690e+00
2.232068117313150690e+00
2.232068117313150690e+00
2.222880336924344391e+00
2.222880336924344391e+00
2.239380840479750834e+00
2.239380840479750834e+00
2.344946562089907705e+00
2.344946562089907705e+00
2.300132694479201767e+00
2.300132694479201767e+00
2.256256355479598685e+00
2.256256355479598685e+00
2.249318643757439062e+00
2.249318643757439062e+00
2.272006836146122755e+00
2.272006836146122755e+00
2.189691824091311467e+00
2.189691824091311467e+00
2.189691824091311467e+00
2.143190404980620745e+00
2.143190404980620745e+00
2.464950224311044824e+00
2.464950224311044824e+00
2.343821527756584366e+00
2.343821527756584366e+00
2.289444868312631609e+00
2.289444868312631609e+00
2.309882992034669069e+00
2.309882992034669069e+00
2.288319833979308715e+00
2.288319833979308715e+00
2.280069582201605716e+00
2.280069582201605716e+00
2.271631824701681346e+00
2.271631824701681346e+00
2.271631824701681346e+00
2.358071962645344577e+00
2.358071962645344577e+00
2.231505600146489243e+00
2.231505600146489243e+00
2.231880611590930208e+00
2.231880611590930208e+00
