2.251006195257423848e+00
2.270319284646137969e+00
2.270319284646137969e+00
2.270319284646137969e+00
2.270319284646137969e+00
2.219692739646595747e+00
2.219692739646595747e+00
2.219692739646595747e+00
2.135315164647358710e+00
2.135315164647358710e+00
2.135315164647358710e+00
2.368197271645252844e+00
2.368197271645252844e+00
2.368197271645252844e+00
2.368197271645252844e+00
2.390510452589495571e+00
2.390510452589495571e+00
2.390510452589495571e+00
2.253443769646290562e+00
2.253443769646290562e+00
2.253443769646290562e+00
2.251381206701864812e+00
2.251381206701864812e+00
2.251381206701864812e+00
2.251381206701864812e+00
2.240130863368633207e+00
2.240130863368633207e+00
2.240130863368633207e+00
2.235255714590899334e+00
2.235255714590899334e+00
2.235255714590899334e+00
2.269194250312814631e+00
2.269194250312814631e+00
2.269194250312814631e+00
2.269194250312814631e+00
2.349821710867641578e+00
2.349821710867641578e+00
2.349821710867641578e+00
2.321320841090121156e+00
2.321320841090121156e+00
2.321320841090121156e+00
2.321320841090121156e+00
2.249693655201880027e+00
2.249693655201880027e+00
2.249693655201880027e+00
2.303132786034730373e+00
2.303132786034730373e+00
2.303132786034730373e+00
2.351884273812066883e+00
2.351884273812066883e+00
2.351884273812066883e+00
2.351884273812066883e+00
2.144502945036164565e+00
2.144502945036164565e+00
2.144502945036164565e+00
2.109251869258705447e+00
2.109251869258705447e+00
2.109251869258705447e+00
2.448824732200079346e+00
2.448824732200079346e+00
2.448824732200079346e+00
2.307070406201360946e+00
2.307070406201360946e+00
2.307070406201360946e+00
2.307070406201360946e+00
2.235630726035340299e+00
2.235630726035340299e+00
2.235630726035340299e+00
2.266569170201727434e+00
2.266569170201727434e+00
2.266569170201727434e+00
2.266569170201727434e+00
2.335383770256660885e+00
2.335383770256660885e+00
2.335383770256660885e+00
2.321695852534562121e+00
2.321695852534562121e+00
2.321695852534562121e+00
2.336883816034425188e+00
2.336883816034425188e+00
2.336883816034425188e+00
2.336883816034425188e+00
2.437761894589068223e+00
2.437761894589068223e+00
2.437761894589068223e+00
2.326008484145634547e+00
2.326008484145634547e+00
2.326008484145634547e+00
2.289444868312631609e+00
2.289444868312631609e+00
2.289444868312631609e+00
2.280444593646046680e+00
2.280444593646046680e+00
2.280444593646046680e+00
2.269569261757255596e+00
2.269569261757255596e+00
2.269569261757255596e+00
2.151440656758324188e+00
2.151440656758324188e+00
2.151440656758324188e+00
2.151440656758324188e+00
2.202067201757865966e+00
2.202067201757865966e+00
2.202067201757865966e+00
2.489513473921933784e+00
2.489513473921933784e+00
2.489513473921933784e+00
2.251193700979644330e+00
2.251193700979644330e+00
2.251193700979644330e+00
2.149753105258339403e+00
2.149753105258339403e+00
2.149753105258339403e+00
2.149753105258339403e+00
2.215755119479964730e+00
2.215755119479964730e+00
2.215755119479964730e+00
2.174316354869228363e+00
2.174316354869228363e+00
2.174316354869228363e+00
2.214630085146641392e+00
2.214630085146641392e+00
2.214630085146641392e+00
2.214630085146641392e+00
2.244443494979705633e+00
2.244443494979705633e+00
2.244443494979705633e+00
2.356759422589800756e+00
2.356759422589800756e+00
2.356759422589800756e+00
2.235630726035340299e+00
2.235630726035340299e+00
2.235630726035340299e+00
2.235630726035340299e+00
2.235630726035340299e+00
2.235630726035340299e+00
2.235630726035340299e+00
2.249693655201880027e+00
2.249693655201880027e+00
2.249693655201880027e+00
2.228130497146519229e+00
2.228130497146519229e+00
2.228130497146519229e+00
2.128752464369640052e+00
2.128752464369640052e+00
2.128752464369640052e+00
2.128752464369640052e+00
2.310633014923550999e+00
2.310633014923550999e+00
2.310633014923550999e+00
2.411698599200414961e+00
2.411698599200414961e+00
2.411698599200414961e+00
2.270131778923917043e+00
2.270131778923917043e+00
2.270131778923917043e+00
2.262256538590655452e+00
2.262256538590655452e+00
2.262256538590655452e+00
2.262256538590655452e+00
2.246506057924130939e+00
2.246506057924130939e+00
2.246506057924130939e+00
2.244068483535264225e+00
2.244068483535264225e+00
2.244068483535264225e+00
2.244068483535264225e+00
2.269006744590594149e+00
2.269006744590594149e+00
2.269006744590594149e+00
2.308570451979125249e+00
2.308570451979125249e+00
2.308570451979125249e+00
2.335571275978881367e+00
2.335571275978881367e+00
2.335571275978881367e+00
2.267881710257271255e+00
2.267881710257271255e+00
2.267881710257271255e+00
2.267881710257271255e+00
2.270506790368358452e+00
2.270506790368358452e+00
2.270506790368358452e+00
2.256068849757378203e+00
2.256068849757378203e+00
2.256068849757378203e+00
2.256068849757378203e+00
2.195129490035706787e+00
2.195129490035706787e+00
2.195129490035706787e+00
2.131752555925168657e+00
2.131752555925168657e+00
2.131752555925168657e+00
2.419011322367015993e+00
2.419011322367015993e+00
2.419011322367015993e+00
2.419011322367015993e+00
2.365197180089724238e+00
2.365197180089724238e+00
2.365197180089724238e+00
2.260756492812891150e+00
2.260756492812891150e+00
2.260756492812891150e+00
2.256443861201819168e+00
2.256443861201819168e+00
2.256443861201819168e+00
2.256443861201819168e+00
2.227005462813196335e+00
2.227005462813196335e+00
2.227005462813196335e+00
2.238630817590868904e+00
2.238630817590868904e+00
2.238630817590868904e+00
2.264131595812860720e+00
2.264131595812860720e+00
2.264131595812860720e+00
2.264131595812860720e+00
2.360697042756431774e+00
2.360697042756431774e+00
2.360697042756431774e+00
2.306132877590258534e+00
2.306132877590258534e+00
2.306132877590258534e+00
2.250443678090761956e+00
2.250443678090761956e+00
2.250443678090761956e+00
2.250443678090761956e+00
2.235443220313119816e+00
2.235443220313119816e+00
2.235443220313119816e+00
2.260193975646229259e+00
2.260193975646229259e+00
2.260193975646229259e+00
2.141690359202856442e+00
2.141690359202856442e+00
2.141690359202856442e+00
2.141690359202856442e+00
2.145440473647266977e+00
2.145440473647266977e+00
2.145440473647266977e+00
2.491013519699698087e+00
2.491013519699698087e+00
2.491013519699698087e+00
2.491013519699698087e+00
2.302007751701407035e+00
2.302007751701407035e+00
2.302007751701407035e+00
2.237880794701986531e+00
2.237880794701986531e+00
2.237880794701986531e+00
2.240693380535294654e+00
2.240693380535294654e+00
2.240693380535294654e+00
2.240693380535294654e+00
2.230568071535386387e+00
2.230568071535386387e+00
2.230568071535386387e+00
2.260193975646229259e+00
2.260193975646229259e+00
2.260193975646229259e+00
2.294695028534806447e+00
2.294695028534806447e+00
2.294695028534806447e+00
2.294695028534806447e+00
2.435136814477980582e+00
2.435136814477980582e+00
2.435136814477980582e+00
2.295257545701467894e+00
2.295257545701467894e+00
2.295257545701467894e+00
2.269944273201696561e+00
2.269944273201696561e+00
2.269944273201696561e+00
2.269944273201696561e+00
2.265256630146183614e+00
2.265256630146183614e+00
2.265256630146183614e+00
2.273131870479445649e+00
2.273131870479445649e+00
2.273131870479445649e+00
2.126689901425214746e+00
2.126689901425214746e+00
2.126689901425214746e+00
2.126689901425214746e+00
2.250068666646320992e+00
2.250068666646320992e+00
2.250068666646320992e+00
2.484450819421979428e+00
2.484450819421979428e+00
2.484450819421979428e+00
2.290007385479293500e+00
2.290007385479293500e+00
2.290007385479293500e+00
2.290007385479293500e+00
2.239193334757530351e+00
2.239193334757530351e+00
2.239193334757530351e+00
2.235630726035340299e+00
2.235630726035340299e+00
2.235630726035340299e+00
2.235818231757560781e+00
2.235818231757560781e+00
2.235818231757560781e+00
2.235818231757560781e+00
2.261131504257332114e+00
2.261131504257332114e+00
2.261131504257332114e+00
2.305382854701376161e+00
2.305382854701376161e+00
2.305382854701376161e+00
2.374009949034089573e+00
2.374009949034089573e+00
2.374009949034089573e+00
2.374009949034089573e+00
2.254193792535172935e+00
2.254193792535172935e+00
2.254193792535172935e+00
2.229255531479842567e+00
2.229255531479842567e+00
2.229255531479842567e+00
2.248006103701895242e+00
2.248006103701895242e+00
2.248006103701895242e+00
2.248006103701895242e+00
2.220442762535478121e+00
2.220442762535478121e+00
2.220442762535478121e+00
2.131002533036286284e+00
2.131002533036286284e+00
2.131002533036286284e+00
2.364634662923062791e+00
2.364634662923062791e+00
2.364634662923062791e+00
2.364634662923062791e+00
2.401198278756065729e+00
2.401198278756065729e+00
2.401198278756065729e+00
2.272944364757225166e+00
2.272944364757225166e+00
2.272944364757225166e+00
2.271631824701681346e+00
2.271631824701681346e+00
2.271631824701681346e+00
2.271631824701681346e+00
2.250256172368541474e+00
2.250256172368541474e+00
2.250256172368541474e+00
2.233568163090914993e+00
2.233568163090914993e+00
2.233568163090914993e+00
2.233568163090914993e+00
2.245943540757469048e+00
2.245943540757469048e+00
2.245943540757469048e+00
2.333696218756676100e+00
2.333696218756676100e+00
2.333696218756676100e+00
2.322070863979003530e+00
2.322070863979003530e+00
2.322070863979003530e+00
2.322070863979003530e+00
2.251006195257423848e+00
2.251006195257423848e+00
2.251006195257423848e+00
2.234880703146458369e+00
2.234880703146458369e+00
2.234880703146458369e+00
2.257568895535142062e+00
2.257568895535142062e+00
2.257568895535142062e+00
2.257568895535142062e+00
2.179379009369182274e+00
2.179379009369182274e+00
2.179379009369182274e+00
2.219692739646595747e+00
2.219692739646595747e+00
2.219692739646595747e+00
2.477325601977599767e+00
2.477325601977599767e+00
2.477325601977599767e+00
2.477325601977599767e+00
2.325820978423414065e+00
2.325820978423414065e+00
2.325820978423414065e+00
2.249506149479659545e+00
2.249506149479659545e+00
2.249506149479659545e+00
2.262631550035096417e+00
2.262631550035096417e+00
2.262631550035096417e+00
2.262631550035096417e+00
2.240880886257515137e+00
2.240880886257515137e+00
2.240880886257515137e+00
2.250443678090761956e+00
2.250443678090761956e+00
2.250443678090761956e+00
2.250443678090761956e+00
2.279132053590502860e+00
2.279132053590502860e+00
2.279132053590502860e+00
2.383385235145115466e+00
2.383385235145115466e+00
2.383385235145115466e+00
2.285319742423780109e+00
2.285319742423780109e+00
2.285319742423780109e+00
2.285319742423780109e+00
2.252318735312967224e+00
2.252318735312967224e+00
2.252318735312967224e+00
2.247631092257453833e+00
2.247631092257453833e+00
2.247631092257453833e+00
2.277819513534959039e+00
2.277819513534959039e+00
2.277819513534959039e+00
2.146002990813928868e+00
2.146002990813928868e+00
2.146002990813928868e+00
2.146002990813928868e+00
2.185191686758019003e+00
2.185191686758019003e+00
2.185191686758019003e+00
2.484825830866420393e+00
2.484825830866420393e+00
2.484825830866420393e+00
2.290382396923734465e+00
2.290382396923734465e+00
2.290382396923734465e+00
2.290382396923734465e+00
2.244818506424146598e+00
2.244818506424146598e+00
2.244818506424146598e+00
2.234505691702016961e+00
2.234505691702016961e+00
2.234505691702016961e+00
2.209567430646687480e+00
2.209567430646687480e+00
2.209567430646687480e+00
2.209567430646687480e+00
2.236380748924222672e+00
2.236380748924222672e+00
2.236380748924222672e+00
2.263006561479537382e+00
2.263006561479537382e+00
2.263006561479537382e+00
2.383760246589556875e+00
2.383760246589556875e+00
2.383760246589556875e+00
2.383760246589556875e+00
2.254381298257393418e+00
2.254381298257393418e+00
2.254381298257393418e+00
2.249318643757439062e+00
2.249318643757439062e+00
2.249318643757439062e+00
2.265631641590625023e+00
2.265631641590625023e+00
2.265631641590625023e+00
2.265631641590625023e+00
2.252693746757408633e+00
2.252693746757408633e+00
2.252693746757408633e+00
2.148440565202795582e+00
2.148440565202795582e+00
2.148440565202795582e+00
2.325445966978973100e+00
2.325445966978973100e+00
2.325445966978973100e+00
2.325445966978973100e+00
2.461762627033295736e+00
2.461762627033295736e+00
2.461762627033295736e+00
2.275006927701650916e+00
2.275006927701650916e+00
2.275006927701650916e+00
2.252318735312967224e+00
2.252318735312967224e+00
2.252318735312967224e+00
2.252318735312967224e+00
2.239193334757530351e+00
2.239193334757530351e+00
2.239193334757530351e+00
2.236568254646443155e+00
2.236568254646443155e+00
2.236568254646443155e+00
2.236568254646443155e+00
2.269756767479476078e+00
2.269756767479476078e+00
2.269756767479476078e+00
2.331071138645588459e+00
2.331071138645588459e+00
2.331071138645588459e+00
2.332383678701132279e+00
2.332383678701132279e+00
2.332383678701132279e+00
2.332383678701132279e+00
2.225130405590991067e+00
2.225130405590991067e+00
2.225130405590991067e+00
2.224942899868770141e+00
2.224942899868770141e+00
2.224942899868770141e+00
2.252131229590746742e+00
2.252131229590746742e+00
2.252131229590746742e+00
2.252131229590746742e+00
2.230380565813165905e+00
2.230380565813165905e+00
2.230380565813165905e+00
2.154815759758293314e+00
2.154815759758293314e+00
2.154815759758293314e+00
2.423886471144749422e+00
2.423886471144749422e+00
2.423886471144749422e+00
2.423886471144749422e+00
2.376447523422955843e+00
2.376447523422955843e+00
2.376447523422955843e+00
2.255318826868495830e+00
2.255318826868495830e+00
2.255318826868495830e+00
2.255131321146275347e+00
2.255131321146275347e+00
2.255131321146275347e+00
2.255131321146275347e+00
2.242943449201941331e+00
2.242943449201941331e+00
2.242943449201941331e+00
2.238818323313089387e+00
2.238818323313089387e+00
2.238818323313089387e+00
2.256631366924039650e+00
2.256631366924039650e+00
2.256631366924039650e+00
2.256631366924039650e+00
2.353009308145390222e+00
2.353009308145390222e+00
2.353009308145390222e+00
2.293945005645924073e+00
2.293945005645924073e+00
2.293945005645924073e+00
2.293945005645924073e+00
2.245381023590808045e+00
2.245381023590808045e+00
2.245381023590808045e+00
2.248381115146336207e+00
2.248381115146336207e+00
2.248381115146336207e+00
2.295632557145908859e+00
2.295632557145908859e+00
2.295632557145908859e+00
2.295632557145908859e+00
2.172628803369243577e+00
2.172628803369243577e+00
2.172628803369243577e+00
2.155565782647175688e+00
2.155565782647175688e+00
2.155565782647175688e+00
2.502451368755150174e+00
2.502451368755150174e+00
2.502451368755150174e+00
2.502451368755150174e+00
2.316445692312387283e+00
2.316445692312387283e+00
2.316445692312387283e+00
2.249506149479659545e+00
2.249506149479659545e+00
2.249506149479659545e+00
2.248381115146336207e+00
2.248381115146336207e+00
2.248381115146336207e+00
2.248381115146336207e+00
2.228505508590960638e+00
2.228505508590960638e+00
2.228505508590960638e+00
2.248756126590777171e+00
2.248756126590777171e+00
2.248756126590777171e+00
2.266756675923947917e+00
2.266756675923947917e+00
2.266756675923947917e+00
2.266756675923947917e+00
2.387135349589526001e+00
2.387135349589526001e+00
2.387135349589526001e+00
2.271256813257240381e+00
2.271256813257240381e+00
2.271256813257240381e+00
2.271256813257240381e+00
2.256631366924039650e+00
2.256631366924039650e+00
2.256631366924039650e+00
2.361822077089755112e+00
2.361822077089755112e+00
2.361822077089755112e+00
2.267506698812830290e+00
2.267506698812830290e+00
2.267506698812830290e+00
2.267506698812830290e+00
2.118627155369731785e+00
2.118627155369731785e+00
2.118627155369731785e+00
2.230943082979827352e+00
2.230943082979827352e+00
2.230943082979827352e+00
2.463262672811060039e+00
2.463262672811060039e+00
2.463262672811060039e+00
2.463262672811060039e+00
2.265819147312845505e+00
2.265819147312845505e+00
2.265819147312845505e+00
2.243130954924161813e+00
2.243130954924161813e+00
2.243130954924161813e+00
2.245381023590808045e+00
2.245381023590808045e+00
2.245381023590808045e+00
2.245381023590808045e+00
2.226630451368755370e+00
2.226630451368755370e+00
2.226630451368755370e+00
2.237880794701986531e+00
2.237880794701986531e+00
2.237880794701986531e+00
2.286069765312662039e+00
2.286069765312662039e+00
2.286069765312662039e+00
2.286069765312662039e+00
2.370634846034120002e+00
2.370634846034120002e+00
2.370634846034120002e+00
2.272944364757225166e+00
2.272944364757225166e+00
2.272944364757225166e+00
2.252318735312967224e+00
2.252318735312967224e+00
2.252318735312967224e+00
2.252318735312967224e+00
2.274069399090548504e+00
2.274069399090548504e+00
2.274069399090548504e+00
2.238443311868648422e+00
2.238443311868648422e+00
2.238443311868648422e+00
2.238443311868648422e+00
2.135690176091799675e+00
2.135690176091799675e+00
2.135690176091799675e+00
2.354321848200934042e+00
2.354321848200934042e+00
2.354321848200934042e+00
2.410761070589312105e+00
2.410761070589312105e+00
2.410761070589312105e+00
2.410761070589312105e+00
2.259256447035126847e+00
2.259256447035126847e+00
2.259256447035126847e+00
2.253818781090731527e+00
2.253818781090731527e+00
2.253818781090731527e+00
2.238255806146427940e+00
2.238255806146427940e+00
2.238255806146427940e+00
2.238255806146427940e+00
2.243693472090823260e+00
2.243693472090823260e+00
2.243693472090823260e+00
2.270694296090578934e+00
2.270694296090578934e+00
2.270694296090578934e+00
2.337633838923307117e+00
2.337633838923307117e+00
2.337633838923307117e+00
2.337633838923307117e+00
2.323570909756767389e+00
2.323570909756767389e+00
2.323570909756767389e+00
2.238818323313089387e+00
2.238818323313089387e+00
2.238818323313089387e+00
2.230755577257606870e+00
2.230755577257606870e+00
2.230755577257606870e+00
2.262444044312875935e+00
2.262444044312875935e+00
2.262444044312875935e+00
2.262444044312875935e+00
2.187629261146885273e+00
2.187629261146885273e+00
2.187629261146885273e+00
2.137752739036225869e+00
2.137752739036225869e+00
2.137752739036225869e+00
2.458012512588885201e+00
2.458012512588885201e+00
2.458012512588885201e+00
2.458012512588885201e+00
2.349446699423200169e+00
2.349446699423200169e+00
2.349446699423200169e+00
2.258131412701803509e+00
2.258131412701803509e+00
2.258131412701803509e+00
2.255131321146275347e+00
2.255131321146275347e+00
2.255131321146275347e+00
2.255131321146275347e+00
2.235068208868678852e+00
2.235068208868678852e+00
2.235068208868678852e+00
2.241068391979735619e+00
2.241068391979735619e+00
2.241068391979735619e+00
2.264694112979522167e+00
2.264694112979522167e+00
2.264694112979522167e+00
2.264694112979522167e+00
2.370822351756340485e+00
2.370822351756340485e+00
2.370822351756340485e+00
2.280632099368266719e+00
2.280632099368266719e+00
2.280632099368266719e+00
2.236193243202001746e+00
2.236193243202001746e+00
2.236193243202001746e+00
2.236193243202001746e+00
2.221567796868801015e+00
2.221567796868801015e+00
2.221567796868801015e+00
2.252881252479629115e+00
2.252881252479629115e+00
2.252881252479629115e+00
2.121064729758598499e+00
2.121064729758598499e+00
2.121064729758598499e+00
2.121064729758598499e+00
2.182191595202490397e+00
2.182191595202490397e+00
2.182191595202490397e+00
2.508826563310647906e+00
2.508826563310647906e+00
2.508826563310647906e+00
2.319070772423474924e+00
2.319070772423474924e+00
2.319070772423474924e+00
2.319070772423474924e+00
2.272006836146122755e+00
2.272006836146122755e+00
2.272006836146122755e+00
2.271819330423901828e+00
2.271819330423901828e+00
2.271819330423901828e+00
2.271819330423901828e+00
2.264881618701742649e+00
2.264881618701742649e+00
2.264881618701742649e+00
2.271256813257240381e+00
2.271256813257240381e+00
2.271256813257240381e+00
2.295632557145908859e+00
2.295632557145908859e+00
2.295632557145908859e+00
2.295632557145908859e+00
2.405323404644917229e+00
2.405323404644917229e+00
2.405323404644917229e+00
2.267131687368389326e+00
2.267131687368389326e+00
2.267131687368389326e+00
2.237880794701986531e+00
2.237880794701986531e+00
2.237880794701986531e+00
2.237880794701986531e+00
2.259256447035126847e+00
2.259256447035126847e+00
2.259256447035126847e+00
2.246881069368571904e+00
2.246881069368571904e+00
2.246881069368571904e+00
2.125377361369670925e+00
2.125377361369670925e+00
2.125377361369670925e+00
2.125377361369670925e+00
2.292257454145939732e+00
2.292257454145939732e+00
2.292257454145939732e+00
2.449574755088961275e+00
2.449574755088961275e+00
2.449574755088961275e+00
2.281007110812707683e+00
2.281007110812707683e+00
2.281007110812707683e+00
2.281007110812707683e+00
2.258131412701803509e+00
2.258131412701803509e+00
2.258131412701803509e+00
2.236568254646443155e+00
2.236568254646443155e+00
2.236568254646443155e+00
2.236568254646443155e+00
2.225505417035432032e+00
2.225505417035432032e+00
2.225505417035432032e+00
2.249881160924100509e+00
2.249881160924100509e+00
2.249881160924100509e+00
2.294507522812585520e+00
2.294507522812585520e+00
2.294507522812585520e+00
2.294507522812585520e+00
2.327883541367839371e+00
2.327883541367839371e+00
2.327883541367839371e+00
2.236943266090884119e+00
2.236943266090884119e+00
2.236943266090884119e+00
2.241630909146397510e+00
2.241630909146397510e+00
2.241630909146397510e+00
2.241630909146397510e+00
2.275006927701650916e+00
2.275006927701650916e+00
2.275006927701650916e+00
2.224380382702108694e+00
2.224380382702108694e+00
2.224380382702108694e+00
2.154065736869411385e+00
2.154065736869411385e+00
2.154065736869411385e+00
2.154065736869411385e+00
2.410761070589312105e+00
2.410761070589312105e+00
2.410761070589312105e+00
2.382635212256233537e+00
2.382635212256233537e+00
2.382635212256233537e+00
2.258881435590685438e+00
2.258881435590685438e+00
2.258881435590685438e+00
2.258881435590685438e+00
2.258318918424023991e+00
2.258318918424023991e+00
2.258318918424023991e+00
2.241630909146397510e+00
2.241630909146397510e+00
2.241630909146397510e+00
2.241630909146397510e+00
2.241630909146397510e+00
2.241630909146397510e+00
2.241630909146397510e+00
2.268256721701712220e+00
2.268256721701712220e+00
2.268256721701712220e+00
2.350946745200964472e+00
2.350946745200964472e+00
2.350946745200964472e+00
2.298632648701437464e+00
2.298632648701437464e+00
2.298632648701437464e+00
2.298632648701437464e+00
2.253256263924070080e+00
2.253256263924070080e+00
2.253256263924070080e+00
2.242755943479720404e+00
2.242755943479720404e+00
2.242755943479720404e+00
2.278007019257179522e+00
2.278007019257179522e+00
2.278007019257179522e+00
2.278007019257179522e+00
2.170378734702597345e+00
2.170378734702597345e+00
2.170378734702597345e+00
2.139627796258431136e+00
2.139627796258431136e+00
2.139627796258431136e+00
2.139627796258431136e+00
2.486325876644184696e+00
2.486325876644184696e+00
2.486325876644184696e+00
2.314008117923521013e+00
2.314008117923521013e+00
2.314008117923521013e+00
2.254943815424054865e+00
2.254943815424054865e+00
2.254943815424054865e+00
2.254943815424054865e+00
2.256068849757378203e+00
2.256068849757378203e+00
2.256068849757378203e+00
2.235818231757560781e+00
2.235818231757560781e+00
2.235818231757560781e+00
2.250256172368541474e+00
2.250256172368541474e+00
2.250256172368541474e+00
2.250256172368541474e+00
2.267506698812830290e+00
2.267506698812830290e+00
2.267506698812830290e+00
2.383572740867336393e+00
2.383572740867336393e+00
2.383572740867336393e+00
2.266194158757286470e+00
2.266194158757286470e+00
2.266194158757286470e+00
2.266194158757286470e+00
2.238255806146427940e+00
2.238255806146427940e+00
2.238255806146427940e+00
2.253256263924070080e+00
2.253256263924070080e+00
2.253256263924070080e+00
2.278944547868282378e+00
2.278944547868282378e+00
2.278944547868282378e+00
2.278944547868282378e+00
2.143190404980620745e+00
2.143190404980620745e+00
2.143190404980620745e+00
2.250818689535202921e+00
2.250818689535202921e+00
2.250818689535202921e+00
2.497013702810754854e+00
2.497013702810754854e+00
2.497013702810754854e+00
2.497013702810754854e+00
2.294320017090365038e+00
2.294320017090365038e+00
2.294320017090365038e+00
2.266006653035065987e+00
2.266006653035065987e+00
2.266006653035065987e+00
2.247068575090792386e+00
2.247068575090792386e+00
2.247068575090792386e+00
2.247068575090792386e+00
2.227567979979857782e+00
2.227567979979857782e+00
2.227567979979857782e+00
2.250068666646320992e+00
2.250068666646320992e+00
2.250068666646320992e+00
2.282319650868251504e+00
2.282319650868251504e+00
2.282319650868251504e+00
2.282319650868251504e+00
2.366884731589709023e+00
2.366884731589709023e+00
2.366884731589709023e+00
2.251756218146305777e+00
2.251756218146305777e+00
2.251756218146305777e+00
2.251756218146305777e+00
2.229255531479842567e+00
2.229255531479842567e+00
2.229255531479842567e+00
2.244631000701926116e+00
2.244631000701926116e+00
2.244631000701926116e+00
2.233568163090914993e+00
2.233568163090914993e+00
2.233568163090914993e+00
2.132690084536271069e+00
2.132690084536271069e+00
2.132690084536271069e+00
2.326946012756737403e+00
2.326946012756737403e+00
2.326946012756737403e+00
2.326946012756737403e+00
2.408511001922666317e+00
2.408511001922666317e+00
2.408511001922666317e+00
2.254381298257393418e+00
2.254381298257393418e+00
2.254381298257393418e+00
2.249506149479659545e+00
2.249506149479659545e+00
2.249506149479659545e+00
2.249506149479659545e+00
2.238818323313089387e+00
2.238818323313089387e+00
2.238818323313089387e+00
2.249131138035218136e+00
2.249131138035218136e+00
2.249131138035218136e+00
2.280819605090487201e+00
2.280819605090487201e+00
2.280819605090487201e+00
2.280819605090487201e+00
2.350196722312082542e+00
2.350196722312082542e+00
2.350196722312082542e+00
2.351321756645405436e+00
2.351321756645405436e+00
2.351321756645405436e+00
2.276506973479415219e+00
2.276506973479415219e+00
2.276506973479415219e+00
2.276506973479415219e+00
2.253631275368511044e+00
2.253631275368511044e+00
2.253631275368511044e+00
2.274631916257209951e+00
2.274631916257209951e+00
2.274631916257209951e+00
2.190066835535752432e+00
2.190066835535752432e+00
2.190066835535752432e+00
2.190066835535752432e+00
2.134565141758476781e+00
2.134565141758476781e+00
2.134565141758476781e+00
2.456137455366679934e+00
2.456137455366679934e+00
2.456137455366679934e+00
2.356946928312021239e+00
2.356946928312021239e+00
2.356946928312021239e+00
2.356946928312021239e+00
2.261319009979552597e+00
2.261319009979552597e+00
2.261319009979552597e+00
2.253256263924070080e+00
2.253256263924070080e+00
2.253256263924070080e+00
2.240318369090853690e+00
2.240318369090853690e+00
2.240318369090853690e+00
2.240318369090853690e+00
2.242755943479720404e+00
2.242755943479720404e+00
2.242755943479720404e+00
2.271256813257240381e+00
2.271256813257240381e+00
2.271256813257240381e+00
2.271256813257240381e+00
2.359384502700888397e+00
2.359384502700888397e+00
2.359384502700888397e+00
2.291507431257057803e+00
2.291507431257057803e+00
2.291507431257057803e+00
2.257943906979583026e+00
2.257943906979583026e+00
2.257943906979583026e+00
2.257943906979583026e+00
2.236755760368663637e+00
2.236755760368663637e+00
2.236755760368663637e+00
2.270694296090578934e+00
2.270694296090578934e+00
2.270694296090578934e+00
2.142815393536179780e+00
2.142815393536179780e+00
2.142815393536179780e+00
2.142815393536179780e+00
2.179003997924741309e+00
2.179003997924741309e+00
2.179003997924741309e+00
2.493451094088564801e+00
2.493451094088564801e+00
2.493451094088564801e+00
2.305945371868038052e+00
2.305945371868038052e+00
2.305945371868038052e+00
2.305945371868038052e+00
2.258693929868464956e+00
2.258693929868464956e+00
2.258693929868464956e+00
2.258693929868464956e+00
2.258693929868464956e+00
2.258693929868464956e+00
2.239005829035309869e+00
2.239005829035309869e+00
2.239005829035309869e+00
2.239005829035309869e+00
2.244443494979705633e+00
2.244443494979705633e+00
2.244443494979705633e+00
2.258131412701803509e+00
2.258131412701803509e+00
2.258131412701803509e+00
2.379822626422925413e+00
2.379822626422925413e+00
2.379822626422925413e+00
2.379822626422925413e+00
2.260381481368449741e+00
2.260381481368449741e+00
2.260381481368449741e+00
2.233380657368694511e+00
2.233380657368694511e+00
2.233380657368694511e+00
2.252693746757408633e+00
2.252693746757408633e+00
2.252693746757408633e+00
2.252693746757408633e+00
2.262256538590655452e+00
2.262256538590655452e+00
2.262256538590655452e+00
2.142815393536179780e+00
2.142815393536179780e+00
2.142815393536179780e+00
2.297695120090334608e+00
2.297695120090334608e+00
2.297695120090334608e+00
2.297695120090334608e+00
2.454824915311136557e+00
2.454824915311136557e+00
2.454824915311136557e+00
2.269944273201696561e+00
2.269944273201696561e+00
2.269944273201696561e+00
2.260006469924008776e+00
2.260006469924008776e+00
2.260006469924008776e+00
2.260006469924008776e+00
2.250818689535202921e+00
2.250818689535202921e+00
2.250818689535202921e+00
2.227942991424298746e+00
2.227942991424298746e+00
2.227942991424298746e+00
2.256068849757378203e+00
2.256068849757378203e+00
2.256068849757378203e+00
2.256068849757378203e+00
2.308945463423566213e+00
2.308945463423566213e+00
2.308945463423566213e+00
2.366134708700827094e+00
2.366134708700827094e+00
2.366134708700827094e+00
2.272569353312784202e+00
2.272569353312784202e+00
2.272569353312784202e+00
2.272569353312784202e+00
2.246131046479689974e+00
2.246131046479689974e+00
2.246131046479689974e+00
2.255131321146275347e+00
2.255131321146275347e+00
2.255131321146275347e+00
2.212192510757774677e+00
2.212192510757774677e+00
2.212192510757774677e+00
2.212192510757774677e+00
2.133252601702932960e+00
2.133252601702932960e+00
2.133252601702932960e+00
2.390697958311716054e+00
2.390697958311716054e+00
2.390697958311716054e+00
2.382822717978454019e+00
2.382822717978454019e+00
2.382822717978454019e+00
2.382822717978454019e+00
2.255693838312936794e+00
2.255693838312936794e+00
2.255693838312936794e+00
2.254193792535172935e+00
2.254193792535172935e+00
2.254193792535172935e+00
2.254193792535172935e+00
2.245756035035248566e+00
2.245756035035248566e+00
2.245756035035248566e+00
2.253443769646290562e+00
2.253443769646290562e+00
2.253443769646290562e+00
2.280444593646046680e+00
2.280444593646046680e+00
2.280444593646046680e+00
2.280444593646046680e+00
2.359384502700888397e+00
2.359384502700888397e+00
2.359384502700888397e+00
2.308757957701345731e+00
2.308757957701345731e+00
2.308757957701345731e+00
2.257568895535142062e+00
2.257568895535142062e+00
2.257568895535142062e+00
2.257568895535142062e+00
2.246693563646351421e+00
2.246693563646351421e+00
2.246693563646351421e+00
2.269006744590594149e+00
2.269006744590594149e+00
2.269006744590594149e+00
2.158378368480483367e+00
2.158378368480483367e+00
2.158378368480483367e+00
2.158378368480483367e+00
2.121252235480818982e+00
2.121252235480818982e+00
2.121252235480818982e+00
2.465887752922147680e+00
2.465887752922147680e+00
2.465887752922147680e+00
2.307445417645802355e+00
2.307445417645802355e+00
2.307445417645802355e+00
2.307445417645802355e+00
2.235630726035340299e+00
2.235630726035340299e+00
2.235630726035340299e+00
2.242755943479720404e+00
2.242755943479720404e+00
2.242755943479720404e+00
2.241630909146397510e+00
2.241630909146397510e+00
2.241630909146397510e+00
2.241630909146397510e+00
2.263381572923978347e+00
2.263381572923978347e+00
2.263381572923978347e+00
2.286444776757103448e+00
2.286444776757103448e+00
2.286444776757103448e+00
2.286444776757103448e+00
2.413573656422620228e+00
2.413573656422620228e+00
2.413573656422620228e+00
2.304257820368053267e+00
2.304257820368053267e+00
2.304257820368053267e+00
2.263381572923978347e+00
2.263381572923978347e+00
2.263381572923978347e+00
2.263381572923978347e+00
2.242755943479720404e+00
2.242755943479720404e+00
2.242755943479720404e+00
2.263194067201757864e+00
2.263194067201757864e+00
2.263194067201757864e+00
2.122377269814142320e+00
2.122377269814142320e+00
2.122377269814142320e+00
2.211442487868892304e+00
2.211442487868892304e+00
2.211442487868892304e+00
2.211442487868892304e+00
2.471137913144322074e+00
2.471137913144322074e+00
2.471137913144322074e+00
2.279132053590502860e+00
2.279132053590502860e+00
2.279132053590502860e+00
2.253256263924070080e+00
2.253256263924070080e+00
2.253256263924070080e+00
2.253256263924070080e+00
2.249881160924100509e+00
2.249881160924100509e+00
2.249881160924100509e+00
2.248006103701895242e+00
2.248006103701895242e+00
2.248006103701895242e+00
2.278569536423841413e+00
2.278569536423841413e+00
2.278569536423841413e+00
2.278569536423841413e+00
2.299570177312540320e+00
2.299570177312540320e+00
2.299570177312540320e+00
2.377760063478499664e+00
2.377760063478499664e+00
2.377760063478499664e+00
2.377760063478499664e+00
2.253631275368511044e+00
2.253631275368511044e+00
2.253631275368511044e+00
2.229818048646504014e+00
2.229818048646504014e+00
2.229818048646504014e+00
2.245006012146367080e+00
2.245006012146367080e+00
2.245006012146367080e+00
2.245006012146367080e+00
2.230380565813165905e+00
2.230380565813165905e+00
2.230380565813165905e+00
2.128752464369640052e+00
2.128752464369640052e+00
2.128752464369640052e+00
2.326195989867855030e+00
2.326195989867855030e+00
2.326195989867855030e+00
2.326195989867855030e+00
2.434011780144657688e+00
2.434011780144657688e+00
2.434011780144657688e+00
2.270506790368358452e+00
2.270506790368358452e+00
2.270506790368358452e+00
2.260568987090670667e+00
2.260568987090670667e+00
2.260568987090670667e+00
2.260568987090670667e+00
2.241068391979735619e+00
2.241068391979735619e+00
2.241068391979735619e+00
2.232818140202032620e+00
2.232818140202032620e+00
2.232818140202032620e+00
2.258131412701803509e+00
2.258131412701803509e+00
2.258131412701803509e+00
2.258131412701803509e+00
2.334821253089998994e+00
2.334821253089998994e+00
2.334821253089998994e+00
2.347571642200994901e+00
2.347571642200994901e+00
2.347571642200994901e+00
2.285507248146000592e+00
2.285507248146000592e+00
2.285507248146000592e+00
2.285507248146000592e+00
2.284944730979339145e+00
2.284944730979339145e+00
2.284944730979339145e+00
2.329946104312265120e+00
2.329946104312265120e+00
2.329946104312265120e+00
2.329946104312265120e+00
2.233380657368694511e+00
2.233380657368694511e+00
2.233380657368694511e+00
2.131752555925168657e+00
2.131752555925168657e+00
2.131752555925168657e+00
2.417511276589251690e+00
2.417511276589251690e+00
2.417511276589251690e+00
2.417511276589251690e+00
2.332758690145573244e+00
2.332758690145573244e+00
2.332758690145573244e+00
2.226255439924313961e+00
2.226255439924313961e+00
2.226255439924313961e+00
2.224005371257667729e+00
2.224005371257667729e+00
2.224005371257667729e+00
2.224005371257667729e+00
2.236568254646443155e+00
2.236568254646443155e+00
2.236568254646443155e+00
2.251943723868526259e+00
2.251943723868526259e+00
2.251943723868526259e+00
2.263569078646198829e+00
2.263569078646198829e+00
2.263569078646198829e+00
2.263569078646198829e+00
2.363697134311959935e+00
2.363697134311959935e+00
2.363697134311959935e+00
2.302570268868068482e+00
2.302570268868068482e+00
2.302570268868068482e+00
2.274819421979430434e+00
2.274819421979430434e+00
2.274819421979430434e+00
2.274819421979430434e+00
2.256631366924039650e+00
2.256631366924039650e+00
2.256631366924039650e+00
2.275381939146092325e+00
2.275381939146092325e+00
2.275381939146092325e+00
2.152003173924985191e+00
2.152003173924985191e+00
2.152003173924985191e+00
2.152003173924985191e+00
2.160815942869350526e+00
2.160815942869350526e+00
2.160815942869350526e+00
2.500388805810724424e+00
2.500388805810724424e+00
2.500388805810724424e+00
2.500388805810724424e+00
2.307445417645802355e+00
2.307445417645802355e+00
2.307445417645802355e+00
2.248756126590777171e+00
2.248756126590777171e+00
2.248756126590777171e+00
2.251568712424085295e+00
2.251568712424085295e+00
2.251568712424085295e+00
2.251568712424085295e+00
2.241630909146397510e+00
2.241630909146397510e+00
2.241630909146397510e+00
2.250068666646320992e+00
2.250068666646320992e+00
2.250068666646320992e+00
2.248943632312997654e+00
2.248943632312997654e+00
2.248943632312997654e+00
2.248943632312997654e+00
2.371384868923001932e+00
2.371384868923001932e+00
2.371384868923001932e+00
2.263756584368419311e+00
2.263756584368419311e+00
2.263756584368419311e+00
2.245006012146367080e+00
2.245006012146367080e+00
2.245006012146367080e+00
2.245006012146367080e+00
2.246131046479689974e+00
2.246131046479689974e+00
2.246131046479689974e+00
2.247818597979674760e+00
2.247818597979674760e+00
2.247818597979674760e+00
2.112439466536454535e+00
2.112439466536454535e+00
2.112439466536454535e+00
2.112439466536454535e+00
2.243693472090823260e+00
2.243693472090823260e+00
2.243693472090823260e+00
2.431199194311350009e+00
2.431199194311350009e+00
2.431199194311350009e+00
2.254193792535172935e+00
2.254193792535172935e+00
2.254193792535172935e+00
2.254193792535172935e+00
2.257193884090700653e+00
2.257193884090700653e+00
2.257193884090700653e+00
2.247818597979674760e+00
2.247818597979674760e+00
2.247818597979674760e+00
2.259443952757347329e+00
2.259443952757347329e+00
2.259443952757347329e+00
2.259443952757347329e+00
2.283632190923795324e+00
2.283632190923795324e+00
2.283632190923795324e+00
2.322258369701224012e+00
2.322258369701224012e+00
2.322258369701224012e+00
2.399698232978301426e+00
2.399698232978301426e+00
2.399698232978301426e+00
2.399698232978301426e+00
2.298257637256996500e+00
2.298257637256996500e+00
2.298257637256996500e+00
2.269194250312814631e+00
2.269194250312814631e+00
2.269194250312814631e+00
2.269194250312814631e+00
2.263944090090640238e+00
2.263944090090640238e+00
2.263944090090640238e+00
2.198317087313455875e+00
2.198317087313455875e+00
2.198317087313455875e+00
2.118439649647511303e+00
2.118439649647511303e+00
2.118439649647511303e+00
2.118439649647511303e+00
2.359009491256446989e+00
2.359009491256446989e+00
2.359009491256446989e+00
2.368009765923032361e+00
2.368009765923032361e+00
2.368009765923032361e+00
2.238255806146427940e+00
2.238255806146427940e+00
2.238255806146427940e+00
2.238255806146427940e+00
2.234318185979796478e+00
2.234318185979796478e+00
2.234318185979796478e+00
2.221567796868801015e+00
2.221567796868801015e+00
2.221567796868801015e+00
2.258318918424023991e+00
2.258318918424023991e+00
2.258318918424023991e+00
2.258318918424023991e+00
2.317195715201269657e+00
2.317195715201269657e+00
2.317195715201269657e+00
2.394448072756126589e+00
2.394448072756126589e+00
2.394448072756126589e+00
2.330508621478927012e+00
2.330508621478927012e+00
2.330508621478927012e+00
2.330508621478927012e+00
2.255506332590716312e+00
2.255506332590716312e+00
2.255506332590716312e+00
2.229818048646504014e+00
2.229818048646504014e+00
2.229818048646504014e+00
2.247443586535233351e+00
2.247443586535233351e+00
2.247443586535233351e+00
2.247443586535233351e+00
2.155378276924954761e+00
2.155378276924954761e+00
2.155378276924954761e+00
2.114314523758659803e+00
2.114314523758659803e+00
2.114314523758659803e+00
2.469262855922116806e+00
2.469262855922116806e+00
2.469262855922116806e+00
2.469262855922116806e+00
2.338008850367748082e+00
2.338008850367748082e+00
2.338008850367748082e+00
2.265069124423963132e+00
2.265069124423963132e+00
2.265069124423963132e+00
2.247443586535233351e+00
2.247443586535233351e+00
2.247443586535233351e+00
2.247443586535233351e+00
2.226630451368755370e+00
2.226630451368755370e+00
2.226630451368755370e+00
2.230943082979827352e+00
2.230943082979827352e+00
2.230943082979827352e+00
2.256068849757378203e+00
2.256068849757378203e+00
2.256068849757378203e+00
2.256068849757378203e+00
2.363697134311959935e+00
2.363697134311959935e+00
2.363697134311959935e+00
2.256631366924039650e+00
2.256631366924039650e+00
2.256631366924039650e+00
2.206379833368938392e+00
2.206379833368938392e+00
2.206379833368938392e+00
2.206379833368938392e+00
2.199442121646778769e+00
2.199442121646778769e+00
2.199442121646778769e+00
2.249318643757439062e+00
2.249318643757439062e+00
2.249318643757439062e+00
2.117689626758628929e+00
2.117689626758628929e+00
2.117689626758628929e+00
2.117689626758628929e+00
2.202254707480086449e+00
2.202254707480086449e+00
2.202254707480086449e+00
2.479013153477584552e+00
2.479013153477584552e+00
2.479013153477584552e+00
2.479013153477584552e+00
2.286444776757103448e+00
2.286444776757103448e+00
2.286444776757103448e+00
2.244068483535264225e+00
2.244068483535264225e+00
2.244068483535264225e+00
2.233005645924253102e+00
2.233005645924253102e+00
2.233005645924253102e+00
2.295632557145908859e+00
2.295632557145908859e+00
2.295632557145908859e+00
2.274631916257209951e+00
2.274631916257209951e+00
2.295632557145908859e+00
2.295632557145908859e+00
2.405885921811578676e+00
2.405885921811578676e+00
2.309132969145787140e+00
2.309132969145787140e+00
2.326758507034516477e+00
2.326758507034516477e+00
2.326758507034516477e+00
2.345884090701010116e+00
2.345884090701010116e+00
2.310633014923550999e+00
2.310633014923550999e+00
2.177128940702536042e+00
2.177128940702536042e+00
2.310633014923550999e+00
2.310633014923550999e+00
2.385072786645100695e+00
2.385072786645100695e+00
2.215755119479964730e+00
2.215755119479964730e+00
2.210692464980010374e+00
2.210692464980010374e+00
2.208442396313364142e+00
2.208442396313364142e+00
2.208442396313364142e+00
2.222130314035462462e+00
2.222130314035462462e+00
2.261319009979552597e+00
2.261319009979552597e+00
2.333508713034455617e+00
2.333508713034455617e+00
2.343446516312143402e+00
2.343446516312143402e+00
2.273131870479445649e+00
2.273131870479445649e+00
2.271444318979460864e+00
2.271444318979460864e+00
2.300882717368083696e+00
2.300882717368083696e+00
2.226630451368755370e+00
2.226630451368755370e+00
2.226630451368755370e+00
2.149378093813898438e+00
2.149378093813898438e+00
2.414698690755943566e+00
2.414698690755943566e+00
2.329008575701162709e+00
2.329008575701162709e+00
2.219880245368816230e+00
2.219880245368816230e+00
2.212192510757774677e+00
2.212192510757774677e+00
2.205629810480056463e+00
2.205629810480056463e+00
2.208817407757805107e+00
2.208817407757805107e+00
2.244443494979705633e+00
2.244443494979705633e+00
2.244443494979705633e+00
2.351134250923184954e+00
2.351134250923184954e+00
2.299382671590319838e+00
2.299382671590319838e+00
2.295632557145908859e+00
2.295632557145908859e+00
2.311570543534653854e+00
2.311570543534653854e+00
2.364072145756401344e+00
2.364072145756401344e+00
2.211254982146671821e+00
2.211254982146671821e+00
2.185191686758019003e+00
2.185191686758019003e+00
2.185191686758019003e+00
2.505451460310678335e+00
2.505451460310678335e+00
2.318695760979033516e+00
2.318695760979033516e+00
2.249318643757439062e+00
2.249318643757439062e+00
2.251381206701864812e+00
2.251381206701864812e+00
2.243505966368602778e+00
2.243505966368602778e+00
2.252506241035188150e+00
2.252506241035188150e+00
2.256443861201819168e+00
2.256443861201819168e+00
2.362384594256416559e+00
2.362384594256416559e+00
2.362384594256416559e+00
2.251193700979644330e+00
2.251193700979644330e+00
2.259068941312906365e+00
2.259068941312906365e+00
2.258318918424023991e+00
2.258318918424023991e+00
2.290944914090395912e+00
2.290944914090395912e+00
2.152378185369426600e+00
2.152378185369426600e+00
2.275194433423871843e+00
2.275194433423871843e+00
2.479200659199805035e+00
2.479200659199805035e+00
2.283257179479354360e+00
2.283257179479354360e+00
2.253818781090731527e+00
2.253818781090731527e+00
2.253818781090731527e+00
2.235443220313119816e+00
2.235443220313119816e+00
2.210879970702230857e+00
2.210879970702230857e+00
2.221567796868801015e+00
2.221567796868801015e+00
2.256256355479598685e+00
2.256256355479598685e+00
2.348509170812097757e+00
2.348509170812097757e+00
2.264506607257301685e+00
2.264506607257301685e+00
2.261319009979552597e+00
2.261319009979552597e+00
2.290757408368175430e+00
2.290757408368175430e+00
2.290757408368175430e+00
2.252506241035188150e+00
2.252506241035188150e+00
2.161003448591571008e+00
2.161003448591571008e+00
2.376260017700735361e+00
2.376260017700735361e+00
2.393135532700583212e+00
2.393135532700583212e+00
2.249693655201880027e+00
2.249693655201880027e+00
2.257193884090700653e+00
2.257193884090700653e+00
2.245193517868587563e+00
2.245193517868587563e+00
2.234880703146458369e+00
2.234880703146458369e+00
2.254943815424054865e+00
2.254943815424054865e+00
2.254943815424054865e+00
2.326758507034516477e+00
2.326758507034516477e+00
2.319633289590136371e+00
2.319633289590136371e+00
2.258318918424023991e+00
2.258318918424023991e+00
2.242943449201941331e+00
2.242943449201941331e+00
2.267319193090609808e+00
2.267319193090609808e+00
2.178441480758079862e+00
2.178441480758079862e+00
2.121814752647480873e+00
2.121814752647480873e+00
2.445637134922330258e+00
2.445637134922330258e+00
2.445637134922330258e+00
2.317570726645710621e+00
2.317570726645710621e+00
2.251756218146305777e+00
2.251756218146305777e+00
2.254943815424054865e+00
2.254943815424054865e+00
2.246506057924130939e+00
2.246506057924130939e+00
2.272569353312784202e+00
2.272569353312784202e+00
2.296007568590349823e+00
2.296007568590349823e+00
2.390510452589495571e+00
2.390510452589495571e+00
2.252693746757408633e+00
2.252693746757408633e+00
2.223067842646564873e+00
2.223067842646564873e+00
2.223067842646564873e+00
2.221755302591021497e+00
2.221755302591021497e+00
2.248568620868556689e+00
2.248568620868556689e+00
2.098189031647694325e+00
2.098189031647694325e+00
2.181254066591387542e+00
2.181254066591387542e+00
2.478263130588702179e+00
2.478263130588702179e+00
2.301820245979186552e+00
2.301820245979186552e+00
2.258131412701803509e+00
2.258131412701803509e+00
2.231318094424268317e+00
2.231318094424268317e+00
2.231318094424268317e+00
2.226630451368755370e+00
2.226630451368755370e+00
2.242568437757499922e+00
2.242568437757499922e+00
2.242380932035279439e+00
2.242380932035279439e+00
2.330133610034486047e+00
2.330133610034486047e+00
2.221192785424360050e+00
2.221192785424360050e+00
2.214255073702200427e+00
2.214255073702200427e+00
2.221192785424360050e+00
2.221192785424360050e+00
2.209192419202246516e+00
2.209192419202246516e+00
2.091438825647755628e+00
2.091438825647755628e+00
2.091438825647755628e+00
2.299382671590319838e+00
2.299382671590319838e+00
2.494951139866329104e+00
2.494951139866329104e+00
2.341008941923276243e+00
2.341008941923276243e+00
2.284944730979339145e+00
2.284944730979339145e+00
2.231505600146489243e+00
2.231505600146489243e+00
2.195879512924588717e+00
2.195879512924588717e+00
2.210692464980010374e+00
2.210692464980010374e+00
2.280444593646046680e+00
2.280444593646046680e+00
2.280444593646046680e+00
2.340821436201055761e+00
2.340821436201055761e+00
2.282132145146031021e+00
2.282132145146031021e+00
2.287194799645985377e+00
2.287194799645985377e+00
2.323008392590105942e+00
2.323008392590105942e+00
2.268444227423932702e+00
2.268444227423932702e+00
2.198504593035676358e+00
2.198504593035676358e+00
2.463450178533280521e+00
2.463450178533280521e+00
2.405135898922696747e+00
2.405135898922696747e+00
2.255318826868495830e+00
2.255318826868495830e+00
2.255318826868495830e+00
2.225880428479872997e+00
2.225880428479872997e+00
2.170566240424817828e+00
2.170566240424817828e+00
2.127814935758537640e+00
2.127814935758537640e+00
2.160253425702688634e+00
2.160253425702688634e+00
2.273694387646107540e+00
2.273694387646107540e+00
2.235818231757560781e+00
2.235818231757560781e+00
2.251756218146305777e+00
2.251756218146305777e+00
2.303507797479171337e+00
2.303507797479171337e+00
2.303507797479171337e+00
2.341571459089938134e+00
2.341571459089938134e+00
2.237130771813104602e+00
2.237130771813104602e+00
2.232255623035371173e+00
2.232255623035371173e+00
2.571078463087863142e+00
2.571078463087863142e+00
2.355821893978697901e+00
2.355821893978697901e+00
2.196629535813471090e+00
2.196629535813471090e+00
2.125002349925229961e+00
2.125002349925229961e+00
2.092376354258858040e+00
2.092376354258858040e+00
2.092376354258858040e+00
2.107564317758720662e+00
2.107564317758720662e+00
2.174691366313669327e+00
2.174691366313669327e+00
2.331821161534470832e+00
2.331821161534470832e+00
2.222317819757682944e+00
2.222317819757682944e+00
2.221380291146580532e+00
2.221380291146580532e+00
2.259631458479567812e+00
2.259631458479567812e+00
2.329758598590044638e+00
2.329758598590044638e+00
2.239943357646412725e+00
2.239943357646412725e+00
2.365572191534165203e+00
2.365572191534165203e+00
2.554015442365794808e+00
2.554015442365794808e+00
2.554015442365794808e+00
2.362947111423078006e+00
2.362947111423078006e+00
2.358634479812006024e+00
2.358634479812006024e+00
2.353759331034272151e+00
2.353759331034272151e+00
2.369509811700796664e+00
2.369509811700796664e+00
2.446387157811212187e+00
2.446387157811212187e+00
2.458012512588885201e+00
2.458012512588885201e+00
2.453137363811151772e+00
2.453137363811151772e+00
2.282882168034912951e+00
2.282882168034912951e+00
2.282882168034912951e+00
2.232818140202032620e+00
2.232818140202032620e+00
2.244818506424146598e+00
2.244818506424146598e+00
2.226255439924313961e+00
2.226255439924313961e+00
2.137940244758446351e+00
2.137940244758446351e+00
2.359759514145329362e+00
2.359759514145329362e+00
2.370822351756340485e+00
2.370822351756340485e+00
2.167003631702627775e+00
2.167003631702627775e+00
2.167003631702627775e+00
2.132315073091830104e+00
2.132315073091830104e+00
2.051687612537003602e+00
2.051687612537003602e+00
1.986060609759819240e+00
1.986060609759819240e+00
2.006873744926298109e+00
2.006873744926298109e+00
2.099314065981017663e+00
2.099314065981017663e+00
2.145440473647266977e+00
2.145440473647266977e+00
2.196817041535691573e+00
2.196817041535691573e+00
2.288882351145970162e+00
2.288882351145970162e+00
2.398385692922757606e+00
2.398385692922757606e+00
2.398385692922757606e+00
2.393323038422803695e+00
2.393323038422803695e+00
2.410573564867091623e+00
2.410573564867091623e+00
2.688832056642353585e+00
2.688832056642353585e+00
2.490638508255257122e+00
2.490638508255257122e+00
2.389197912533951751e+00
2.389197912533951751e+00
2.386760338145085036e+00
2.386760338145085036e+00
2.295445051423688376e+00
2.295445051423688376e+00
2.246881069368571904e+00
2.246881069368571904e+00
2.246881069368571904e+00
2.269381756035035114e+00
2.269381756035035114e+00
2.378322580645161111e+00
2.378322580645161111e+00
2.311570543534653854e+00
2.311570543534653854e+00
2.283632190923795324e+00
2.283632190923795324e+00
2.214442579424420909e+00
2.214442579424420909e+00
2.185191686758019003e+00
2.185191686758019003e+00
2.021311685537278358e+00
2.021311685537278358e+00
2.054687704092532208e+00
2.054687704092532208e+00
2.341946470534379099e+00
2.341946470534379099e+00
2.341946470534379099e+00
2.157065828424939546e+00
2.157065828424939546e+00
2.103251686147648680e+00
2.103251686147648680e+00
2.121814752647480873e+00
2.121814752647480873e+00
2.121814752647480873e+00
2.121814752647480873e+00
2.147690542313913653e+00
2.147690542313913653e+00
2.216317636646626177e+00
2.216317636646626177e+00
2.430074159978026671e+00
2.430074159978026671e+00
2.430074159978026671e+00
2.410948576311533031e+00
2.410948576311533031e+00
2.450512283700064131e+00
2.450512283700064131e+00
2.467762810144352947e+00
2.467762810144352947e+00
2.440574480422376347e+00
2.440574480422376347e+00
2.289632374034852091e+00
2.289632374034852091e+00
2.409261024811548246e+00
2.409261024811548246e+00
2.511639149143956029e+00
2.511639149143956029e+00
2.283257179479354360e+00
2.283257179479354360e+00
2.283257179479354360e+00
2.224380382702108694e+00
2.224380382702108694e+00
2.169441206091494490e+00
2.169441206091494490e+00
2.161190954313791490e+00
2.161190954313791490e+00
2.258693929868464956e+00
2.258693929868464956e+00
2.358634479812006024e+00
2.358634479812006024e+00
2.407760979033784388e+00
2.407760979033784388e+00
2.323195898312326424e+00
2.323195898312326424e+00
2.317383220923490139e+00
2.317383220923490139e+00
2.317383220923490139e+00
2.276694479201635701e+00
2.276694479201635701e+00
2.159690908536027187e+00
2.159690908536027187e+00
2.082438550981169811e+00
2.082438550981169811e+00
2.360509537034211291e+00
2.360509537034211291e+00
2.324883449812311209e+00
2.324883449812311209e+00
2.149753105258339403e+00
2.149753105258339403e+00
2.052062623981445011e+00
2.052062623981445011e+00
2.001623584704122827e+00
2.001623584704122827e+00
2.001623584704122827e+00
1.987560655537583543e+00
1.987560655537583543e+00
2.043062349314859638e+00
2.043062349314859638e+00
2.156128299813837135e+00
2.156128299813837135e+00
2.168878688924833043e+00
2.168878688924833043e+00
2.211629993591112786e+00
2.211629993591112786e+00
2.326383495590075512e+00
2.326383495590075512e+00
2.547265236365856111e+00
2.547265236365856111e+00
2.602391918698690798e+00
2.602391918698690798e+00
2.606704550309763224e+00
2.606704550309763224e+00
2.606704550309763224e+00
2.771709585863826764e+00
2.771709585863826764e+00
2.441699514755699685e+00
2.441699514755699685e+00
2.232068117313150690e+00
2.232068117313150690e+00
2.158753379924924776e+00
2.158753379924924776e+00
2.133440107425153442e+00
2.133440107425153442e+00
2.167941160313730187e+00
2.167941160313730187e+00
2.213505050813318054e+00
2.213505050813318054e+00
2.338008850367748082e+00
2.338008850367748082e+00
2.338008850367748082e+00
2.227942991424298746e+00
2.227942991424298746e+00
2.227005462813196335e+00
2.227005462813196335e+00
2.263944090090640238e+00
2.263944090090640238e+00
2.287569811090426342e+00
2.287569811090426342e+00
2.138502761925107798e+00
2.138502761925107798e+00
2.225692922757652514e+00
2.225692922757652514e+00
2.445637134922330258e+00
2.445637134922330258e+00
2.242755943479720404e+00
2.242755943479720404e+00
2.223442854091006282e+00
2.223442854091006282e+00
2.223442854091006282e+00
2.255318826868495830e+00
2.255318826868495830e+00
2.260381481368449741e+00
2.260381481368449741e+00
2.314570635090182460e+00
2.314570635090182460e+00
2.312695577867977192e+00
2.312695577867977192e+00
2.333133701590014208e+00
2.333133701590014208e+00
2.190254341257972914e+00
2.190254341257972914e+00
2.100626606036561483e+00
2.100626606036561483e+00
2.110189397869807859e+00
2.110189397869807859e+00
2.110189397869807859e+00
2.107376812036500180e+00
2.107376812036500180e+00
2.069125644703512901e+00
2.069125644703512901e+00
2.342133976256599581e+00
2.342133976256599581e+00
2.447512192144535526e+00
2.447512192144535526e+00
2.297132602923673161e+00
2.297132602923673161e+00
2.223817865535447247e+00
2.223817865535447247e+00
2.195504501480147752e+00
2.195504501480147752e+00
2.187629261146885273e+00
2.187629261146885273e+00
2.187629261146885273e+00
2.206754844813379357e+00
2.206754844813379357e+00
2.289819879757073018e+00
2.289819879757073018e+00
2.347759147923215384e+00
2.347759147923215384e+00
2.427449079866939474e+00
2.427449079866939474e+00
2.440574480422376347e+00
2.440574480422376347e+00
2.409636036255989211e+00
2.409636036255989211e+00
2.340258919034394314e+00
2.340258919034394314e+00
2.282132145146031021e+00
2.282132145146031021e+00
2.644768211920529577e+00
2.644768211920529577e+00
2.549140293588061379e+00
2.549140293588061379e+00
2.549140293588061379e+00
2.373447431867427682e+00
2.373447431867427682e+00
2.240880886257515137e+00
2.240880886257515137e+00
2.093501388592180934e+00
2.093501388592180934e+00
2.064625507370219992e+00
2.064625507370219992e+00
2.135315164647358710e+00
2.135315164647358710e+00
2.276694479201635701e+00
2.276694479201635701e+00
2.211067476424451339e+00
2.211067476424451339e+00
2.231880611590930208e+00
2.231880611590930208e+00
2.231880611590930208e+00
2.238255806146427940e+00
2.238255806146427940e+00
2.232443128757591655e+00
2.232443128757591655e+00
2.168503677480392078e+00
2.168503677480392078e+00
2.248943632312997654e+00
2.248943632312997654e+00
2.566765831476790716e+00
2.566765831476790716e+00
2.316070680867946319e+00
2.316070680867946319e+00
2.148628070925016065e+00
2.148628070925016065e+00
2.104939237647633021e+00
2.104939237647633021e+00
2.104939237647633021e+00
2.155190771202734279e+00
2.155190771202734279e+00
2.191191869869075770e+00
2.191191869869075770e+00
2.263194067201757864e+00
2.263194067201757864e+00
2.425949034089175171e+00
2.425949034089175171e+00
2.380947660756248752e+00
2.380947660756248752e+00
2.402510818811609106e+00
2.402510818811609106e+00
2.323008392590105942e+00
2.323008392590105942e+00
2.164941068758201581e+00
2.164941068758201581e+00
2.164941068758201581e+00
1.915745963927121709e+00
1.915745963927121709e+00
2.012311410870692985e+00
2.012311410870692985e+00
2.208629902035584625e+00
2.208629902035584625e+00
2.124439832758568070e+00
2.124439832758568070e+00
2.189129306924649576e+00
2.189129306924649576e+00
2.171503769035920239e+00
2.171503769035920239e+00
2.146753013702810797e+00
2.146753013702810797e+00
2.203567247535630269e+00
2.203567247535630269e+00
2.203567247535630269e+00
2.356009399700918827e+00
2.356009399700918827e+00
2.433074251533554833e+00
2.433074251533554833e+00
2.322258369701224012e+00
2.322258369701224012e+00
2.279694570757164307e+00
2.279694570757164307e+00
2.362197088534196077e+00
2.362197088534196077e+00
2.393885555589465142e+00
2.393885555589465142e+00
2.324133426923429280e+00
2.324133426923429280e+00
2.554577959532456255e+00
2.554577959532456255e+00
2.468700338755454915e+00
2.468700338755454915e+00
2.468700338755454915e+00
2.338571367534409973e+00
2.338571367534409973e+00
2.320008301034577336e+00
2.320008301034577336e+00
2.325258461256752618e+00
2.325258461256752618e+00
2.445824640644550740e+00
2.445824640644550740e+00
2.538452467421491221e+00
2.538452467421491221e+00
2.520826929532761884e+00
2.520826929532761884e+00
2.392760521256141804e+00
2.392760521256141804e+00
2.263944090090640238e+00
2.263944090090640238e+00
2.142440382091738371e+00
2.142440382091738371e+00
2.142440382091738371e+00
2.137190221869563977e+00
2.137190221869563977e+00
2.066875576036866669e+00
2.066875576036866669e+00
2.046249946592608282e+00
2.046249946592608282e+00
2.358821985534226506e+00
2.358821985534226506e+00
2.147315530869472244e+00
2.147315530869472244e+00
2.094251411481063307e+00
2.094251411481063307e+00
2.140565324869533104e+00
2.140565324869533104e+00
2.166441114535965884e+00
2.166441114535965884e+00
2.166441114535965884e+00
2.168691183202612560e+00
2.168691183202612560e+00
2.149753105258339403e+00
2.149753105258339403e+00
2.265069124423963132e+00
2.265069124423963132e+00
2.120689718314157535e+00
2.120689718314157535e+00
2.155190771202734279e+00
2.155190771202734279e+00
2.242193426313058957e+00
2.242193426313058957e+00
2.287382305368205859e+00
2.287382305368205859e+00
2.133065095980712478e+00
2.133065095980712478e+00
2.133065095980712478e+00
2.238068300424207457e+00
2.238068300424207457e+00
2.625642628254035937e+00
2.625642628254035937e+00
2.514451734977264152e+00
2.514451734977264152e+00
2.581203772087771409e+00
2.581203772087771409e+00
2.558515579699087716e+00
2.558515579699087716e+00
2.416198736533707869e+00
2.416198736533707869e+00
2.290944914090395912e+00
2.290944914090395912e+00
2.286444776757103448e+00
2.286444776757103448e+00
2.286444776757103448e+00
2.374947477645191540e+00
2.374947477645191540e+00
2.164378551591540134e+00
2.059000335703604190e+00
2.059000335703604190e+00
2.084126102481154597e+00
2.084126102481154597e+00
2.129314981536301499e+00
2.129314981536301499e+00
2.014936490981780626e+00
2.014936490981780626e+00
2.202254707480086449e+00
2.202254707480086449e+00
2.202254707480086449e+00
2.276506973479415219e+00
2.276506973479415219e+00
2.092751365703299449e+00
2.092751365703299449e+00
2.195316995757927270e+00
2.195316995757927270e+00
2.391260475478377501e+00
2.391260475478377501e+00
2.387885372478407930e+00
2.387885372478407930e+00
2.313258095034638639e+00
2.313258095034638639e+00
2.330696127201147494e+00
2.330696127201147494e+00
2.361634571367534630e+00
2.361634571367534630e+00
2.361634571367534630e+00
2.316633198034607766e+00
2.316633198034607766e+00
2.286069765312662039e+00
2.286069765312662039e+00
2.238818323313089387e+00
2.238818323313089387e+00
2.115064546647541732e+00
2.115064546647541732e+00
2.030124454481643248e+00
2.030124454481643248e+00
2.481825739310891787e+00
2.481825739310891787e+00
2.410948576311533031e+00
2.410948576311533031e+00
2.410948576311533031e+00
2.282132145146031021e+00
2.282132145146031021e+00
2.270881801812799416e+00
2.270881801812799416e+00
2.257568895535142062e+00
2.257568895535142062e+00
2.146940519425031280e+00
2.146940519425031280e+00
2.121814752647480873e+00
2.121814752647480873e+00
2.135877681814020157e+00
2.135877681814020157e+00
2.004998687704092397e+00
2.004998687704092397e+00
2.046062440870388244e+00
2.046062440870388244e+00
2.046062440870388244e+00
2.123127292703024249e+00
2.123127292703024249e+00
2.210129947813348927e+00
2.210129947813348927e+00
2.144502945036164565e+00
2.144502945036164565e+00
2.243505966368602778e+00
2.243505966368602778e+00
2.773022125919370584e+00
2.773022125919370584e+00
2.617767387920773903e+00
2.617767387920773903e+00
2.489888485366374749e+00
2.489888485366374749e+00
2.370822351756340485e+00
2.370822351756340485e+00
2.370822351756340485e+00
2.309507980590228104e+00
2.309507980590228104e+00
2.264694112979522167e+00
2.264694112979522167e+00
2.357884456923124095e+00
2.357884456923124095e+00
2.569953428754539804e+00
2.569953428754539804e+00
2.428574114200262368e+00
2.428574114200262368e+00
2.429136631366924259e+00
2.429136631366924259e+00
2.400635761589403838e+00
2.400635761589403838e+00
2.282319650868251504e+00
2.282319650868251504e+00
2.115627063814203623e+00
2.115627063814203623e+00
2.260193975646229259e+00
2.260193975646229259e+00
2.428761619922483295e+00
2.428761619922483295e+00
2.214255073702200427e+00
2.214255073702200427e+00
2.214255073702200427e+00
2.168691183202612560e+00
2.168691183202612560e+00
2.104751731925412539e+00
2.104751731925412539e+00
2.042874843592639156e+00
2.042874843592639156e+00
2.130065004425183872e+00
2.130065004425183872e+00
2.169441206091494490e+00
2.169441206091494490e+00
2.203942258980071234e+00
2.203942258980071234e+00
2.018874111148411643e+00
2.018874111148411643e+00
2.035187108981597159e+00
2.035187108981597159e+00
2.035187108981597159e+00
2.114127018036439321e+00
2.114127018036439321e+00
2.289819879757073018e+00
2.289819879757073018e+00
2.326758507034516477e+00
2.326758507034516477e+00
2.649268349253822485e+00
2.649268349253822485e+00
2.690144596697897406e+00
2.690144596697897406e+00
2.470387890255439700e+00
2.470387890255439700e+00
2.238255806146427940e+00
2.238255806146427940e+00
2.046624958037049247e+00
2.046624958037049247e+00
2.021874202703940249e+00
2.021874202703940249e+00
2.021874202703940249e+00
2.153503219702749494e+00
2.153503219702749494e+00
2.272569353312784202e+00
2.272569353312784202e+00
2.253256263924070080e+00
2.253256263924070080e+00
2.176003906369212704e+00
2.176003906369212704e+00
2.137002716147343495e+00
2.137002716147343495e+00
2.148628070925016065e+00
2.148628070925016065e+00
2.116939603869747000e+00
2.116939603869747000e+00
2.181816583758049433e+00
2.181816583758049433e+00
2.181816583758049433e+00
2.593391644032105425e+00
2.593391644032105425e+00
2.510889126255073656e+00
2.510889126255073656e+00
2.378135074922940628e+00
2.378135074922940628e+00
2.277819513534959039e+00
2.277819513534959039e+00
2.246318552201910457e+00
2.246318552201910457e+00
2.233193151646474028e+00
2.233193151646474028e+00
2.153128208258308529e+00
2.153128208258308529e+00
2.224005371257667729e+00
2.224005371257667729e+00
2.224005371257667729e+00
2.038562211981566730e+00
2.038562211981566730e+00
1.969372600482192537e+00
1.969372600482192537e+00
1.838118594927823590e+00
1.838118594927823590e+00
1.854994109927671220e+00
1.854994109927671220e+00
1.719239967040009809e+00
1.719239967040009809e+00
1.919496078371532466e+00
1.919496078371532466e+00
2.308382946256904766e+00
2.308382946256904766e+00
2.216692648091067142e+00
2.216692648091067142e+00
2.216692648091067142e+00
2.367072237311929506e+00
2.367072237311929506e+00
2.555515488143559111e+00
2.555515488143559111e+00
2.724083132419812703e+00
2.724083132419812703e+00
2.874837733085116476e+00
2.874837733085116476e+00
2.828148808252205271e+00
2.828148808252205271e+00
2.802085512863552008e+00
2.802085512863552008e+00
2.695394756920072243e+00
2.695394756920072243e+00
2.679831781975768212e+00
2.679831781975768212e+00
2.679831781975768212e+00
2.538264961699270739e+00
2.538264961699270739e+00
2.357509445478682686e+00
2.357509445478682686e+00
2.163253517258217240e+00
2.163253517258217240e+00
2.220255256813257638e+00
2.220255256813257638e+00
2.165316080202642990e+00
2.165316080202642990e+00
2.003498641926328094e+00
2.003498641926328094e+00
1.978372875148777910e+00
1.978372875148777910e+00
1.875619739371929162e+00
1.875619739371929162e+00
1.875619739371929162e+00
1.671426007873775488e+00
1.671426007873775488e+00
1.590611041596728503e+00
1.590611041596728503e+00
1.696364268929105634e+00
1.696364268929105634e+00
1.851994018372142614e+00
1.851994018372142614e+00
1.888932645649586517e+00
1.888932645649586517e+00
2.055625232703635064e+00
2.055625232703635064e+00
2.298445142979216982e+00
2.298445142979216982e+00
2.469075350199895880e+00
2.469075350199895880e+00
2.469075350199895880e+00
2.450512283700064131e+00
2.450512283700064131e+00
2.843711783196508414e+00
2.843711783196508414e+00
2.733645924253059523e+00
2.733645924253059523e+00
2.739271095919675325e+00
2.739271095919675325e+00
2.978903408917508600e+00
2.978903408917508600e+00
2.684519425031281603e+00
2.684519425031281603e+00
2.429886654255806189e+00
2.429886654255806189e+00
2.280819605090487201e+00
2.280819605090487201e+00
2.280819605090487201e+00
2.479950682088686964e+00
2.479950682088686964e+00
2.672519058809167625e+00
2.672519058809167625e+00
2.822711142307809506e+00
2.822711142307809506e+00
2.727270729697561347e+00
2.727270729697561347e+00
2.360884548478652700e+00
2.360884548478652700e+00
2.120877224036378017e+00
2.120877224036378017e+00
2.206379833368938392e+00
2.206379833368938392e+00
2.523264503921628599e+00
2.523264503921628599e+00
2.170191228980376863e+00
2.170191228980376863e+00
1.941434247871334007e+00
1.941434247871334007e+00
1.872994659260841743e+00
1.872994659260841743e+00
1.872994659260841743e+00
1.988498184148686176e+00
1.988498184148686176e+00
2.055812738425855546e+00
2.055812738425855546e+00
2.162315988647114828e+00
2.162315988647114828e+00
2.271069307535019899e+00
2.271069307535019899e+00
1.942934293649098310e+00
1.942934293649098310e+00
1.776241706595049985e+00
1.776241706595049985e+00
1.557610034485915618e+00
1.557610034485915618e+00
1.353791314432203130e+00
1.353791314432203130e+00
1.242412915433210197e+00
1.242412915433210197e+00
1.242412915433210197e+00
1.642737632374035028e+00
1.642737632374035028e+00
2.259631458479567812e+00
2.259631458479567812e+00
2.508826563310647906e+00
2.508826563310647906e+00
2.892275765251624886e+00
2.892275765251624886e+00
3.062530961027863707e+00
3.062530961027863707e+00
3.001966612750633256e+00
3.001966612750633256e+00
2.813710867641224578e+00
2.813710867641224578e+00
2.787647572252571315e+00
2.787647572252571315e+00
2.787647572252571315e+00
2.821211096530045204e+00
2.821211096530045204e+00
2.431574205755790974e+00
2.431574205755790974e+00
2.307257911923581428e+00
2.307257911923581428e+00
2.578391186254463285e+00
2.578391186254463285e+00
2.583266335032197158e+00
2.583266335032197158e+00
2.487263405255287552e+00
2.487263405255287552e+00
2.634455397198400828e+00
2.634455397198400828e+00
2.587391460921048658e+00
2.587391460921048658e+00
2.587391460921048658e+00
2.390510452589495571e+00
2.390510452589495571e+00
2.213130039368877089e+00
2.213130039368877089e+00
2.074188299203466812e+00
2.074188299203466812e+00
2.095376445814386202e+00
2.095376445814386202e+00
2.060875392925809457e+00
2.060875392925809457e+00
2.230380565813165905e+00
2.230380565813165905e+00
2.353384319589831186e+00
2.353384319589831186e+00
2.270131778923917043e+00
2.270131778923917043e+00
2.270131778923917043e+00
2.133065095980712478e+00
2.133065095980712478e+00
2.103251686147648680e+00
2.103251686147648680e+00
2.030124454481643248e+00
2.030124454481643248e+00
1.722427564317758675e+00
1.722427564317758675e+00
1.850493972594378533e+00
1.850493972594378533e+00
1.755616077150792043e+00
1.755616077150792043e+00
1.907120700704977745e+00
1.907120700704977745e+00
2.236568254646443155e+00
2.236568254646443155e+00
2.334446241645558029e+00
2.334446241645558029e+00
2.334446241645558029e+00
2.493263588366343875e+00
2.493263588366343875e+00
2.598266792809838854e+00
2.598266792809838854e+00
2.738896084475233916e+00
2.738896084475233916e+00
2.584766380809961461e+00
2.584766380809961461e+00
2.397823175756096159e+00
2.397823175756096159e+00
2.321320841090121156e+00
2.321320841090121156e+00
2.178441480758079862e+00
2.178441480758079862e+00
2.178441480758079862e+00
1.982873012482070374e+00
1.982873012482070374e+00
1.985498092593157793e+00
1.985498092593157793e+00
2.275381939146092325e+00
2.275381939146092325e+00
1.992623310037537676e+00
1.992623310037537676e+00
1.889307657094027704e+00
1.889307657094027704e+00
1.936934110538041542e+00
1.936934110538041542e+00
1.823118137150181672e+00
1.823118137150181672e+00
1.850681478316599016e+00
1.850681478316599016e+00
2.025624317148350340e+00
2.025624317148350340e+00
2.025624317148350340e+00
2.491763542588580016e+00
2.491763542588580016e+00
2.873525193029572655e+00
2.873525193029572655e+00
3.123282815027314196e+00
3.123282815027314196e+00
2.691457136753440782e+00
2.691457136753440782e+00
2.357321939756462204e+00
2.357321939756462204e+00
2.054125186925870761e+00
2.054125186925870761e+00
2.227755485702078264e+00
2.227755485702078264e+00
2.406448438978240567e+00
2.406448438978240567e+00
2.406448438978240567e+00
2.235068208868678852e+00
2.235068208868678852e+00
2.287569811090426342e+00
2.287569811090426342e+00
2.444887112033448329e+00
2.444887112033448329e+00
2.453887386700033701e+00
2.453887386700033701e+00
2.453699880977813219e+00
2.453699880977813219e+00
2.413386150700399746e+00
2.413386150700399746e+00
2.347009125034333454e+00
2.347009125034333454e+00
2.347009125034333454e+00
2.285132236701559627e+00
2.285132236701559627e+00
2.286819788201544412e+00
2.286819788201544412e+00
2.082626056703390294e+00
2.082626056703390294e+00
1.854244087038789068e+00
1.854244087038789068e+00
1.768553971984008211e+00
1.768553971984008211e+00
2.050000061037018817e+00
2.050000061037018817e+00
1.987373149815363060e+00
1.987373149815363060e+00
2.000123538926358524e+00
2.000123538926358524e+00
2.174503860591448845e+00
2.174503860591448845e+00
2.394073061311685624e+00
2.394073061311685624e+00
2.726895718253120382e+00
2.726895718253120382e+00
3.039655262916959089e+00
3.039655262916959089e+00
3.039655262916959089e+00
2.981528489028596240e+00
2.981528489028596240e+00
2.707395123142185778e+00
2.707395123142185778e+00
2.596391735587634031e+00
2.596391735587634031e+00
2.501513840144047762e+00
2.501513840144047762e+00
2.437011871700186294e+00
2.437011871700186294e+00
2.197004547257912055e+00
2.197004547257912055e+00
1.827243263039033172e+00
1.827243263039033172e+00
1.891182714316232749e+00
1.891182714316232749e+00
1.891182714316232749e+00
1.712489761040070890e+00
1.712489761040070890e+00
1.925871272927030420e+00
1.925871272927030420e+00
2.018499099703970678e+00
2.018499099703970678e+00
2.183504135258034218e+00
2.183504135258034218e+00
2.382447706534013054e+00
2.382447706534013054e+00
2.445824640644550740e+00
2.445824640644550740e+00
2.488950956755272337e+00
2.488950956755272337e+00
2.375134983367412023e+00
2.375134983367412023e+00
2.375134983367412023e+00
2.345321573534348669e+00
2.345321573534348669e+00
2.334633747367778511e+00
2.334633747367778511e+00
2.442262031922361132e+00
2.442262031922361132e+00
2.343071504867702437e+00
2.343071504867702437e+00
2.411886104922635443e+00
2.411886104922635443e+00
2.577828669087801838e+00
2.577828669087801838e+00
2.442449537644581614e+00
2.442449537644581614e+00
2.555515488143559111e+00
2.555515488143559111e+00
2.555515488143559111e+00
2.507514023255104085e+00
2.507514023255104085e+00
2.397073152867214230e+00
2.397073152867214230e+00
2.402885830256050514e+00
2.402885830256050514e+00
2.049437543870357370e+00
2.049437543870357370e+00
1.749240882595294089e+00
1.749240882595294089e+00
1.487107882930997604e+00
1.487107882930997604e+00
1.524984038819544141e+00
1.524984038819544141e+00
1.760491225928525694e+00
1.760491225928525694e+00
2.020561662648396428e+00
2.020561662648396428e+00
2.506201483199560265e+00
2.506201483199560265e+00
3.064406018250068975e+00
3.064406018250068975e+00
2.907088717307046544e+00
2.907088717307046544e+00
2.907088717307046544e+00
2.448637226477858864e+00
2.448637226477858864e+00
2.347009125034333454e+00
2.347009125034333454e+00
2.313445600756859122e+00
2.313445600756859122e+00
2.295257545701467894e+00
2.295257545701467894e+00
2.181066560869167059e+00
2.181066560869167059e+00
2.187066743980223826e+00
2.187066743980223826e+00
2.065938047425763813e+00
2.065938047425763813e+00
1.863431867427594923e+00
1.863431867427594923e+00
1.863431867427594923e+00
1.828368297372356288e+00
1.828368297372356288e+00
1.904308114871669622e+00
1.904308114871669622e+00
1.974810266426587635e+00
1.974810266426587635e+00
2.030499465926084213e+00
2.030499465926084213e+00
2.390885464033936536e+00
2.390885464033936536e+00
2.382447706534013054e+00
2.382447706534013054e+00
2.396885647144993747e+00
2.396885647144993747e+00
2.414323679311502602e+00
2.414323679311502602e+00
2.414323679311502602e+00
2.425761528366954689e+00
2.425761528366954689e+00
2.517639332255012796e+00
2.517639332255012796e+00
2.502076357310709209e+00
2.502076357310709209e+00
2.536014893032624506e+00
2.536014893032624506e+00
2.495513657032990551e+00
2.495513657032990551e+00
2.539765007477034597e+00
2.539765007477034597e+00
2.425761528366954689e+00
2.425761528366954689e+00
2.304070314645832784e+00
2.304070314645832784e+00
2.304070314645832784e+00
2.043999877925962494e+00
2.043999877925962494e+00
2.006686239204077182e+00
2.006686239204077182e+00
2.330696127201147494e+00
2.330696127201147494e+00
2.098376537369914807e+00
2.098376537369914807e+00
2.134190130314035372e+00
2.134190130314035372e+00
2.379260109256263966e+00
2.379260109256263966e+00
2.410948576311533031e+00
2.410948576311533031e+00
2.465137730033265306e+00
2.465137730033265306e+00
2.465137730033265306e+00
2.566953337199011198e+00
2.566953337199011198e+00
2.749771416364024557e+00
2.749771416364024557e+00
2.517076815088350905e+00
2.517076815088350905e+00
2.372697408978545752e+00
2.372697408978545752e+00
2.343821527756584366e+00
2.343821527756584366e+00
2.306320383312479017e+00
2.306320383312479017e+00
2.201129673146763555e+00
2.201129673146763555e+00
2.428574114200262368e+00
2.428574114200262368e+00
2.428574114200262368e+00
2.583266335032197158e+00
2.583266335032197158e+00
2.322633381145664977e+00
2.322633381145664977e+00
2.194191961424603932e+00
2.194191961424603932e+00
2.061625415814691387e+00
2.061625415814691387e+00
2.049625049592577852e+00
2.049625049592577852e+00
2.155753288369396170e+00
2.155753288369396170e+00
2.317570726645710621e+00
2.317570726645710621e+00
2.395198095645008962e+00
2.395198095645008962e+00
2.289444868312631609e+00
2.289444868312631609e+00
2.289444868312631609e+00
2.173003814813684542e+00
2.173003814813684542e+00
2.142065370647297406e+00
2.142065370647297406e+00
2.092188848536637558e+00
2.092188848536637558e+00
2.008186284981841485e+00
2.008186284981841485e+00
2.195504501480147752e+00
2.195504501480147752e+00
2.124627338480788552e+00
2.124627338480788552e+00
2.077375896481215900e+00
2.077375896481215900e+00
2.117689626758628929e+00
2.117689626758628929e+00
2.161378460036011973e+00
2.161378460036011973e+00
2.161378460036011973e+00
2.287007293923764895e+00
2.287007293923764895e+00
2.362384594256416559e+00
2.362384594256416559e+00
2.474325510422071162e+00
2.474325510422071162e+00
2.378135074922940628e+00
2.378135074922940628e+00
2.326383495590075512e+00
2.326383495590075512e+00
2.294320017090365038e+00
2.294320017090365038e+00
2.182379100924710880e+00
2.182379100924710880e+00
1.897182897427289516e+00
1.897182897427289516e+00
1.897182897427289516e+00
1.793492233039338357e+00
1.793492233039338357e+00
2.187816766869105756e+00
2.187816766869105756e+00
2.128564958647419569e+00
2.128564958647419569e+00
2.192691915646840073e+00
2.192691915646840073e+00
2.270506790368358452e+00
2.270506790368358452e+00
2.418636310922574584e+00
2.418636310922574584e+00
2.545952696310312291e+00
2.545952696310312291e+00
2.496826197088534371e+00
2.496826197088534371e+00
2.496826197088534371e+00
2.497951231421857266e+00
2.497951231421857266e+00
2.381697683645130681e+00
2.381697683645130681e+00
2.507889034699545494e+00
2.507889034699545494e+00
2.602579424420911280e+00
2.602579424420911280e+00
2.536389904477065471e+00
2.536389904477065471e+00
2.340258919034394314e+00
2.340258919034394314e+00
2.365759697256386129e+00
2.365759697256386129e+00
2.453137363811151772e+00
2.453137363811151772e+00
2.176941434980315559e+00
2.176941434980315559e+00
2.040437269203771997e+00
2.040437269203771997e+00
2.040437269203771997e+00
2.043437360759300603e+00
2.043437360759300603e+00
2.089563768425550361e+00
2.089563768425550361e+00
2.119939695425275605e+00
2.119939695425275605e+00
2.188941801202429094e+00
2.188941801202429094e+00
2.372697408978545752e+00
2.372697408978545752e+00
2.362197088534196077e+00
2.362197088534196077e+00
2.396885647144993747e+00
2.396885647144993747e+00
2.461575121311075254e+00
2.461575121311075254e+00
2.461575121311075254e+00
2.455949949644459451e+00
2.455949949644459451e+00
2.352634296700948813e+00
2.352634296700948813e+00
2.505826471755119300e+00
2.505826471755119300e+00
2.427636585589159957e+00
2.427636585589159957e+00
2.153690725424969976e+00
2.153690725424969976e+00
2.101001617481002448e+00
2.101001617481002448e+00
2.074375804925687294e+00
2.074375804925687294e+00
2.040437269203771997e+00
2.040437269203771997e+00
2.040437269203771997e+00
2.079063447981200685e+00
2.079063447981200685e+00
2.220255256813257638e+00
2.220255256813257638e+00
2.298445142979216982e+00
2.298445142979216982e+00
2.278382030701620931e+00
2.278382030701620931e+00
2.209754936368907963e+00
2.209754936368907963e+00
2.234318185979796478e+00
2.234318185979796478e+00
2.252881252479629115e+00
2.252881252479629115e+00
2.204692281868953607e+00
2.204692281868953607e+00
2.204692281868953607e+00
2.518764366588335690e+00
2.518764366588335690e+00
2.390510452589495571e+00
2.390510452589495571e+00
2.234505691702016961e+00
2.234505691702016961e+00
2.079250953703421168e+00
2.079250953703421168e+00
2.056750267036957958e+00
2.056750267036957958e+00
2.183129123813593253e+00
2.183129123813593253e+00
2.088813745536667987e+00
2.088813745536667987e+00
2.134565141758476781e+00
2.134565141758476781e+00
2.134565141758476781e+00
2.118439649647511303e+00
2.118439649647511303e+00
2.277819513534959039e+00
2.277819513534959039e+00
2.405135898922696747e+00
2.405135898922696747e+00
2.523076998199408116e+00
2.523076998199408116e+00
2.565078279976805931e+00
2.565078279976805931e+00
2.736458510086367646e+00
2.736458510086367646e+00
2.931089449751274056e+00
2.931089449751274056e+00
2.507889034699545494e+00
2.507889034699545494e+00
2.258506424146244473e+00
2.258506424146244473e+00
2.060125370036927084e+00
2.060125370036927084e+00
2.060125370036927084e+00
2.041374797814874853e+00
2.041374797814874853e+00
2.097251503036591469e+00
2.097251503036591469e+00
2.159690908536027187e+00
2.159690908536027187e+00
2.305945371868038052e+00
2.305945371868038052e+00
2.236005737479781263e+00
2.236005737479781263e+00
2.327696035645618888e+00
2.327696035645618888e+00
2.419948850978118404e+00
2.419948850978118404e+00
2.401948301644947659e+00
2.401948301644947659e+00
2.401948301644947659e+00
2.226630451368755370e+00
2.226630451368755370e+00
2.331446150090029423e+00
2.331446150090029423e+00
2.423323953978087530e+00
2.423323953978087530e+00
2.238068300424207457e+00
2.238068300424207457e+00
2.192129398480178182e+00
2.192129398480178182e+00
2.179003997924741309e+00
2.179003997924741309e+00
2.187066743980223826e+00
2.187066743980223826e+00
2.189129306924649576e+00
2.189129306924649576e+00
2.189129306924649576e+00
2.281944639423810539e+00
2.281944639423810539e+00
2.301445234534745587e+00
2.301445234534745587e+00
2.204504776146733125e+00
2.204504776146733125e+00
2.219130222479934300e+00
2.219130222479934300e+00
2.220442762535478121e+00
2.220442762535478121e+00
2.105314249092073986e+00
2.105314249092073986e+00
2.067063081759087151e+00
2.067063081759087151e+00
2.354884365367595489e+00
2.354884365367595489e+00
2.354884365367595489e+00
2.282132145146031021e+00
2.282132145146031021e+00
2.137752739036225869e+00
2.137752739036225869e+00
2.108314340647602592e+00
2.108314340647602592e+00
2.150690633869442259e+00
2.150690633869442259e+00
2.185004181035798521e+00
2.185004181035798521e+00
2.255506332590716312e+00
2.255506332590716312e+00
2.381697683645130681e+00
2.381697683645130681e+00
2.350759239478743989e+00
2.350759239478743989e+00
2.350759239478743989e+00
2.339508896145511940e+00
2.339508896145511940e+00
2.329571092867824156e+00
2.329571092867824156e+00
2.361822077089755112e+00
2.361822077089755112e+00
2.289069856868190644e+00
2.289069856868190644e+00
2.191004364146854844e+00
2.191004364146854844e+00
2.476013061922055947e+00
2.476013061922055947e+00
2.275569444868312807e+00
2.275569444868312807e+00
2.132690084536271069e+00
2.132690084536271069e+00
2.105126743369853504e+00
2.105126743369853504e+00
2.054875209814752690e+00
2.054875209814752690e+00
2.048875026703695923e+00
2.048875026703695923e+00
2.048875026703695923e+00
2.136627704702902530e+00
2.136627704702902530e+00
2.350759239478743989e+00
2.350759239478743989e+00
2.262069032868434526e+00
2.262069032868434526e+00
2.312133060701315301e+00
2.312133060701315301e+00
2.445262123477889293e+00
2.445262123477889293e+00
2.612892239143040030e+00
2.612892239143040030e+00
2.489888485366374749e+00
2.489888485366374749e+00
2.516139286477248493e+00
2.516139286477248493e+00
2.516139286477248493e+00
2.740021118808557254e+00
2.740021118808557254e+00
2.478825647755364070e+00
2.478825647755364070e+00
2.389760429700613198e+00
2.389760429700613198e+00
2.376260017700735361e+00
2.376260017700735361e+00
2.350759239478743989e+00
2.350759239478743989e+00
2.325633472701193583e+00
2.325633472701193583e+00
2.294507522812585520e+00
2.294507522812585520e+00
2.324883449812311209e+00
2.324883449812311209e+00
2.324883449812311209e+00
2.121814752647480873e+00
2.121814752647480873e+00
2.041937314981536300e+00
2.041937314981536300e+00
2.083938596758934114e+00
2.083938596758934114e+00
2.104751731925412539e+00
2.104751731925412539e+00
2.029936948759422766e+00
2.029936948759422766e+00
2.263756584368419311e+00
2.263756584368419311e+00
2.318133243812372069e+00
2.318133243812372069e+00
2.185941709646900932e+00
2.185941709646900932e+00
2.185941709646900932e+00
2.169628711813714972e+00
2.169628711813714972e+00
2.141502853480635959e+00
2.141502853480635959e+00
2.175253883480330774e+00
2.175253883480330774e+00
2.265444135868404540e+00
2.265444135868404540e+00
2.388635395367290304e+00
2.388635395367290304e+00
2.338946378978850937e+00
2.338946378978850937e+00
2.237130771813104602e+00
2.237130771813104602e+00
2.238255806146427940e+00
2.238255806146427940e+00
2.238255806146427940e+00
2.224567888424329176e+00
2.224567888424329176e+00
2.140940336313974068e+00
2.140940336313974068e+00
2.108501846369823074e+00
2.108501846369823074e+00
2.438511917477950597e+00
2.438511917477950597e+00
2.395573107089449927e+00
2.395573107089449927e+00
2.311008026367992407e+00
2.311008026367992407e+00
2.254756309701834383e+00
2.254756309701834383e+00
2.201692190313425002e+00
2.201692190313425002e+00
2.152003173924985191e+00
2.152003173924985191e+00
2.092751365703299449e+00
2.092751365703299449e+00
2.165691091647083955e+00
2.165691091647083955e+00
2.165691091647083955e+00
2.130065004425183872e+00
2.130065004425183872e+00
2.174128849147007880e+00
2.174128849147007880e+00
2.225880428479872997e+00
2.225880428479872997e+00
2.392385509811700839e+00
2.392385509811700839e+00
2.398573198644978088e+00
2.398573198644978088e+00
2.536577410199285953e+00
2.536577410199285953e+00
2.826273751029999559e+00
2.826273751029999559e+00
2.561703176976836804e+00
2.561703176976836804e+00
2.561703176976836804e+00
2.422573931089205601e+00
2.422573931089205601e+00
2.353009308145390222e+00
2.353009308145390222e+00
2.277444502090518075e+00
2.277444502090518075e+00
2.225317911313211550e+00
2.225317911313211550e+00
2.214442579424420909e+00
2.214442579424420909e+00
2.336508804589983779e+00
2.336508804589983779e+00
2.195879512924588717e+00
2.195879512924588717e+00
2.136065187536240639e+00
2.136065187536240639e+00
2.136065187536240639e+00
2.141127842036194995e+00
2.141127842036194995e+00
2.196254524369030126e+00
2.196254524369030126e+00
2.127439924314096675e+00
2.127439924314096675e+00
2.274069399090548504e+00
2.274069399090548504e+00
2.463637684255501004e+00
2.463637684255501004e+00
2.298445142979216982e+00
2.298445142979216982e+00
2.264881618701742649e+00
2.264881618701742649e+00
2.206754844813379357e+00
2.206754844813379357e+00
2.206754844813379357e+00
2.140565324869533104e+00
2.140565324869533104e+00
2.133252601702932960e+00
2.133252601702932960e+00
2.258693929868464956e+00
2.258693929868464956e+00
2.339321390423291458e+00
2.339321390423291458e+00
2.298070131534776017e+00
2.298070131534776017e+00
2.340071413312173831e+00
2.340071413312173831e+00
2.369322305978576182e+00
2.369322305978576182e+00
2.327508529923398850e+00
2.327508529923398850e+00
2.215380108035523765e+00
2.215380108035523765e+00
2.215380108035523765e+00
2.359009491256446989e+00
2.359009491256446989e+00
2.317195715201269657e+00
2.317195715201269657e+00
2.188566789757988129e+00
2.188566789757988129e+00
2.172628803369243577e+00
2.172628803369243577e+00
2.182754112369151844e+00
2.182754112369151844e+00
2.202067201757865966e+00
2.202067201757865966e+00
2.233005645924253102e+00
2.233005645924253102e+00
2.297695120090334608e+00
2.297695120090334608e+00
2.297695120090334608e+00
2.197942075869014911e+00
2.197942075869014911e+00
2.047937498092593067e+00
2.047937498092593067e+00
2.006686239204077182e+00
2.006686239204077182e+00
2.049812555314798335e+00
2.049812555314798335e+00
2.025249305703909375e+00
2.025249305703909375e+00
2.075688344981231115e+00
2.075688344981231115e+00
2.451074800866725578e+00
2.451074800866725578e+00
2.431949217200232383e+00
2.431949217200232383e+00
2.431949217200232383e+00
2.537327433088168327e+00
2.537327433088168327e+00
2.562078188421277325e+00
2.562078188421277325e+00
2.461012604144413807e+00
2.461012604144413807e+00
2.405510910367137711e+00
2.405510910367137711e+00
2.408511001922666317e+00
2.408511001922666317e+00
2.545952696310312291e+00
2.545952696310312291e+00
2.440199468977935382e+00
2.440199468977935382e+00
2.413948667867061193e+00
2.413948667867061193e+00
2.413948667867061193e+00
2.354321848200934042e+00
2.354321848200934042e+00
2.312320566423536228e+00
2.312320566423536228e+00
2.134190130314035372e+00
2.134190130314035372e+00
2.174503860591448845e+00
2.174503860591448845e+00
2.409261024811548246e+00
2.409261024811548246e+00
2.200004638813440216e+00
2.200004638813440216e+00
2.160440931424909561e+00
2.160440931424909561e+00
2.145252967925046494e+00
2.145252967925046494e+00
2.145252967925046494e+00
2.141502853480635959e+00
2.141502853480635959e+00
2.188379284035767647e+00
2.188379284035767647e+00
2.237880794701986531e+00
2.237880794701986531e+00
2.320945829645680192e+00
2.320945829645680192e+00
2.174316354869228363e+00
2.174316354869228363e+00
2.125377361369670925e+00
2.125377361369670925e+00
2.113939512314218838e+00
2.113939512314218838e+00
2.109814386425366894e+00
2.109814386425366894e+00
2.109814386425366894e+00
2.073813287759025847e+00
2.073813287759025847e+00
2.355259376812036454e+00
2.355259376812036454e+00
2.520076906643879511e+00
2.520076906643879511e+00
2.390697958311716054e+00
2.390697958311716054e+00
2.366322214423047576e+00
2.366322214423047576e+00
2.341758964812158617e+00
2.341758964812158617e+00
2.285507248146000592e+00
2.285507248146000592e+00
2.248568620868556689e+00
2.248568620868556689e+00
2.265819147312845505e+00
2.265819147312845505e+00
2.139440290536210654e+00
2.139440290536210654e+00
2.139440290536210654e+00
1.944809350871303355e+00
1.944809350871303355e+00
1.939746696371349222e+00
1.939746696371349222e+00
2.053000152592547423e+00
2.053000152592547423e+00
2.082813562425611220e+00
2.082813562425611220e+00
2.113189489425336465e+00
2.113189489425336465e+00
2.578203680532242803e+00
2.578203680532242803e+00
2.632392834253975078e+00
2.632392834253975078e+00
2.645143223364970542e+00
2.645143223364970542e+00
2.616079836420789118e+00
2.616079836420789118e+00
2.616079836420789118e+00
2.541640064699239865e+00
2.541640064699239865e+00
2.483325785088656090e+00
2.483325785088656090e+00
2.453324869533372254e+00
2.453324869533372254e+00
2.493826105533005766e+00
2.493826105533005766e+00
2.340446424756614796e+00
2.340446424756614796e+00
2.240880886257515137e+00
2.240880886257515137e+00
2.141690359202856442e+00
2.141690359202856442e+00
2.070625690481276759e+00
2.070625690481276759e+00
2.070625690481276759e+00
1.908620746482741826e+00
1.908620746482741826e+00
1.923433698538163483e+00
1.923433698538163483e+00
2.240505874813074172e+00
2.240505874813074172e+00
2.067813104647969080e+00
2.067813104647969080e+00
2.055062715536973172e+00
2.055062715536973172e+00
2.162691000091555793e+00
2.162691000091555793e+00
2.284194708090456771e+00
2.284194708090456771e+00
2.460450086977751916e+00
2.460450086977751916e+00
2.554577959532456255e+00
2.554577959532456255e+00
2.554577959532456255e+00
2.600141850032044566e+00
2.600141850032044566e+00
2.369509811700796664e+00
2.369509811700796664e+00
2.307070406201360946e+00
2.307070406201360946e+00
2.302382763145847999e+00
2.302382763145847999e+00
2.304257820368053267e+00
2.304257820368053267e+00
2.181629078035828950e+00
2.181629078035828950e+00
2.288132328257088233e+00
2.288132328257088233e+00
2.462887661366619074e+00
2.462887661366619074e+00
2.462887661366619074e+00
2.289819879757073018e+00
2.289819879757073018e+00
2.284194708090456771e+00
2.284194708090456771e+00
2.233755668813135031e+00
2.233755668813135031e+00
2.164191045869319652e+00
2.164191045869319652e+00
2.171503769035920239e+00
2.171503769035920239e+00
2.252131229590746742e+00
2.252131229590746742e+00
2.288507339701529197e+00
2.288507339701529197e+00
2.163066011535996758e+00
2.163066011535996758e+00
2.163066011535996758e+00
2.152190679647205673e+00
2.152190679647205673e+00
2.214442579424420909e+00
2.214442579424420909e+00
2.217067659535508550e+00
2.217067659535508550e+00
2.175816400646992221e+00
2.175816400646992221e+00
2.424261482589190386e+00
2.424261482589190386e+00
2.433824274422437206e+00
2.433824274422437206e+00
2.288132328257088233e+00
2.288132328257088233e+00
2.263944090090640238e+00
2.263944090090640238e+00
2.263944090090640238e+00
2.220255256813257638e+00
2.220255256813257638e+00
2.173191320535905025e+00
2.173191320535905025e+00
2.161565965758232455e+00
2.161565965758232455e+00
2.225505417035432032e+00
2.225505417035432032e+00
2.206942350535599839e+00
2.206942350535599839e+00
2.192691915646840073e+00
2.192691915646840073e+00
2.234880703146458369e+00
2.234880703146458369e+00
2.341758964812158617e+00
2.341758964812158617e+00
2.341758964812158617e+00
2.278569536423841413e+00
2.278569536423841413e+00
2.203942258980071234e+00
2.203942258980071234e+00
2.494201116977446731e+00
2.494201116977446731e+00
2.347196630756553937e+00
2.347196630756553937e+00
2.287569811090426342e+00
2.287569811090426342e+00
2.225317911313211550e+00
2.225317911313211550e+00
2.169441206091494490e+00
2.169441206091494490e+00
2.180316537980285130e+00
2.180316537980285130e+00
2.180316537980285130e+00
2.274444410534989469e+00
2.274444410534989469e+00
2.390885464033936536e+00
2.390885464033936536e+00
2.256068849757378203e+00
2.256068849757378203e+00
2.257381389812921579e+00
2.257381389812921579e+00
2.286257271034882521e+00
2.286257271034882521e+00
2.377197546311838217e+00
2.377197546311838217e+00
2.271444318979460864e+00
2.271444318979460864e+00
2.271444318979460864e+00
2.362384594256416559e+00
2.362384594256416559e+00
2.611954710531937618e+00
2.611954710531937618e+00
2.412261116367076408e+00
2.412261116367076408e+00
2.344196539201025331e+00
2.344196539201025331e+00
2.286069765312662039e+00
2.286069765312662039e+00
2.226442945646534444e+00
2.226442945646534444e+00
2.175253883480330774e+00
2.175253883480330774e+00
2.138127750480666833e+00
2.138127750480666833e+00
2.195129490035706787e+00
2.195129490035706787e+00
2.076063356425672080e+00
2.076063356425672080e+00
2.076063356425672080e+00
2.103251686147648680e+00
2.103251686147648680e+00
2.165691091647083955e+00
2.165691091647083955e+00
2.200192144535660699e+00
2.200192144535660699e+00
2.177878963591417971e+00
2.177878963591417971e+00
2.417886288033692654e+00
2.417886288033692654e+00
2.591704092532120640e+00
2.591704092532120640e+00
2.447324686422315043e+00
2.447324686422315043e+00
2.386385326700643628e+00
2.386385326700643628e+00
2.386385326700643628e+00
2.308945463423566213e+00
2.308945463423566213e+00
2.278569536423841413e+00
2.278569536423841413e+00
2.233755668813135031e+00
2.233755668813135031e+00
2.222130314035462462e+00
2.222130314035462462e+00
2.196442030091250608e+00
2.196442030091250608e+00
2.078875942258980203e+00
2.078875942258980203e+00
2.084688619647816488e+00
2.084688619647816488e+00
2.132690084536271069e+00
2.132690084536271069e+00
2.132690084536271069e+00
2.103814203314310571e+00
2.103814203314310571e+00
2.130065004425183872e+00
2.130065004425183872e+00
2.479950682088686964e+00
2.479950682088686964e+00
2.445074617755668811e+00
2.445074617755668811e+00
2.342883999145481511e+00
2.342883999145481511e+00
2.351696768089846401e+00
2.351696768089846401e+00
2.364822168645283273e+00
2.364822168645283273e+00
2.366134708700827094e+00
2.366134708700827094e+00
2.366134708700827094e+00
2.392385509811700839e+00
2.392385509811700839e+00
2.497576219977416301e+00
2.497576219977416301e+00
2.397260658589434712e+00
2.397260658589434712e+00
2.342321481978820064e+00
2.342321481978820064e+00
2.307820429090243319e+00
2.307820429090243319e+00
2.313070589312418157e+00
2.313070589312418157e+00
2.163816034424878687e+00
2.163816034424878687e+00
2.116752098147526517e+00
2.116752098147526517e+00
2.408135990478225352e+00
2.408135990478225352e+00
2.408135990478225352e+00
2.238068300424207457e+00
2.238068300424207457e+00
2.198504593035676358e+00
2.198504593035676358e+00
2.219130222479934300e+00
2.219130222479934300e+00
2.233568163090914993e+00
2.233568163090914993e+00
2.235255714590899334e+00
2.235255714590899334e+00
2.227192968535416817e+00
2.227192968535416817e+00
2.335571275978881367e+00
2.335571275978881367e+00
2.223255348368785356e+00
2.223255348368785356e+00
2.223255348368785356e+00
2.170566240424817828e+00
2.170566240424817828e+00
2.157065828424939546e+00
2.157065828424939546e+00
2.189316812646870059e+00
2.189316812646870059e+00
2.087501205481124167e+00
2.087501205481124167e+00
2.239193334757530351e+00
2.239193334757530351e+00
2.446574663533433114e+00
2.446574663533433114e+00
2.273131870479445649e+00
2.273131870479445649e+00
2.254381298257393418e+00
2.254381298257393418e+00
2.259256447035126847e+00
2.259256447035126847e+00
2.259256447035126847e+00
2.238630817590868904e+00
2.238630817590868904e+00
2.254943815424054865e+00
2.254943815424054865e+00
2.321695852534562121e+00
2.321695852534562121e+00
2.427261574144718992e+00
2.427261574144718992e+00
2.377947569200720146e+00
2.377947569200720146e+00
2.361259559923093665e+00
2.361259559923093665e+00
2.334071230201117064e+00
2.334071230201117064e+00
2.275381939146092325e+00
2.275381939146092325e+00
2.275381939146092325e+00
2.190816858424634361e+00
2.190816858424634361e+00
2.382072695089572090e+00
2.382072695089572090e+00
2.368759788811914291e+00
2.368759788811914291e+00
2.221005279702139568e+00
2.221005279702139568e+00
2.220255256813257638e+00
2.220255256813257638e+00
2.216880153813287624e+00
2.216880153813287624e+00
2.211067476424451339e+00
2.211067476424451339e+00
2.231505600146489243e+00
2.231505600146489243e+00
2.231505600146489243e+00
2.322070863979003530e+00
2.322070863979003530e+00
2.265631641590625023e+00
2.265631641590625023e+00
2.183129123813593253e+00
2.183129123813593253e+00
2.169816217535935454e+00
2.169816217535935454e+00
2.186879238258003344e+00
2.186879238258003344e+00
2.099501571703238145e+00
2.099501571703238145e+00
2.102689168980987233e+00
2.102689168980987233e+00
2.452012329477828434e+00
2.452012329477828434e+00
2.452012329477828434e+00
2.311195532090212890e+00
2.311195532090212890e+00
2.215005096591082356e+00
2.215005096591082356e+00
2.231130588702047834e+00
2.231130588702047834e+00
2.218567705313272853e+00
2.218567705313272853e+00
2.196629535813471090e+00
2.196629535813471090e+00
2.209192419202246516e+00
2.209192419202246516e+00
2.306320383312479017e+00
2.306320383312479017e+00
2.227755485702078264e+00
2.227755485702078264e+00
2.241068391979735619e+00
2.241068391979735619e+00
2.241068391979735619e+00
2.288507339701529197e+00
2.288507339701529197e+00
2.341946470534379099e+00
2.341946470534379099e+00
2.263756584368419311e+00
2.263756584368419311e+00
2.430824182866909045e+00
2.430824182866909045e+00
2.748271370586260698e+00
2.748271370586260698e+00
2.532077272865993045e+00
2.532077272865993045e+00
2.413386150700399746e+00
2.413386150700399746e+00
2.342696493423261028e+00
2.342696493423261028e+00
2.342696493423261028e+00
2.292819971312600735e+00
2.292819971312600735e+00
2.281569627979369130e+00
2.281569627979369130e+00
2.266569170201727434e+00
2.266569170201727434e+00
2.335383770256660885e+00
2.335383770256660885e+00
2.212755027924436124e+00
2.212755027924436124e+00
2.188004272591326682e+00
2.188004272591326682e+00
2.220255256813257638e+00
2.220255256813257638e+00
2.219130222479934300e+00
2.219130222479934300e+00
2.219130222479934300e+00
2.113564500869777874e+00
2.113564500869777874e+00
2.278382030701620931e+00
2.278382030701620931e+00
2.397448164311655194e+00
2.397448164311655194e+00
2.251381206701864812e+00
2.251381206701864812e+00
2.241255897701956545e+00
2.241255897701956545e+00
2.225505417035432032e+00
2.225505417035432032e+00
2.214442579424420909e+00
2.214442579424420909e+00
2.241630909146397510e+00
2.241630909146397510e+00
2.241630909146397510e+00
2.320195806756797818e+00
2.320195806756797818e+00
2.344196539201025331e+00
2.344196539201025331e+00
2.254006286812952009e+00
2.254006286812952009e+00
2.218192693868831444e+00
2.218192693868831444e+00
2.237693288979766049e+00
2.237693288979766049e+00
2.179191503646961792e+00
2.179191503646961792e+00
2.117314615314187964e+00
2.117314615314187964e+00
2.396135624256111374e+00
2.396135624256111374e+00
2.352071779534287366e+00
2.352071779534287366e+00
2.352071779534287366e+00
2.249693655201880027e+00
2.249693655201880027e+00
2.251943723868526259e+00
2.251943723868526259e+00
2.249318643757439062e+00
2.249318643757439062e+00
2.242193426313058957e+00
2.242193426313058957e+00
2.259443952757347329e+00
2.259443952757347329e+00
2.336883816034425188e+00
2.336883816034425188e+00
2.276319467757194737e+00
2.276319467757194737e+00
2.235630726035340299e+00
2.235630726035340299e+00
2.206567339091158875e+00
2.206567339091158875e+00
2.245193517868587563e+00
2.245193517868587563e+00
2.245193517868587563e+00
2.143565416425061709e+00
2.143565416425061709e+00
2.159315897091586223e+00
2.159315897091586223e+00
2.507889034699545494e+00
2.507889034699545494e+00
2.356384411145359792e+00
2.356384411145359792e+00
2.306695394756919981e+00
2.306695394756919981e+00
2.274444410534989469e+00
2.274444410534989469e+00
2.233005645924253102e+00
2.233005645924253102e+00
2.233005645924253102e+00
2.236755760368663637e+00
2.236755760368663637e+00
2.259443952757347329e+00
2.259443952757347329e+00
2.384322763756218322e+00
2.384322763756218322e+00
2.259443952757347329e+00
2.259443952757347329e+00
2.259256447035126847e+00
2.259256447035126847e+00
2.269194250312814631e+00
2.269194250312814631e+00
2.264506607257301685e+00
2.264506607257301685e+00
2.128002441480758122e+00
2.128002441480758122e+00
2.128002441480758122e+00
2.253631275368511044e+00
2.253631275368511044e+00
2.454074892422254184e+00
2.454074892422254184e+00
2.287757316812646824e+00
2.287757316812646824e+00
2.255131321146275347e+00
2.255131321146275347e+00
2.255506332590716312e+00
2.255506332590716312e+00
2.245756035035248566e+00
2.245756035035248566e+00
2.250256172368541474e+00
2.250256172368541474e+00
2.306507889034699499e+00
2.306507889034699499e+00
2.306507889034699499e+00
2.361634571367534630e+00
2.361634571367534630e+00
2.262819055757316900e+00
2.262819055757316900e+00
2.251568712424085295e+00
2.251568712424085295e+00
2.260006469924008776e+00
2.260006469924008776e+00
2.217067659535508550e+00
2.217067659535508550e+00
2.137002716147343495e+00
2.137002716147343495e+00
2.365572191534165203e+00
2.365572191534165203e+00
2.400823267311624321e+00
2.400823267311624321e+00
2.264131595812860720e+00
2.264131595812860720e+00
2.264131595812860720e+00
2.253631275368511044e+00
2.253631275368511044e+00
2.236380748924222672e+00
2.236380748924222672e+00
2.234130680257575996e+00
2.234130680257575996e+00
2.265069124423963132e+00
2.265069124423963132e+00
2.339321390423291458e+00
2.339321390423291458e+00
2.318695760979033516e+00
2.318695760979033516e+00
2.256256355479598685e+00
2.256256355479598685e+00
2.244631000701926116e+00
2.244631000701926116e+00
2.270881801812799416e+00
2.270881801812799416e+00
2.270881801812799416e+00
2.178066469313638454e+00
2.178066469313638454e+00
2.138877773369548763e+00
2.138877773369548763e+00
2.465137730033265306e+00
2.465137730033265306e+00
2.338196356089969008e+00
2.338196356089969008e+00
2.243130954924161813e+00
2.243130954924161813e+00
2.244068483535264225e+00
2.244068483535264225e+00
2.246318552201910457e+00
2.246318552201910457e+00
2.257006378368480615e+00
2.257006378368480615e+00
2.257006378368480615e+00
2.268069215979491737e+00
2.268069215979491737e+00
2.385822809533982625e+00
2.385822809533982625e+00
2.295445051423688376e+00
2.295445051423688376e+00
2.238255806146427940e+00
2.238255806146427940e+00
2.221005279702139568e+00
2.221005279702139568e+00
2.251006195257423848e+00
2.251006195257423848e+00
2.126127384258552855e+00
2.126127384258552855e+00
2.192504409924619146e+00
2.192504409924619146e+00
2.192504409924619146e+00
2.472262947477644968e+00
2.472262947477644968e+00
2.290382396923734465e+00
2.290382396923734465e+00
2.263194067201757864e+00
2.263194067201757864e+00
2.276506973479415219e+00
2.276506973479415219e+00
2.267131687368389326e+00
2.267131687368389326e+00
2.286632282479323930e+00
2.286632282479323930e+00
2.309882992034669069e+00
2.309882992034669069e+00
2.419573839533677440e+00
2.419573839533677440e+00
2.419573839533677440e+00
2.274444410534989469e+00
2.274444410534989469e+00
2.238255806146427940e+00
2.238255806146427940e+00
2.221380291146580532e+00
2.221380291146580532e+00
2.200379650257881181e+00
2.200379650257881181e+00
2.097814020203253360e+00
2.097814020203253360e+00
2.283444685201574842e+00
2.283444685201574842e+00
2.407573473311563461e+00
2.407573473311563461e+00
2.260943998535111632e+00
2.260943998535111632e+00
2.260193975646229259e+00
2.260193975646229259e+00
2.260193975646229259e+00
2.248943632312997654e+00
2.248943632312997654e+00
2.240505874813074172e+00
2.240505874813074172e+00
2.252506241035188150e+00
2.252506241035188150e+00
2.303320291756950855e+00
2.303320291756950855e+00
2.331258644367808941e+00
2.331258644367808941e+00
2.244818506424146598e+00
2.244818506424146598e+00
2.240880886257515137e+00
2.240880886257515137e+00
2.267881710257271255e+00
2.267881710257271255e+00
2.267881710257271255e+00
2.208817407757805107e+00
2.208817407757805107e+00
2.167753654591509704e+00
2.167753654591509704e+00
2.451074800866725578e+00
2.451074800866725578e+00
2.380385143589587305e+00
2.380385143589587305e+00
2.269756767479476078e+00
2.269756767479476078e+00
2.273319376201666131e+00
2.273319376201666131e+00
2.263006561479537382e+00
2.263006561479537382e+00
2.255881344035157721e+00
2.255881344035157721e+00
2.255881344035157721e+00
2.266381664479506952e+00
2.266381664479506952e+00
2.353384319589831186e+00
2.353384319589831186e+00
2.276881984923856628e+00
2.276881984923856628e+00
2.259443952757347329e+00
2.259443952757347329e+00
2.259068941312906365e+00
2.259068941312906365e+00
2.277819513534959039e+00
2.277819513534959039e+00
2.166816125980407293e+00
2.166816125980407293e+00
2.148065553758354618e+00
2.148065553758354618e+00
2.148065553758354618e+00
2.465325235755485789e+00
2.465325235755485789e+00
2.295632557145908859e+00
2.295632557145908859e+00
2.245943540757469048e+00
2.245943540757469048e+00
2.245381023590808045e+00
2.245381023590808045e+00
2.243880977813043742e+00
2.243880977813043742e+00
2.266944181646168399e+00
2.266944181646168399e+00
2.291507431257057803e+00
2.291507431257057803e+00
2.401385784478286212e+00
2.401385784478286212e+00
2.401385784478286212e+00
2.268819238868374111e+00
2.268819238868374111e+00
2.250256172368541474e+00
2.250256172368541474e+00
2.253631275368511044e+00
2.253631275368511044e+00
2.260943998535111632e+00
2.260943998535111632e+00
2.119939695425275605e+00
2.119939695425275605e+00
2.242755943479720404e+00
2.242755943479720404e+00
2.458387524033326166e+00
2.458387524033326166e+00
2.275194433423871843e+00
2.275194433423871843e+00
2.275194433423871843e+00
2.253068758201849597e+00
2.253068758201849597e+00
2.258881435590685438e+00
2.258881435590685438e+00
2.264694112979522167e+00
2.264694112979522167e+00
2.286257271034882521e+00
2.286257271034882521e+00
2.311758049256874337e+00
2.311758049256874337e+00
2.376260017700735361e+00
2.376260017700735361e+00
2.267881710257271255e+00
2.267881710257271255e+00
2.236943266090884119e+00
2.236943266090884119e+00
2.250443678090761956e+00
2.250443678090761956e+00
2.250443678090761956e+00
2.215192602313302839e+00
2.215192602313302839e+00
2.129877498702963390e+00
2.129877498702963390e+00
2.357321939756462204e+00
2.357321939756462204e+00
2.403635853144932444e+00
2.403635853144932444e+00
2.264319101535081202e+00
2.264319101535081202e+00
2.251006195257423848e+00
2.251006195257423848e+00
2.234130680257575996e+00
2.234130680257575996e+00
2.234880703146458369e+00
2.234880703146458369e+00
2.234880703146458369e+00
2.259818964201788294e+00
2.259818964201788294e+00
2.343259010589922919e+00
2.343259010589922919e+00
2.316633198034607766e+00
2.316633198034607766e+00
2.241630909146397510e+00
2.241630909146397510e+00
2.241818414868617992e+00
2.241818414868617992e+00
2.274069399090548504e+00
2.274069399090548504e+00
2.184629169591357556e+00
2.184629169591357556e+00
2.123314798425245176e+00
2.123314798425245176e+00
2.458200018311105683e+00
2.458200018311105683e+00
2.458200018311105683e+00
2.347946653645436310e+00
2.347946653645436310e+00
2.257381389812921579e+00
2.257381389812921579e+00
2.256068849757378203e+00
2.256068849757378203e+00
2.238068300424207457e+00
2.238068300424207457e+00
2.242568437757499922e+00
2.242568437757499922e+00
2.253068758201849597e+00
2.253068758201849597e+00
2.371009857478560967e+00
2.371009857478560967e+00
2.276694479201635701e+00
2.276694479201635701e+00
2.276694479201635701e+00
2.254568803979613900e+00
2.254568803979613900e+00
2.263194067201757864e+00
2.263194067201757864e+00
2.290194891201513983e+00
2.290194891201513983e+00
2.147878048036134135e+00
2.147878048036134135e+00
2.188004272591326682e+00
2.188004272591326682e+00
2.480325693533127485e+00
2.480325693533127485e+00
2.296570085757011714e+00
2.296570085757011714e+00
2.254943815424054865e+00
2.254943815424054865e+00
2.241443403424177028e+00
2.241443403424177028e+00
2.241443403424177028e+00
2.228880520035401602e+00
2.228880520035401602e+00
2.249693655201880027e+00
2.249693655201880027e+00
2.283444685201574842e+00
2.283444685201574842e+00
2.407948484756004870e+00
2.407948484756004870e+00
2.277256996368297592e+00
2.277256996368297592e+00
2.251381206701864812e+00
2.251381206701864812e+00
2.254006286812952009e+00
2.254006286812952009e+00
2.260381481368449741e+00
2.260381481368449741e+00
2.140565324869533104e+00
2.140565324869533104e+00
2.140565324869533104e+00
2.301632740256966070e+00
2.301632740256966070e+00
2.439636951811273491e+00
2.439636951811273491e+00
2.284569719534897736e+00
2.284569719534897736e+00
2.255131321146275347e+00
2.255131321146275347e+00
2.246318552201910457e+00
2.246318552201910457e+00
2.226255439924313961e+00
2.226255439924313961e+00
2.243693472090823260e+00
2.243693472090823260e+00
2.312320566423536228e+00
2.312320566423536228e+00
2.312320566423536228e+00
2.336696310312204705e+00
2.336696310312204705e+00
2.244255989257484707e+00
2.244255989257484707e+00
2.238068300424207457e+00
2.238068300424207457e+00
2.263194067201757864e+00
2.263194067201757864e+00
2.206567339091158875e+00
2.206567339091158875e+00
2.135690176091799675e+00
2.135690176091799675e+00
2.410948576311533031e+00
2.410948576311533031e+00
2.371947386089663379e+00
2.371947386089663379e+00
2.371947386089663379e+00
2.259068941312906365e+00
2.259068941312906365e+00
2.254943815424054865e+00
2.254943815424054865e+00
2.244068483535264225e+00
2.244068483535264225e+00
2.264131595812860720e+00
2.264131595812860720e+00
2.289819879757073018e+00
2.289819879757073018e+00
2.378322580645161111e+00
2.378322580645161111e+00
2.317758232367931104e+00
2.317758232367931104e+00
2.257381389812921579e+00
2.257381389812921579e+00
2.257381389812921579e+00
2.237130771813104602e+00
2.237130771813104602e+00
2.260381481368449741e+00
2.260381481368449741e+00
2.152378185369426600e+00
2.152378185369426600e+00
2.144690450758385047e+00
2.144690450758385047e+00
2.472450453199865894e+00
2.472450453199865894e+00
2.295445051423688376e+00
2.295445051423688376e+00
2.234693197424237443e+00
2.234693197424237443e+00
2.251943723868526259e+00
2.251943723868526259e+00
2.251943723868526259e+00
2.256818872646260132e+00
2.256818872646260132e+00
2.260006469924008776e+00
2.260006469924008776e+00
2.278194524979400004e+00
2.278194524979400004e+00
2.394260567033906106e+00
2.394260567033906106e+00
2.272194341868343237e+00
2.272194341868343237e+00
2.255693838312936794e+00
2.255693838312936794e+00
2.263381572923978347e+00
2.263381572923978347e+00
2.280257087923826198e+00
2.280257087923826198e+00
2.142627887813959298e+00
2.142627887813959298e+00
2.142627887813959298e+00
2.239568346201971760e+00
2.239568346201971760e+00
2.459700064088869986e+00
2.459700064088869986e+00
2.283819696646015807e+00
2.283819696646015807e+00
2.263381572923978347e+00
2.263381572923978347e+00
2.246506057924130939e+00
2.246506057924130939e+00
2.237880794701986531e+00
2.237880794701986531e+00
2.262256538590655452e+00
2.262256538590655452e+00
2.295820062868129341e+00
2.295820062868129341e+00
2.295820062868129341e+00
2.363134617145298488e+00
2.363134617145298488e+00
2.251381206701864812e+00
2.251381206701864812e+00
2.227380474257637299e+00
2.227380474257637299e+00
2.244631000701926116e+00
2.244631000701926116e+00
2.219130222479934300e+00
2.219130222479934300e+00
2.132690084536271069e+00
2.132690084536271069e+00
2.355071871089815971e+00
2.355071871089815971e+00
2.419761345255897922e+00
2.419761345255897922e+00
2.297507614368114126e+00
2.297507614368114126e+00
2.297507614368114126e+00
2.274819421979430434e+00
2.274819421979430434e+00
2.248006103701895242e+00
2.248006103701895242e+00
2.230943082979827352e+00
2.230943082979827352e+00
2.257193884090700653e+00
2.257193884090700653e+00
2.330133610034486047e+00
2.330133610034486047e+00
2.317570726645710621e+00
2.317570726645710621e+00
2.242755943479720404e+00
2.242755943479720404e+00
2.229630542924283532e+00
2.229630542924283532e+00
2.265819147312845505e+00
2.265819147312845505e+00
2.188941801202429094e+00
2.188941801202429094e+00
2.188941801202429094e+00
2.125564867091891408e+00
2.125564867091891408e+00
2.452387340922269399e+00
2.452387340922269399e+00
2.350009216589862060e+00
2.350009216589862060e+00
2.262631550035096417e+00
2.262631550035096417e+00
2.266194158757286470e+00
2.266194158757286470e+00
2.267881710257271255e+00
2.267881710257271255e+00
2.271069307535019899e+00
2.271069307535019899e+00
2.277819513534959039e+00
2.277819513534959039e+00
2.277819513534959039e+00
2.381135166478469234e+00
2.381135166478469234e+00
2.284194708090456771e+00
2.284194708090456771e+00
2.247068575090792386e+00
2.247068575090792386e+00
2.242755943479720404e+00
2.242755943479720404e+00
2.273506881923887057e+00
2.273506881923887057e+00
2.144502945036164565e+00
2.144502945036164565e+00
2.181066560869167059e+00
2.181066560869167059e+00
2.501888851588488727e+00
2.501888851588488727e+00
2.501888851588488727e+00
2.310820520645771925e+00
2.310820520645771925e+00
2.258881435590685438e+00
2.258881435590685438e+00
2.263944090090640238e+00
2.263944090090640238e+00
2.226817957090975852e+00
2.226817957090975852e+00
2.238818323313089387e+00
2.238818323313089387e+00
2.260381481368449741e+00
2.260381481368449741e+00
2.372322397534104788e+00
2.372322397534104788e+00
2.248006103701895242e+00
2.248006103701895242e+00
2.248006103701895242e+00
2.237318277535325084e+00
2.237318277535325084e+00
2.244443494979705633e+00
2.244443494979705633e+00
2.242943449201941331e+00
2.242943449201941331e+00
2.124252327036347587e+00
2.124252327036347587e+00
2.283069673757133433e+00
2.283069673757133433e+00
2.443199560533463544e+00
2.443199560533463544e+00
2.263756584368419311e+00
2.263756584368419311e+00
2.270694296090578934e+00
2.270694296090578934e+00
2.270694296090578934e+00
2.265069124423963132e+00
2.265069124423963132e+00
2.241255897701956545e+00
2.241255897701956545e+00
2.266569170201727434e+00
2.266569170201727434e+00
2.314195623645741495e+00
2.314195623645741495e+00
2.347384136478774419e+00
2.347384136478774419e+00
2.253631275368511044e+00
2.253631275368511044e+00
2.237505783257545566e+00
2.237505783257545566e+00
2.242380932035279439e+00
2.242380932035279439e+00
2.242380932035279439e+00
2.205254799035615054e+00
2.205254799035615054e+00
2.145627979369487459e+00
2.145627979369487459e+00
2.411698599200414961e+00
2.411698599200414961e+00
2.387510361033966966e+00
2.387510361033966966e+00
2.277256996368297592e+00
2.277256996368297592e+00
2.275756950590533290e+00
2.275756950590533290e+00
2.259443952757347329e+00
2.259443952757347329e+00
2.257756401257362544e+00
2.257756401257362544e+00
2.281007110812707683e+00
2.281007110812707683e+00
2.382447706534013054e+00
2.382447706534013054e+00
2.382447706534013054e+00
2.338383861812189490e+00
2.338383861812189490e+00
2.276881984923856628e+00
2.276881984923856628e+00
2.257381389812921579e+00
2.257381389812921579e+00
2.281757133701590057e+00
2.281757133701590057e+00
2.182004089480269915e+00
2.182004089480269915e+00
2.153690725424969976e+00
2.153690725424969976e+00
2.477700613422040732e+00
2.477700613422040732e+00
2.315133152256843907e+00
2.315133152256843907e+00
2.315133152256843907e+00
2.248381115146336207e+00
2.248381115146336207e+00
2.247256080813012868e+00
2.247256080813012868e+00
2.229818048646504014e+00
2.229818048646504014e+00
2.235443220313119816e+00
2.235443220313119816e+00
2.248193609424115724e+00
2.248193609424115724e+00
2.369322305978576182e+00
2.369322305978576182e+00
2.255131321146275347e+00
2.255131321146275347e+00
2.232068117313150690e+00
2.232068117313150690e+00
2.232068117313150690e+00
2.237880794701986531e+00
2.237880794701986531e+00
2.268069215979491737e+00
2.268069215979491737e+00
2.124627338480788552e+00
2.124627338480788552e+00
2.233193151646474028e+00
2.233193151646474028e+00
2.473387981810968306e+00
2.473387981810968306e+00
2.273694387646107540e+00
2.273694387646107540e+00
2.246506057924130939e+00
2.246506057924130939e+00
2.241443403424177028e+00
2.241443403424177028e+00
2.234693197424237443e+00
2.234693197424237443e+00
2.234693197424237443e+00
2.262069032868434526e+00
2.262069032868434526e+00
2.287757316812646824e+00
2.287757316812646824e+00
2.364259651478621826e+00
2.364259651478621826e+00
2.248193609424115724e+00
2.248193609424115724e+00
2.229068025757622085e+00
2.229068025757622085e+00
2.250818689535202921e+00
2.250818689535202921e+00
2.241068391979735619e+00
2.241068391979735619e+00
2.135127658925138228e+00
2.135127658925138228e+00
2.135127658925138228e+00
2.331821161534470832e+00
2.331821161534470832e+00
2.456137455366679934e+00
2.456137455366679934e+00
2.300132694479201767e+00
2.300132694479201767e+00
2.245193517868587563e+00
2.245193517868587563e+00
2.251193700979644330e+00
2.251193700979644330e+00
2.248381115146336207e+00
2.248381115146336207e+00
2.264319101535081202e+00
2.264319101535081202e+00
2.329946104312265120e+00
2.329946104312265120e+00
2.329946104312265120e+00
2.328446058534500818e+00
2.328446058534500818e+00
2.256631366924039650e+00
2.256631366924039650e+00
2.241068391979735619e+00
2.241068391979735619e+00
2.268444227423932702e+00
2.268444227423932702e+00
2.195316995757927270e+00
2.195316995757927270e+00
2.140190313425092139e+00
2.140190313425092139e+00
2.458762535477767130e+00
2.458762535477767130e+00
2.356384411145359792e+00
2.356384411145359792e+00
2.356384411145359792e+00
2.269381756035035114e+00
2.269381756035035114e+00
2.261319009979552597e+00
2.261319009979552597e+00
2.234505691702016961e+00
2.234505691702016961e+00
2.241255897701956545e+00
2.241255897701956545e+00
2.265256630146183614e+00
2.265256630146183614e+00
2.354321848200934042e+00
2.354321848200934042e+00
2.274819421979430434e+00
2.274819421979430434e+00
2.241443403424177028e+00
2.241443403424177028e+00
2.241443403424177028e+00
2.237880794701986531e+00
2.237880794701986531e+00
2.270881801812799416e+00
2.270881801812799416e+00
2.141315347758415477e+00
2.141315347758415477e+00
2.174316354869228363e+00
2.174316354869228363e+00
2.503951414532914033e+00
2.503951414532914033e+00
2.303132786034730373e+00
2.303132786034730373e+00
2.263381572923978347e+00
2.263381572923978347e+00
2.265631641590625023e+00
2.265631641590625023e+00
2.265631641590625023e+00
2.243693472090823260e+00
2.243693472090823260e+00
2.254006286812952009e+00
2.254006286812952009e+00
2.272006836146122755e+00
2.272006836146122755e+00
2.397448164311655194e+00
2.397448164311655194e+00
2.276881984923856628e+00
2.276881984923856628e+00
2.254381298257393418e+00
2.254381298257393418e+00
2.261319009979552597e+00
2.261319009979552597e+00
2.261881527146214044e+00
2.261881527146214044e+00
2.261881527146214044e+00
2.132502578814050587e+00
2.132502578814050587e+00
2.287382305368205859e+00
2.287382305368205859e+00
2.460637592699972398e+00
2.460637592699972398e+00
2.256256355479598685e+00
2.256256355479598685e+00
2.234130680257575996e+00
2.234130680257575996e+00
2.220630268257698603e+00
2.220630268257698603e+00
2.225692922757652514e+00
2.225692922757652514e+00
2.255131321146275347e+00
2.255131321146275347e+00
2.312883083590197675e+00
2.312883083590197675e+00
2.312883083590197675e+00
2.350196722312082542e+00
2.350196722312082542e+00
2.255131321146275347e+00
2.255131321146275347e+00
2.245006012146367080e+00
2.245006012146367080e+00
2.266756675923947917e+00
2.266756675923947917e+00
2.212567522202215642e+00
2.212567522202215642e+00
2.143190404980620745e+00
2.143190404980620745e+00
2.407573473311563461e+00
2.407573473311563461e+00
2.405135898922696747e+00
2.405135898922696747e+00
2.405135898922696747e+00
2.272006836146122755e+00
2.272006836146122755e+00
2.254381298257393418e+00
2.254381298257393418e+00
2.237693288979766049e+00
2.237693288979766049e+00
2.236380748924222672e+00
2.236380748924222672e+00
2.255318826868495830e+00
2.255318826868495830e+00
2.324508438367870244e+00
2.324508438367870244e+00
2.292632465590380253e+00
2.292632465590380253e+00
2.263381572923978347e+00
2.263381572923978347e+00
2.263381572923978347e+00
2.248381115146336207e+00
2.248381115146336207e+00
2.278382030701620931e+00
2.278382030701620931e+00
2.175253883480330774e+00
2.175253883480330774e+00
2.152565691091647082e+00
2.152565691091647082e+00
2.500201300088503942e+00
2.500201300088503942e+00
2.338383861812189490e+00
2.338383861812189490e+00
2.264881618701742649e+00
2.264881618701742649e+00
2.256631366924039650e+00
2.256631366924039650e+00
2.238443311868648422e+00
2.238443311868648422e+00
2.238443311868648422e+00
2.244631000701926116e+00
2.244631000701926116e+00
2.255881344035157721e+00
2.255881344035157721e+00
2.374572466200750576e+00
2.374572466200750576e+00
2.267694204535050773e+00
2.267694204535050773e+00
2.255693838312936794e+00
2.255693838312936794e+00
2.254193792535172935e+00
2.254193792535172935e+00
2.264506607257301685e+00
2.264506607257301685e+00
2.264506607257301685e+00
2.138502761925107798e+00
2.138502761925107798e+00
2.240505874813074172e+00
2.240505874813074172e+00
2.499263771477401086e+00
2.499263771477401086e+00
2.288319833979308715e+00
2.288319833979308715e+00
2.256256355479598685e+00
2.256256355479598685e+00
2.239943357646412725e+00
2.239943357646412725e+00
2.226442945646534444e+00
2.226442945646534444e+00
2.230755577257606870e+00
2.230755577257606870e+00
2.268819238868374111e+00
2.268819238868374111e+00
2.268819238868374111e+00
2.373072420422986717e+00
2.373072420422986717e+00
2.268631733146153184e+00
2.268631733146153184e+00
2.257193884090700653e+00
2.257193884090700653e+00
2.266569170201727434e+00
2.266569170201727434e+00
2.236005737479781263e+00
2.236005737479781263e+00
2.143752922147282192e+00
