2.183691640980254700e+00
2.531514755699331598e+00
2.531514755699331598e+00
2.531514755699331598e+00
2.304445326090273749e+00
2.304445326090273749e+00
2.304445326090273749e+00
2.304445326090273749e+00
2.251193700979644330e+00
2.251193700979644330e+00
2.251193700979644330e+00
2.237880794701986531e+00
2.237880794701986531e+00
2.237880794701986531e+00
2.226442945646534444e+00
2.226442945646534444e+00
2.226442945646534444e+00
2.226442945646534444e+00
2.257006378368480615e+00
2.257006378368480615e+00
2.257006378368480615e+00
2.286257271034882521e+00
2.286257271034882521e+00
2.286257271034882521e+00
2.286257271034882521e+00
2.410761070589312105e+00
2.410761070589312105e+00
2.410761070589312105e+00
2.267319193090609808e+00
2.267319193090609808e+00
2.267319193090609808e+00
2.245381023590808045e+00
2.245381023590808045e+00
2.245381023590808045e+00
2.245381023590808045e+00
2.257006378368480615e+00
2.257006378368480615e+00
2.257006378368480615e+00
2.234693197424237443e+00
2.234693197424237443e+00
2.234693197424237443e+00
2.116189580980865070e+00
2.116189580980865070e+00
2.116189580980865070e+00
2.116189580980865070e+00
2.337821344645527599e+00
2.337821344645527599e+00
2.337821344645527599e+00
2.451637318033387469e+00
2.451637318033387469e+00
2.451637318033387469e+00
2.258506424146244473e+00
2.258506424146244473e+00
2.258506424146244473e+00
2.258506424146244473e+00
2.244443494979705633e+00
2.244443494979705633e+00
2.244443494979705633e+00
2.217442670979949515e+00
2.217442670979949515e+00
2.217442670979949515e+00
2.217442670979949515e+00
2.216130130924405695e+00
2.216130130924405695e+00
2.216130130924405695e+00
2.254568803979613900e+00
2.254568803979613900e+00
2.254568803979613900e+00
2.353196813867610704e+00
2.353196813867610704e+00
2.353196813867610704e+00
2.353196813867610704e+00
2.379260109256263966e+00
2.379260109256263966e+00
2.379260109256263966e+00
2.284569719534897736e+00
2.284569719534897736e+00
2.284569719534897736e+00
2.284569719534897736e+00
2.256256355479598685e+00
2.256256355479598685e+00
2.256256355479598685e+00
2.271069307535019899e+00
2.271069307535019899e+00
2.271069307535019899e+00
2.186504226813562823e+00
2.186504226813562823e+00
2.186504226813562823e+00
2.186504226813562823e+00
2.103251686147648680e+00
2.103251686147648680e+00
2.465325235755485789e+00
2.465325235755485789e+00
2.465325235755485789e+00
2.381885189367351607e+00
2.381885189367351607e+00
2.381885189367351607e+00
2.381885189367351607e+00
2.250068666646320992e+00
2.250068666646320992e+00
2.250068666646320992e+00
2.238443311868648422e+00
2.238443311868648422e+00
2.238443311868648422e+00
2.220067751091036712e+00
2.220067751091036712e+00
2.220067751091036712e+00
2.220067751091036712e+00
2.233005645924253102e+00
2.233005645924253102e+00
2.233005645924253102e+00
2.269006744590594149e+00
2.269006744590594149e+00
2.269006744590594149e+00
2.386947843867305519e+00
2.386947843867305519e+00
2.386947843867305519e+00
2.311758049256874337e+00
2.311758049256874337e+00
2.311758049256874337e+00
2.311758049256874337e+00
2.245756035035248566e+00
2.245756035035248566e+00
2.245756035035248566e+00
2.242005920590838475e+00
2.242005920590838475e+00
2.242005920590838475e+00
2.276131962034974254e+00
2.276131962034974254e+00
2.276131962034974254e+00
2.276131962034974254e+00
2.128002441480758122e+00
2.128002441480758122e+00
2.128002441480758122e+00
2.137565233314004942e+00
2.137565233314004942e+00
2.137565233314004942e+00
2.536577410199285953e+00
2.536577410199285953e+00
2.536577410199285953e+00
2.312508072145756710e+00
2.312508072145756710e+00
2.312508072145756710e+00
2.312508072145756710e+00
2.248756126590777171e+00
2.248756126590777171e+00
2.248756126590777171e+00
2.230005554368724940e+00
2.230005554368724940e+00
2.230005554368724940e+00
2.213130039368877089e+00
2.213130039368877089e+00
2.213130039368877089e+00
2.213130039368877089e+00
2.222317819757682944e+00
2.222317819757682944e+00
2.222317819757682944e+00
2.267131687368389326e+00
2.267131687368389326e+00
2.267131687368389326e+00
2.432136722922452865e+00
2.432136722922452865e+00
2.432136722922452865e+00
2.432136722922452865e+00
2.296570085757011714e+00
2.296570085757011714e+00
2.296570085757011714e+00
2.268256721701712220e+00
2.268256721701712220e+00
2.268256721701712220e+00
2.267319193090609808e+00
2.267319193090609808e+00
2.267319193090609808e+00
2.267319193090609808e+00
2.271444318979460864e+00
2.271444318979460864e+00
2.271444318979460864e+00
2.110376903592028786e+00
2.110376903592028786e+00
2.110376903592028786e+00
2.259818964201788294e+00
2.259818964201788294e+00
2.259818964201788294e+00
2.259818964201788294e+00
2.491201025421918569e+00
2.491201025421918569e+00
2.491201025421918569e+00
2.272006836146122755e+00
2.272006836146122755e+00
2.272006836146122755e+00
2.248756126590777171e+00
2.248756126590777171e+00
2.248756126590777171e+00
2.248756126590777171e+00
2.232443128757591655e+00
2.232443128757591655e+00
2.232443128757591655e+00
2.218567705313272853e+00
2.218567705313272853e+00
2.218567705313272853e+00
2.237880794701986531e+00
2.237880794701986531e+00
2.237880794701986531e+00
2.237880794701986531e+00
2.280632099368266719e+00
2.280632099368266719e+00
2.280632099368266719e+00
2.360697042756431774e+00
2.360697042756431774e+00
2.360697042756431774e+00
2.235255714590899334e+00
2.235255714590899334e+00
2.235255714590899334e+00
2.235255714590899334e+00
2.210692464980010374e+00
2.210692464980010374e+00
2.210692464980010374e+00
2.250068666646320992e+00
2.250068666646320992e+00
2.250068666646320992e+00
2.219692739646595747e+00
2.219692739646595747e+00
2.219692739646595747e+00
2.219692739646595747e+00
2.124064821314127105e+00
2.124064821314127105e+00
2.124064821314127105e+00
2.422011413922543710e+00
2.422011413922543710e+00
2.422011413922543710e+00
2.422011413922543710e+00
2.466262764366588645e+00
2.466262764366588645e+00
2.466262764366588645e+00
2.290382396923734465e+00
2.290382396923734465e+00
2.290382396923734465e+00
2.264694112979522167e+00
2.264694112979522167e+00
2.264694112979522167e+00
2.264694112979522167e+00
2.237505783257545566e+00
2.237505783257545566e+00
2.237505783257545566e+00
2.239755851924192243e+00
2.239755851924192243e+00
2.239755851924192243e+00
2.264694112979522167e+00
2.264694112979522167e+00
2.264694112979522167e+00
2.264694112979522167e+00
2.351321756645405436e+00
2.351321756645405436e+00
2.351321756645405436e+00
2.313820612201300086e+00
2.313820612201300086e+00
2.313820612201300086e+00
2.251193700979644330e+00
2.251193700979644330e+00
2.251193700979644330e+00
2.251193700979644330e+00
2.240318369090853690e+00
2.240318369090853690e+00
2.240318369090853690e+00
2.276131962034974254e+00
2.276131962034974254e+00
2.276131962034974254e+00
2.161378460036011973e+00
2.161378460036011973e+00
2.161378460036011973e+00
2.161378460036011973e+00
2.101189123203222930e+00
2.101189123203222930e+00
2.101189123203222930e+00
2.512951689199499850e+00
2.512951689199499850e+00
2.512951689199499850e+00
2.352259285256507848e+00
2.352259285256507848e+00
2.352259285256507848e+00
2.352259285256507848e+00
2.262256538590655452e+00
2.262256538590655452e+00
2.262256538590655452e+00
2.249693655201880027e+00
2.249693655201880027e+00
2.249693655201880027e+00
2.217255165257729033e+00
2.217255165257729033e+00
2.217255165257729033e+00
2.217255165257729033e+00
2.230568071535386387e+00
2.230568071535386387e+00
2.230568071535386387e+00
2.260006469924008776e+00
2.260006469924008776e+00
2.260006469924008776e+00
2.423886471144749422e+00
2.423886471144749422e+00
2.423886471144749422e+00
2.423886471144749422e+00
2.301070223090304623e+00
2.301070223090304623e+00
2.301070223090304623e+00
2.252506241035188150e+00
2.252506241035188150e+00
2.252506241035188150e+00
2.230193060090945423e+00
2.230193060090945423e+00
2.230193060090945423e+00
2.230193060090945423e+00
2.266006653035065987e+00
2.266006653035065987e+00
2.266006653035065987e+00
2.092188848536637558e+00
2.092188848536637558e+00
2.092188848536637558e+00
2.092188848536637558e+00
2.173941343424787398e+00
2.173941343424787398e+00
2.173941343424787398e+00
2.509764091921750762e+00
2.509764091921750762e+00
2.509764091921750762e+00
2.282319650868251504e+00
2.282319650868251504e+00
2.282319650868251504e+00
2.282319650868251504e+00
2.231130588702047834e+00
2.231130588702047834e+00
2.231130588702047834e+00
2.232255623035371173e+00
2.232255623035371173e+00
2.232255623035371173e+00
2.252693746757408633e+00
2.252693746757408633e+00
2.252693746757408633e+00
2.252693746757408633e+00
2.271631824701681346e+00
2.271631824701681346e+00
2.271631824701681346e+00
2.290569902645954947e+00
2.290569902645954947e+00
2.290569902645954947e+00
2.409073519089327764e+00
2.409073519089327764e+00
2.409073519089327764e+00
2.409073519089327764e+00
2.286444776757103448e+00
2.286444776757103448e+00
2.286444776757103448e+00
2.269006744590594149e+00
2.269006744590594149e+00
2.269006744590594149e+00
2.263756584368419311e+00
2.263756584368419311e+00
2.263756584368419311e+00
2.263756584368419311e+00
2.230193060090945423e+00
2.230193060090945423e+00
2.230193060090945423e+00
2.113001983703115982e+00
2.113001983703115982e+00
2.113001983703115982e+00
2.346259102145451525e+00
2.346259102145451525e+00
2.346259102145451525e+00
2.346259102145451525e+00
2.484450819421979428e+00
2.484450819421979428e+00
2.484450819421979428e+00
2.274069399090548504e+00
2.274069399090548504e+00
2.274069399090548504e+00
2.243505966368602778e+00
2.243505966368602778e+00
2.243505966368602778e+00
2.243505966368602778e+00
2.223255348368785356e+00
2.223255348368785356e+00
2.223255348368785356e+00
2.222505325479903426e+00
2.222505325479903426e+00
2.222505325479903426e+00
2.256068849757378203e+00
2.256068849757378203e+00
2.256068849757378203e+00
2.256068849757378203e+00
2.327508529923398850e+00
2.327508529923398850e+00
2.327508529923398850e+00
2.349446699423200169e+00
2.349446699423200169e+00
2.349446699423200169e+00
2.247443586535233351e+00
2.247443586535233351e+00
2.247443586535233351e+00
2.247443586535233351e+00
2.237693288979766049e+00
2.237693288979766049e+00
2.237693288979766049e+00
2.264694112979522167e+00
2.264694112979522167e+00
2.264694112979522167e+00
2.264694112979522167e+00
2.180691549424726094e+00
2.180691549424726094e+00
2.180691549424726094e+00
2.098939054536576698e+00
2.098939054536576698e+00
2.098939054536576698e+00
2.440574480422376347e+00
2.440574480422376347e+00
2.440574480422376347e+00
2.370634846034120002e+00
2.370634846034120002e+00
2.370634846034120002e+00
2.370634846034120002e+00
2.250256172368541474e+00
2.250256172368541474e+00
2.250256172368541474e+00
2.240693380535294654e+00
2.240693380535294654e+00
2.240693380535294654e+00
2.219880245368816230e+00
2.219880245368816230e+00
2.219880245368816230e+00
2.219880245368816230e+00
2.236380748924222672e+00
2.236380748924222672e+00
2.236380748924222672e+00
2.272194341868343237e+00
2.272194341868343237e+00
2.272194341868343237e+00
2.390697958311716054e+00
2.390697958311716054e+00
2.390697958311716054e+00
2.390697958311716054e+00
2.310633014923550999e+00
2.310633014923550999e+00
2.310633014923550999e+00
2.249131138035218136e+00
2.249131138035218136e+00
2.249131138035218136e+00
2.241443403424177028e+00
2.241443403424177028e+00
2.241443403424177028e+00
2.241443403424177028e+00
2.281569627979369130e+00
2.281569627979369130e+00
2.281569627979369130e+00
2.138690267647328280e+00
2.138690267647328280e+00
2.138690267647328280e+00
2.155378276924954761e+00
2.155378276924954761e+00
2.155378276924954761e+00
2.155378276924954761e+00
2.564703268532364966e+00
2.564703268532364966e+00
2.564703268532364966e+00
2.348884182256538722e+00
2.348884182256538722e+00
2.348884182256538722e+00
2.272194341868343237e+00
2.272194341868343237e+00
2.272194341868343237e+00
2.272194341868343237e+00
2.243318460646382295e+00
2.243318460646382295e+00
2.243318460646382295e+00
2.212567522202215642e+00
2.212567522202215642e+00
2.212567522202215642e+00
2.226255439924313961e+00
2.226255439924313961e+00
2.226255439924313961e+00
2.226255439924313961e+00
2.237880794701986531e+00
2.237880794701986531e+00
2.237880794701986531e+00
2.369884823145237629e+00
2.369884823145237629e+00
2.369884823145237629e+00
2.369884823145237629e+00
2.237318277535325084e+00
2.237318277535325084e+00
2.237318277535325084e+00
2.219505233924375265e+00
2.219505233924375265e+00
2.219505233924375265e+00
2.250256172368541474e+00
2.250256172368541474e+00
2.250256172368541474e+00
2.250256172368541474e+00
2.295820062868129341e+00
2.295820062868129341e+00
2.295820062868129341e+00
2.152940702536088047e+00
2.152940702536088047e+00
2.152940702536088047e+00
2.292632465590380253e+00
2.292632465590380253e+00
2.292632465590380253e+00
2.292632465590380253e+00
2.523264503921628599e+00
2.523264503921628599e+00
2.523264503921628599e+00
2.291319925534837321e+00
2.291319925534837321e+00
2.291319925534837321e+00
2.265069124423963132e+00
2.265069124423963132e+00
2.265069124423963132e+00
2.265069124423963132e+00
2.245943540757469048e+00
2.245943540757469048e+00
2.245943540757469048e+00
2.216692648091067142e+00
2.216692648091067142e+00
2.216692648091067142e+00
2.244255989257484707e+00
2.244255989257484707e+00
2.244255989257484707e+00
2.244255989257484707e+00
2.302945280312509890e+00
2.302945280312509890e+00
2.302945280312509890e+00
2.378697592089602519e+00
2.378697592089602519e+00
2.378697592089602519e+00
2.246693563646351421e+00
2.246693563646351421e+00
2.246693563646351421e+00
2.246693563646351421e+00
2.233380657368694511e+00
2.233380657368694511e+00
2.233380657368694511e+00
2.257193884090700653e+00
2.257193884090700653e+00
2.257193884090700653e+00
2.201129673146763555e+00
2.201129673146763555e+00
2.201129673146763555e+00
2.201129673146763555e+00
2.100626606036561483e+00
2.100626606036561483e+00
2.100626606036561483e+00
2.386572832422864110e+00
2.386572832422864110e+00
2.386572832422864110e+00
2.428386608478041886e+00
2.428386608478041886e+00
2.428386608478041886e+00
2.428386608478041886e+00
2.261506515701773079e+00
2.261506515701773079e+00
2.261506515701773079e+00
2.251381206701864812e+00
2.251381206701864812e+00
2.251381206701864812e+00
2.228880520035401602e+00
2.228880520035401602e+00
2.228880520035401602e+00
2.228880520035401602e+00
2.224380382702108694e+00
2.224380382702108694e+00
2.224380382702108694e+00
2.254568803979613900e+00
2.254568803979613900e+00
2.254568803979613900e+00
2.254568803979613900e+00
2.344384044923245813e+00
2.344384044923245813e+00
2.344384044923245813e+00
2.331258644367808941e+00
2.331258644367808941e+00
2.331258644367808941e+00
2.262631550035096417e+00
2.262631550035096417e+00
2.262631550035096417e+00
2.262631550035096417e+00
2.256818872646260132e+00
2.256818872646260132e+00
2.256818872646260132e+00
2.278944547868282378e+00
2.278944547868282378e+00
2.278944547868282378e+00
2.173941343424787398e+00
2.173941343424787398e+00
2.173941343424787398e+00
2.173941343424787398e+00
2.111314432203131197e+00
2.111314432203131197e+00
2.111314432203131197e+00
2.515201757866145638e+00
2.515201757866145638e+00
2.515201757866145638e+00
2.354509353923154524e+00
2.354509353923154524e+00
2.354509353923154524e+00
2.354509353923154524e+00
2.263194067201757864e+00
2.263194067201757864e+00
2.263194067201757864e+00
2.258318918424023991e+00
2.258318918424023991e+00
2.258318918424023991e+00
2.235255714590899334e+00
2.235255714590899334e+00
2.235255714590899334e+00
2.235255714590899334e+00
2.238818323313089387e+00
2.238818323313089387e+00
2.238818323313089387e+00
2.254943815424054865e+00
2.254943815424054865e+00
2.254943815424054865e+00
2.401198278756065729e+00
2.401198278756065729e+00
2.401198278756065729e+00
2.401198278756065729e+00
2.274069399090548504e+00
2.274069399090548504e+00
2.274069399090548504e+00
2.225130405590991067e+00
2.225130405590991067e+00
2.225130405590991067e+00
2.225130405590991067e+00
2.223630359813226764e+00
2.223630359813226764e+00
2.223630359813226764e+00
2.263569078646198829e+00
2.263569078646198829e+00
2.263569078646198829e+00
2.098376537369914807e+00
2.098376537369914807e+00
2.098376537369914807e+00
2.098376537369914807e+00
2.185004181035798521e+00
2.185004181035798521e+00
2.185004181035798521e+00
2.533577318643757348e+00
2.533577318643757348e+00
2.533577318643757348e+00
2.311945554979094819e+00
2.311945554979094819e+00
2.311945554979094819e+00
2.311945554979094819e+00
2.263006561479537382e+00
2.263006561479537382e+00
2.263006561479537382e+00
2.242943449201941331e+00
2.242943449201941331e+00
2.242943449201941331e+00
2.236005737479781263e+00
2.236005737479781263e+00
2.236005737479781263e+00
2.236005737479781263e+00
2.268819238868374111e+00
2.268819238868374111e+00
2.268819238868374111e+00
2.326571001312295994e+00
2.326571001312295994e+00
2.326571001312295994e+00
2.404573381756035300e+00
2.404573381756035300e+00
2.404573381756035300e+00
2.404573381756035300e+00
2.244068483535264225e+00
2.244068483535264225e+00
2.244068483535264225e+00
2.220630268257698603e+00
2.220630268257698603e+00
2.220630268257698603e+00
2.252881252479629115e+00
2.252881252479629115e+00
2.252881252479629115e+00
2.252881252479629115e+00
2.248193609424115724e+00
2.248193609424115724e+00
2.248193609424115724e+00
2.109626880703146412e+00
2.109626880703146412e+00
2.109626880703146412e+00
2.328258552812280335e+00
2.328258552812280335e+00
2.328258552812280335e+00
2.328258552812280335e+00
2.473012970366527341e+00
2.473012970366527341e+00
2.473012970366527341e+00
2.281194616534928166e+00
2.281194616534928166e+00
2.281194616534928166e+00
2.261131504257332114e+00
2.261131504257332114e+00
2.261131504257332114e+00
2.261131504257332114e+00
2.226255439924313961e+00
2.226255439924313961e+00
2.226255439924313961e+00
2.204879787591174090e+00
2.204879787591174090e+00
2.204879787591174090e+00
2.236380748924222672e+00
2.236380748924222672e+00
2.236380748924222672e+00
2.236380748924222672e+00
2.322445875423444495e+00
2.322445875423444495e+00
2.322445875423444495e+00
2.347759147923215384e+00
2.347759147923215384e+00
2.347759147923215384e+00
2.250068666646320992e+00
2.250068666646320992e+00
2.250068666646320992e+00
2.250068666646320992e+00
2.238255806146427940e+00
2.238255806146427940e+00
2.238255806146427940e+00
2.247818597979674760e+00
2.247818597979674760e+00
2.247818597979674760e+00
2.172253791924802613e+00
2.172253791924802613e+00
2.172253791924802613e+00
2.172253791924802613e+00
2.097439008758812395e+00
2.097439008758812395e+00
2.097439008758812395e+00
2.458200018311105683e+00
2.458200018311105683e+00
2.458200018311105683e+00
2.395573107089449927e+00
2.395573107089449927e+00
2.395573107089449927e+00
2.395573107089449927e+00
2.268444227423932702e+00
2.268444227423932702e+00
2.268444227423932702e+00
2.261131504257332114e+00
2.261131504257332114e+00
2.261131504257332114e+00
2.227755485702078264e+00
2.227755485702078264e+00
2.227755485702078264e+00
2.227755485702078264e+00
2.242943449201941331e+00
2.242943449201941331e+00
2.242943449201941331e+00
2.293757499923703591e+00
2.293757499923703591e+00
2.293757499923703591e+00
2.410386059144871140e+00
2.410386059144871140e+00
2.410386059144871140e+00
2.410386059144871140e+00
2.322445875423444495e+00
2.322445875423444495e+00
2.322445875423444495e+00
2.259631458479567812e+00
2.259631458479567812e+00
2.259631458479567812e+00
2.259631458479567812e+00
2.241068391979735619e+00
2.241068391979735619e+00
2.241068391979735619e+00
2.278569536423841413e+00
2.278569536423841413e+00
2.278569536423841413e+00
2.133627613147373925e+00
2.133627613147373925e+00
2.133627613147373925e+00
2.133627613147373925e+00
2.128752464369640052e+00
2.128752464369640052e+00
2.128752464369640052e+00
2.525702078310495757e+00
2.525702078310495757e+00
2.525702078310495757e+00
2.309695486312448587e+00
2.309695486312448587e+00
2.309695486312448587e+00
2.309695486312448587e+00
2.247631092257453833e+00
2.247631092257453833e+00
2.247631092257453833e+00
2.241630909146397510e+00
2.241630909146397510e+00
2.241630909146397510e+00
2.213692556535538980e+00
2.213692556535538980e+00
2.213692556535538980e+00
2.213692556535538980e+00
2.232630634479812137e+00
2.232630634479812137e+00
2.232630634479812137e+00
2.253631275368511044e+00
2.253631275368511044e+00
2.253631275368511044e+00
2.413573656422620228e+00
2.413573656422620228e+00
2.413573656422620228e+00
2.413573656422620228e+00
2.288132328257088233e+00
2.288132328257088233e+00
2.288132328257088233e+00
2.258506424146244473e+00
2.258506424146244473e+00
2.258506424146244473e+00
2.266381664479506952e+00
2.266381664479506952e+00
2.266381664479506952e+00
2.266381664479506952e+00
2.287757316812646824e+00
2.287757316812646824e+00
2.287757316812646824e+00
2.122752281258583285e+00
2.122752281258583285e+00
2.122752281258583285e+00
2.260943998535111632e+00
2.260943998535111632e+00
2.260943998535111632e+00
2.260943998535111632e+00
2.497951231421857266e+00
2.497951231421857266e+00
2.497951231421857266e+00
2.272569353312784202e+00
2.272569353312784202e+00
2.272569353312784202e+00
2.244631000701926116e+00
2.244631000701926116e+00
2.244631000701926116e+00
2.244631000701926116e+00
2.233380657368694511e+00
2.233380657368694511e+00
2.233380657368694511e+00
2.217067659535508550e+00
2.217067659535508550e+00
2.217067659535508550e+00
2.217067659535508550e+00
2.237505783257545566e+00
2.237505783257545566e+00
2.237505783257545566e+00
2.290757408368175430e+00
2.290757408368175430e+00
2.290757408368175430e+00
2.372134891811884305e+00
2.372134891811884305e+00
2.372134891811884305e+00
2.372134891811884305e+00
2.258131412701803509e+00
2.258131412701803509e+00
2.258131412701803509e+00
2.239755851924192243e+00
2.239755851924192243e+00
2.239755851924192243e+00
2.259631458479567812e+00
2.259631458479567812e+00
2.259631458479567812e+00
2.259631458479567812e+00
2.214630085146641392e+00
2.214630085146641392e+00
2.214630085146641392e+00
2.097251503036591469e+00
2.097251503036591469e+00
2.097251503036591469e+00
2.371197363200781449e+00
2.371197363200781449e+00
2.371197363200781449e+00
2.371197363200781449e+00
2.414511185033723084e+00
2.414511185033723084e+00
2.414511185033723084e+00
2.253631275368511044e+00
2.253631275368511044e+00
2.253631275368511044e+00
2.239005829035309869e+00
2.239005829035309869e+00
2.239005829035309869e+00
2.239005829035309869e+00
2.216692648091067142e+00
2.216692648091067142e+00
2.216692648091067142e+00
2.235255714590899334e+00
2.235255714590899334e+00
2.235255714590899334e+00
2.286444776757103448e+00
2.286444776757103448e+00
2.286444776757103448e+00
2.286444776757103448e+00
2.384510269478438804e+00
2.384510269478438804e+00
2.384510269478438804e+00
2.349259193700979687e+00
2.349259193700979687e+00
2.349259193700979687e+00
2.271444318979460864e+00
2.271444318979460864e+00
2.271444318979460864e+00
2.271444318979460864e+00
2.257381389812921579e+00
2.257381389812921579e+00
2.257381389812921579e+00
2.290382396923734465e+00
2.290382396923734465e+00
2.290382396923734465e+00
2.290382396923734465e+00
2.172816309091464060e+00
2.172816309091464060e+00
2.172816309091464060e+00
2.106439283425397324e+00
2.106439283425397324e+00
2.106439283425397324e+00
2.510889126255073656e+00
2.510889126255073656e+00
2.510889126255073656e+00
2.510889126255073656e+00
2.355634388256477418e+00
2.355634388256477418e+00
2.355634388256477418e+00
2.254193792535172935e+00
2.254193792535172935e+00
2.254193792535172935e+00
2.250256172368541474e+00
2.250256172368541474e+00
2.250256172368541474e+00
2.250256172368541474e+00
2.220817773979919085e+00
2.220817773979919085e+00
2.220817773979919085e+00
2.287944822534867306e+00
2.287944822534867306e+00
2.287944822534867306e+00
2.231505600146489243e+00
2.231505600146489243e+00
2.231505600146489243e+00
2.231505600146489243e+00
2.373072420422986717e+00
2.373072420422986717e+00
2.373072420422986717e+00
2.285882259590441556e+00
2.285882259590441556e+00
2.285882259590441556e+00
2.261881527146214044e+00
2.261881527146214044e+00
2.261881527146214044e+00
2.261881527146214044e+00
2.238255806146427940e+00
2.238255806146427940e+00
2.238255806146427940e+00
2.260193975646229259e+00
2.260193975646229259e+00
2.260193975646229259e+00
2.099501571703238145e+00
2.099501571703238145e+00
2.099501571703238145e+00
2.099501571703238145e+00
2.178628986480300345e+00
2.178628986480300345e+00
2.178628986480300345e+00
2.519701895199438546e+00
2.519701895199438546e+00
2.519701895199438546e+00
2.292632465590380253e+00
2.292632465590380253e+00
2.292632465590380253e+00
2.292632465590380253e+00
2.247631092257453833e+00
2.247631092257453833e+00
2.247631092257453833e+00
2.231318094424268317e+00
2.231318094424268317e+00
2.231318094424268317e+00
2.220067751091036712e+00
2.220067751091036712e+00
2.220067751091036712e+00
2.220067751091036712e+00
2.248943632312997654e+00
2.248943632312997654e+00
2.248943632312997654e+00
2.280632099368266719e+00
2.280632099368266719e+00
2.280632099368266719e+00
2.405885921811578676e+00
2.405885921811578676e+00
2.405885921811578676e+00
2.273131870479445649e+00
2.273131870479445649e+00
2.273131870479445649e+00
2.273131870479445649e+00
2.254943815424054865e+00
2.254943815424054865e+00
2.254943815424054865e+00
2.276131962034974254e+00
2.276131962034974254e+00
2.276131962034974254e+00
2.276131962034974254e+00
2.256443861201819168e+00
2.256443861201819168e+00
2.256443861201819168e+00
2.114127018036439321e+00
2.114127018036439321e+00
2.114127018036439321e+00
2.321133335367900674e+00
2.321133335367900674e+00
2.321133335367900674e+00
2.321133335367900674e+00
2.461762627033295736e+00
2.461762627033295736e+00
2.461762627033295736e+00
2.267881710257271255e+00
2.267881710257271255e+00
2.267881710257271255e+00
2.238068300424207457e+00
2.238068300424207457e+00
2.238068300424207457e+00
2.238068300424207457e+00
2.234880703146458369e+00
2.234880703146458369e+00
2.234880703146458369e+00
2.234693197424237443e+00
2.234693197424237443e+00
2.234693197424237443e+00
2.269381756035035114e+00
2.269381756035035114e+00
2.269381756035035114e+00
2.269381756035035114e+00
2.343634022034363884e+00
2.343634022034363884e+00
2.343634022034363884e+00
2.364259651478621826e+00
2.364259651478621826e+00
2.364259651478621826e+00
2.257193884090700653e+00
2.257193884090700653e+00
2.257193884090700653e+00
2.257193884090700653e+00
2.235255714590899334e+00
2.235255714590899334e+00
2.235255714590899334e+00
2.264694112979522167e+00
2.264694112979522167e+00
2.264694112979522167e+00
2.185566698202459968e+00
2.185566698202459968e+00
2.185566698202459968e+00
2.185566698202459968e+00
2.104001709036531054e+00
2.104001709036531054e+00
2.104001709036531054e+00
2.455949949644459451e+00
2.455949949644459451e+00
2.455949949644459451e+00
2.391260475478377501e+00
2.391260475478377501e+00
2.391260475478377501e+00
2.391260475478377501e+00
2.261131504257332114e+00
2.261131504257332114e+00
2.261131504257332114e+00
2.240318369090853690e+00
2.240318369090853690e+00
2.240318369090853690e+00
2.217067659535508550e+00
2.217067659535508550e+00
2.217067659535508550e+00
2.217067659535508550e+00
2.227567979979857782e+00
2.227567979979857782e+00
2.227567979979857782e+00
2.247256080813012868e+00
2.247256080813012868e+00
2.247256080813012868e+00
2.359009491256446989e+00
2.359009491256446989e+00
2.359009491256446989e+00
2.359009491256446989e+00
2.292069948423719250e+00
2.292069948423719250e+00
2.292069948423719250e+00
2.254193792535172935e+00
2.254193792535172935e+00
2.254193792535172935e+00
2.246881069368571904e+00
2.246881069368571904e+00
2.246881069368571904e+00
2.246881069368571904e+00
2.275006927701650916e+00
2.275006927701650916e+00
2.275006927701650916e+00
2.131940061647389140e+00
2.131940061647389140e+00
2.131940061647389140e+00
2.129689992980742907e+00
2.129689992980742907e+00
2.129689992980742907e+00
2.129689992980742907e+00
2.538639973143711703e+00
2.538639973143711703e+00
2.538639973143711703e+00
2.318508255256813033e+00
2.318508255256813033e+00
2.318508255256813033e+00
2.271631824701681346e+00
2.271631824701681346e+00
2.271631824701681346e+00
2.271631824701681346e+00
2.273319376201666131e+00
2.273319376201666131e+00
2.273319376201666131e+00
2.244818506424146598e+00
2.244818506424146598e+00
2.244818506424146598e+00
2.249131138035218136e+00
2.249131138035218136e+00
2.249131138035218136e+00
2.249131138035218136e+00
2.262444044312875935e+00
2.262444044312875935e+00
2.262444044312875935e+00
2.405698416089358194e+00
2.405698416089358194e+00
2.405698416089358194e+00
2.265631641590625023e+00
2.265631641590625023e+00
2.265631641590625023e+00
2.265631641590625023e+00
2.261319009979552597e+00
2.261319009979552597e+00
2.261319009979552597e+00
2.262444044312875935e+00
2.262444044312875935e+00
2.262444044312875935e+00
2.264131595812860720e+00
2.264131595812860720e+00
2.264131595812860720e+00
2.264131595812860720e+00
2.098751548814355772e+00
2.098751548814355772e+00
2.098751548814355772e+00
2.257756401257362544e+00
2.257756401257362544e+00
2.257756401257362544e+00
2.514264229255043226e+00
2.514264229255043226e+00
2.514264229255043226e+00
2.514264229255043226e+00
2.291132419812616394e+00
2.291132419812616394e+00
2.291132419812616394e+00
2.257568895535142062e+00
2.257568895535142062e+00
2.257568895535142062e+00
2.257568895535142062e+00
2.243130954924161813e+00
2.243130954924161813e+00
2.243130954924161813e+00
2.225692922757652514e+00
2.225692922757652514e+00
2.225692922757652514e+00
2.253631275368511044e+00
2.253631275368511044e+00
2.253631275368511044e+00
2.253631275368511044e+00
2.305757866145817125e+00
2.305757866145817125e+00
2.305757866145817125e+00
2.374947477645191540e+00
2.374947477645191540e+00
2.374947477645191540e+00
2.240693380535294654e+00
2.240693380535294654e+00
2.240693380535294654e+00
2.240693380535294654e+00
2.237505783257545566e+00
2.237505783257545566e+00
2.237505783257545566e+00
2.265631641590625023e+00
2.265631641590625023e+00
2.265631641590625023e+00
2.218942716757713818e+00
2.218942716757713818e+00
2.218942716757713818e+00
2.218942716757713818e+00
2.107001800592058771e+00
2.107001800592058771e+00
2.107001800592058771e+00
2.381135166478469234e+00
2.381135166478469234e+00
2.381135166478469234e+00
2.416948759422589799e+00
2.416948759422589799e+00
2.416948759422589799e+00
2.416948759422589799e+00
2.251381206701864812e+00
2.251381206701864812e+00
2.251381206701864812e+00
2.238443311868648422e+00
2.238443311868648422e+00
2.238443311868648422e+00
2.226067934202093479e+00
2.226067934202093479e+00
2.226067934202093479e+00
2.226067934202093479e+00
2.229630542924283532e+00
2.229630542924283532e+00
2.229630542924283532e+00
2.263381572923978347e+00
2.263381572923978347e+00
2.263381572923978347e+00
2.355071871089815971e+00
2.355071871089815971e+00
2.355071871089815971e+00
2.355071871089815971e+00
2.335946287423322332e+00
2.335946287423322332e+00
2.335946287423322332e+00
2.264694112979522167e+00
2.264694112979522167e+00
2.264694112979522167e+00
2.241443403424177028e+00
2.241443403424177028e+00
2.241443403424177028e+00
2.241443403424177028e+00
2.275194433423871843e+00
2.275194433423871843e+00
2.275194433423871843e+00
2.166253608813745402e+00
2.166253608813745402e+00
2.166253608813745402e+00
2.112439466536454535e+00
2.112439466536454535e+00
2.112439466536454535e+00
2.112439466536454535e+00
2.508639057588427423e+00
2.508639057588427423e+00
2.508639057588427423e+00
2.346446607867672007e+00
2.346446607867672007e+00
2.346446607867672007e+00
2.234318185979796478e+00
2.234318185979796478e+00
2.234318185979796478e+00
2.234318185979796478e+00
2.232068117313150690e+00
2.232068117313150690e+00
2.232068117313150690e+00
2.221755302591021497e+00
2.221755302591021497e+00
2.221755302591021497e+00
2.230005554368724940e+00
2.230005554368724940e+00
2.230005554368724940e+00
2.230005554368724940e+00
2.261694021423993561e+00
2.261694021423993561e+00
2.261694021423993561e+00
2.406260933256020085e+00
2.406260933256020085e+00
2.406260933256020085e+00
2.292819971312600735e+00
2.292819971312600735e+00
2.292819971312600735e+00
2.292819971312600735e+00
2.266569170201727434e+00
2.266569170201727434e+00
2.266569170201727434e+00
2.261506515701773079e+00
2.261506515701773079e+00
2.261506515701773079e+00
2.284569719534897736e+00
2.284569719534897736e+00
2.284569719534897736e+00
2.284569719534897736e+00
2.119939695425275605e+00
2.119939695425275605e+00
2.119939695425275605e+00
2.204504776146733125e+00
2.204504776146733125e+00
2.204504776146733125e+00
2.552327890865810023e+00
2.552327890865810023e+00
2.552327890865810023e+00
2.552327890865810023e+00
2.311945554979094819e+00
2.311945554979094819e+00
2.311945554979094819e+00
2.249318643757439062e+00
2.249318643757439062e+00
2.249318643757439062e+00
2.230755577257606870e+00
2.230755577257606870e+00
2.230755577257606870e+00
2.230755577257606870e+00
2.208067384868923178e+00
2.208067384868923178e+00
2.208067384868923178e+00
2.231318094424268317e+00
2.231318094424268317e+00
2.231318094424268317e+00
2.264319101535081202e+00
2.264319101535081202e+00
2.264319101535081202e+00
2.264319101535081202e+00
2.395385601367229444e+00
2.395385601367229444e+00
2.395385601367229444e+00
2.257006378368480615e+00
2.257006378368480615e+00
2.257006378368480615e+00
2.233193151646474028e+00
2.233193151646474028e+00
2.233193151646474028e+00
2.233193151646474028e+00
2.249131138035218136e+00
2.249131138035218136e+00
2.249131138035218136e+00
2.247068575090792386e+00
2.247068575090792386e+00
2.247068575090792386e+00
2.247068575090792386e+00
2.117689626758628929e+00
2.117689626758628929e+00
2.117689626758628929e+00
2.318320749534592551e+00
2.318320749534592551e+00
2.318320749534592551e+00
2.463637684255501004e+00
2.463637684255501004e+00
2.463637684255501004e+00
2.463637684255501004e+00
2.270131778923917043e+00
2.270131778923917043e+00
2.270131778923917043e+00
2.267319193090609808e+00
2.267319193090609808e+00
2.267319193090609808e+00
2.263756584368419311e+00
2.263756584368419311e+00
2.263756584368419311e+00
2.263756584368419311e+00
2.252318735312967224e+00
2.252318735312967224e+00
2.252318735312967224e+00
2.266756675923947917e+00
2.266756675923947917e+00
2.266756675923947917e+00
2.322258369701224012e+00
2.322258369701224012e+00
2.322258369701224012e+00
2.322258369701224012e+00
2.345134067812128187e+00
2.345134067812128187e+00
2.345134067812128187e+00
2.266194158757286470e+00
2.266194158757286470e+00
2.266194158757286470e+00
2.237880794701986531e+00
2.237880794701986531e+00
2.237880794701986531e+00
2.237880794701986531e+00
2.267131687368389326e+00
2.267131687368389326e+00
2.267131687368389326e+00
2.193254432813501520e+00
2.193254432813501520e+00
2.193254432813501520e+00
2.103064180425428198e+00
2.103064180425428198e+00
2.103064180425428198e+00
2.103064180425428198e+00
2.448824732200079346e+00
2.448824732200079346e+00
2.448824732200079346e+00
2.378322580645161111e+00
2.378322580645161111e+00
2.378322580645161111e+00
2.240130863368633207e+00
2.240130863368633207e+00
2.240130863368633207e+00
2.240130863368633207e+00
2.234505691702016961e+00
2.234505691702016961e+00
2.234505691702016961e+00
2.218755211035493335e+00
2.218755211035493335e+00
2.218755211035493335e+00
2.218005188146610962e+00
2.218005188146610962e+00
2.218005188146610962e+00
2.218005188146610962e+00
2.243505966368602778e+00
2.243505966368602778e+00
2.243505966368602778e+00
2.383760246589556875e+00
2.383760246589556875e+00
2.383760246589556875e+00
2.383760246589556875e+00
2.330133610034486047e+00
2.330133610034486047e+00
2.330133610034486047e+00
2.278194524979400004e+00
2.278194524979400004e+00
2.278194524979400004e+00
2.243693472090823260e+00
2.243693472090823260e+00
2.243693472090823260e+00
2.277444502090518075e+00
2.277444502090518075e+00
2.277444502090518075e+00
2.277444502090518075e+00
2.147878048036134135e+00
2.147878048036134135e+00
2.147878048036134135e+00
2.142815393536179780e+00
2.142815393536179780e+00
2.142815393536179780e+00
2.142815393536179780e+00
2.528889675588243957e+00
2.528889675588243957e+00
2.528889675588243957e+00
2.321695852534562121e+00
2.321695852534562121e+00
2.321695852534562121e+00
2.259443952757347329e+00
2.259443952757347329e+00
2.259443952757347329e+00
2.259443952757347329e+00
2.259443952757347329e+00
2.259443952757347329e+00
2.259443952757347329e+00
2.236755760368663637e+00
2.236755760368663637e+00
2.236755760368663637e+00
2.239193334757530351e+00
2.239193334757530351e+00
2.239193334757530351e+00
2.239193334757530351e+00
2.261694021423993561e+00
2.261694021423993561e+00
2.261694021423993561e+00
2.404385876033814373e+00
2.404385876033814373e+00
2.404385876033814373e+00
2.307070406201360946e+00
2.307070406201360946e+00
2.307070406201360946e+00
2.307070406201360946e+00
2.264319101535081202e+00
2.264319101535081202e+00
2.264319101535081202e+00
2.250818689535202921e+00
2.250818689535202921e+00
2.250818689535202921e+00
2.279132053590502860e+00
2.279132053590502860e+00
2.279132053590502860e+00
2.279132053590502860e+00
2.133252601702932960e+00
2.133252601702932960e+00
2.133252601702932960e+00
2.263944090090640238e+00
2.263944090090640238e+00
2.263944090090640238e+00
2.523452009643849081e+00
2.523452009643849081e+00
2.523452009643849081e+00
2.523452009643849081e+00
2.256818872646260132e+00
2.256818872646260132e+00
2.256818872646260132e+00
2.229068025757622085e+00
2.229068025757622085e+00
2.229068025757622085e+00
2.229068025757622085e+00
2.218942716757713818e+00
2.218942716757713818e+00
2.218942716757713818e+00
2.223067842646564873e+00
2.223067842646564873e+00
2.223067842646564873e+00
2.259818964201788294e+00
2.259818964201788294e+00
2.259818964201788294e+00
2.259818964201788294e+00
2.303507797479171337e+00
2.303507797479171337e+00
2.303507797479171337e+00
2.386947843867305519e+00
2.386947843867305519e+00
2.386947843867305519e+00
2.264506607257301685e+00
2.264506607257301685e+00
2.264506607257301685e+00
2.264506607257301685e+00
2.237880794701986531e+00
2.237880794701986531e+00
2.237880794701986531e+00
2.251943723868526259e+00
2.251943723868526259e+00
2.251943723868526259e+00
2.209567430646687480e+00
2.209567430646687480e+00
2.209567430646687480e+00
2.209567430646687480e+00
2.114877040925321250e+00
2.114877040925321250e+00
2.114877040925321250e+00
2.402510818811609106e+00
2.402510818811609106e+00
2.402510818811609106e+00
2.446574663533433114e+00
2.446574663533433114e+00
2.446574663533433114e+00
2.446574663533433114e+00
2.283444685201574842e+00
2.283444685201574842e+00
2.283444685201574842e+00
2.268819238868374111e+00
2.268819238868374111e+00
2.268819238868374111e+00
2.235443220313119816e+00
2.235443220313119816e+00
2.235443220313119816e+00
2.235443220313119816e+00
2.226630451368755370e+00
2.226630451368755370e+00
2.226630451368755370e+00
2.250443678090761956e+00
2.250443678090761956e+00
2.250443678090761956e+00
2.342321481978820064e+00
2.342321481978820064e+00
2.342321481978820064e+00
2.342321481978820064e+00
2.323945921201208797e+00
2.323945921201208797e+00
2.323945921201208797e+00
2.234505691702016961e+00
2.234505691702016961e+00
2.234505691702016961e+00
2.214817590868861874e+00
2.214817590868861874e+00
2.214817590868861874e+00
2.214817590868861874e+00
2.240318369090853690e+00
2.240318369090853690e+00
2.240318369090853690e+00
2.144127933591723156e+00
2.144127933591723156e+00
2.144127933591723156e+00
2.093313882869960452e+00
2.093313882869960452e+00
2.093313882869960452e+00
2.093313882869960452e+00
2.510514114810632691e+00
2.510514114810632691e+00
2.510514114810632691e+00
2.377572557756279181e+00
2.377572557756279181e+00
2.377572557756279181e+00
2.284382213812677254e+00
2.284382213812677254e+00
2.284382213812677254e+00
2.284382213812677254e+00
2.284569719534897736e+00
2.284569719534897736e+00
2.284569719534897736e+00
2.251381206701864812e+00
2.251381206701864812e+00
2.251381206701864812e+00
2.246693563646351421e+00
2.246693563646351421e+00
2.246693563646351421e+00
2.246693563646351421e+00
2.260568987090670667e+00
2.260568987090670667e+00
2.260568987090670667e+00
2.395385601367229444e+00
2.395385601367229444e+00
2.395385601367229444e+00
2.395385601367229444e+00
2.268819238868374111e+00
2.268819238868374111e+00
2.268819238868374111e+00
2.241818414868617992e+00
2.241818414868617992e+00
2.241818414868617992e+00
2.231130588702047834e+00
2.231130588702047834e+00
2.231130588702047834e+00
2.231130588702047834e+00
2.270131778923917043e+00
2.270131778923917043e+00
2.270131778923917043e+00
2.111689443647572162e+00
2.111689443647572162e+00
2.111689443647572162e+00
2.173753837702566916e+00
2.173753837702566916e+00
2.173753837702566916e+00
2.173753837702566916e+00
2.504888943144016888e+00
2.504888943144016888e+00
2.504888943144016888e+00
2.273881893368328022e+00
2.273881893368328022e+00
2.273881893368328022e+00
2.237130771813104602e+00
2.237130771813104602e+00
2.237130771813104602e+00
2.237130771813104602e+00
2.235630726035340299e+00
2.235630726035340299e+00
2.235630726035340299e+00
2.222130314035462462e+00
2.222130314035462462e+00
2.222130314035462462e+00
2.277444502090518075e+00
2.277444502090518075e+00
2.277444502090518075e+00
2.277444502090518075e+00
2.307632923368022837e+00
2.307632923368022837e+00
2.307632923368022837e+00
2.421636402478102745e+00
2.421636402478102745e+00
2.421636402478102745e+00
2.274819421979430434e+00
2.274819421979430434e+00
2.274819421979430434e+00
2.274819421979430434e+00
2.245756035035248566e+00
2.245756035035248566e+00
2.245756035035248566e+00
2.261881527146214044e+00
2.261881527146214044e+00
2.261881527146214044e+00
2.248381115146336207e+00
2.248381115146336207e+00
2.248381115146336207e+00
2.248381115146336207e+00
2.097063997314370987e+00
2.097063997314370987e+00
2.097063997314370987e+00
2.299570177312540320e+00
2.299570177312540320e+00
2.299570177312540320e+00
2.452012329477828434e+00
2.452012329477828434e+00
2.452012329477828434e+00
2.452012329477828434e+00
2.266756675923947917e+00
2.266756675923947917e+00
2.266756675923947917e+00
2.254381298257393418e+00
2.254381298257393418e+00
2.254381298257393418e+00
2.227192968535416817e+00
2.227192968535416817e+00
2.227192968535416817e+00
2.227192968535416817e+00
2.211067476424451339e+00
2.211067476424451339e+00
2.211067476424451339e+00
2.233568163090914993e+00
2.233568163090914993e+00
2.233568163090914993e+00
2.309882992034669069e+00
2.309882992034669069e+00
2.338571367534409973e+00
2.338571367534409973e+00
2.256818872646260132e+00
2.256818872646260132e+00
2.257568895535142062e+00
2.257568895535142062e+00
2.257568895535142062e+00
2.284944730979339145e+00
2.284944730979339145e+00
2.203567247535630269e+00
2.203567247535630269e+00
2.118627155369731785e+00
2.118627155369731785e+00
2.461200109866634289e+00
2.461200109866634289e+00
2.407760979033784388e+00
2.407760979033784388e+00
2.284382213812677254e+00
2.284382213812677254e+00
2.269006744590594149e+00
2.269006744590594149e+00
2.232443128757591655e+00
2.232443128757591655e+00
2.232443128757591655e+00
2.230568071535386387e+00
2.230568071535386387e+00
2.255318826868495830e+00
2.255318826868495830e+00
2.373447431867427682e+00
2.373447431867427682e+00
2.313820612201300086e+00
2.313820612201300086e+00
2.250068666646320992e+00
2.250068666646320992e+00
2.226630451368755370e+00
2.226630451368755370e+00
2.264319101535081202e+00
2.264319101535081202e+00
2.130815027314065802e+00
2.130815027314065802e+00
2.130815027314065802e+00
2.123689809869686140e+00
2.123689809869686140e+00
2.524014526810510528e+00
2.524014526810510528e+00
2.317570726645710621e+00
2.317570726645710621e+00
2.248193609424115724e+00
2.248193609424115724e+00
2.245381023590808045e+00
2.245381023590808045e+00
2.221380291146580532e+00
2.221380291146580532e+00
2.248943632312997654e+00
2.248943632312997654e+00
2.264319101535081202e+00
2.264319101535081202e+00
2.264319101535081202e+00
2.413386150700399746e+00
2.413386150700399746e+00
2.284944730979339145e+00
2.284944730979339145e+00
2.264506607257301685e+00
2.264506607257301685e+00
2.257568895535142062e+00
2.257568895535142062e+00
2.264319101535081202e+00
2.264319101535081202e+00
2.098001525925473842e+00
2.098001525925473842e+00
2.236380748924222672e+00
2.236380748924222672e+00
2.555515488143559111e+00
2.555515488143559111e+00
2.273881893368328022e+00
2.273881893368328022e+00
2.258318918424023991e+00
2.258318918424023991e+00
2.258318918424023991e+00
2.242005920590838475e+00
2.242005920590838475e+00
2.239755851924192243e+00
2.239755851924192243e+00
2.257381389812921579e+00
2.257381389812921579e+00
2.295445051423688376e+00
2.295445051423688376e+00
2.381135166478469234e+00
2.381135166478469234e+00
2.254381298257393418e+00
2.254381298257393418e+00
2.302382763145847999e+00
2.302382763145847999e+00
2.231880611590930208e+00
2.231880611590930208e+00
2.188379284035767647e+00
2.188379284035767647e+00
2.188379284035767647e+00
2.091063814203314664e+00
2.091063814203314664e+00
2.364447157200842309e+00
2.364447157200842309e+00
2.408698507644886799e+00
2.408698507644886799e+00
2.243505966368602778e+00
2.243505966368602778e+00
2.237693288979766049e+00
2.237693288979766049e+00
2.221192785424360050e+00
2.221192785424360050e+00
2.221755302591021497e+00
2.221755302591021497e+00
2.245568529313028083e+00
2.245568529313028083e+00
2.335571275978881367e+00
2.335571275978881367e+00
2.335571275978881367e+00
2.331821161534470832e+00
2.331821161534470832e+00
2.286069765312662039e+00
2.286069765312662039e+00
2.262069032868434526e+00
2.262069032868434526e+00
2.286069765312662039e+00
2.286069765312662039e+00
2.178441480758079862e+00
2.178441480758079862e+00
2.123314798425245176e+00
2.123314798425245176e+00
2.510326609088412209e+00
2.510326609088412209e+00
2.343071504867702437e+00
2.343071504867702437e+00
2.343071504867702437e+00
2.242943449201941331e+00
2.242943449201941331e+00
2.231693105868709726e+00
2.231693105868709726e+00
2.224567888424329176e+00
2.224567888424329176e+00
2.252881252479629115e+00
2.252881252479629115e+00
2.276131962034974254e+00
2.276131962034974254e+00
2.416386242255928352e+00
2.416386242255928352e+00
2.291882442701498768e+00
2.291882442701498768e+00
2.257943906979583026e+00
2.257943906979583026e+00
2.236943266090884119e+00
2.236943266090884119e+00
2.236943266090884119e+00
2.268631733146153184e+00
2.268631733146153184e+00
2.110751915036469750e+00
2.110751915036469750e+00
2.226067934202093479e+00
2.226067934202093479e+00
2.545952696310312291e+00
2.545952696310312291e+00
2.286257271034882521e+00
2.286257271034882521e+00
2.251568712424085295e+00
2.251568712424085295e+00
2.229255531479842567e+00
2.229255531479842567e+00
2.206754844813379357e+00
2.206754844813379357e+00
2.233755668813135031e+00
2.233755668813135031e+00
2.233755668813135031e+00
2.265631641590625023e+00
2.265631641590625023e+00
2.372322397534104788e+00
2.372322397534104788e+00
2.217817682424390480e+00
2.217817682424390480e+00
2.184066652424695665e+00
2.184066652424695665e+00
2.193816949980162967e+00
2.193816949980162967e+00
2.204879787591174090e+00
2.204879787591174090e+00
2.083938596758934114e+00
2.083938596758934114e+00
2.287757316812646824e+00
2.287757316812646824e+00
2.287757316812646824e+00
2.428199102755821404e+00
2.428199102755821404e+00
2.233943174535355514e+00
2.233943174535355514e+00
2.233755668813135031e+00
2.233755668813135031e+00
2.243505966368602778e+00
2.243505966368602778e+00
2.256818872646260132e+00
2.256818872646260132e+00
2.299570177312540320e+00
2.299570177312540320e+00
2.385072786645100695e+00
2.385072786645100695e+00
2.422386425366985119e+00
2.422386425366985119e+00
2.323570909756767389e+00
2.323570909756767389e+00
2.323570909756767389e+00
2.299570177312540320e+00
2.299570177312540320e+00
2.282694662312692468e+00
2.282694662312692468e+00
2.165316080202642990e+00
2.165316080202642990e+00
2.063875484481338063e+00
2.063875484481338063e+00
2.394635578478347071e+00
2.394635578478347071e+00
2.315695669423505798e+00
2.315695669423505798e+00
2.182191595202490397e+00
2.182191595202490397e+00
2.183129123813593253e+00
2.183129123813593253e+00
2.183129123813593253e+00
2.203567247535630269e+00
2.203567247535630269e+00
2.264319101535081202e+00
2.264319101535081202e+00
2.321508346812341639e+00
2.321508346812341639e+00
2.385260292367321178e+00
2.385260292367321178e+00
2.275194433423871843e+00
2.275194433423871843e+00
2.194754478591265823e+00
2.194754478591265823e+00
2.183504135258034218e+00
2.183504135258034218e+00
2.215192602313302839e+00
2.215192602313302839e+00
2.215192602313302839e+00
2.089188756981108952e+00
2.089188756981108952e+00
2.090126285592211808e+00
2.090126285592211808e+00
2.516514297921689458e+00
2.516514297921689458e+00
2.336883816034425188e+00
2.336883816034425188e+00
2.261694021423993561e+00
2.261694021423993561e+00
2.235443220313119816e+00
2.235443220313119816e+00
2.236943266090884119e+00
2.236943266090884119e+00
2.274069399090548504e+00
2.274069399090548504e+00
2.312695577867977192e+00
2.312695577867977192e+00
2.312695577867977192e+00
2.500013794366283459e+00
2.500013794366283459e+00
2.378322580645161111e+00
2.378322580645161111e+00
2.346259102145451525e+00
2.346259102145451525e+00
2.366134708700827094e+00
2.366134708700827094e+00
2.392760521256141804e+00
2.392760521256141804e+00
2.216692648091067142e+00
2.216692648091067142e+00
2.325258461256752618e+00
2.325258461256752618e+00
2.517451826532791870e+00
2.517451826532791870e+00
2.254381298257393418e+00
2.254381298257393418e+00
2.254381298257393418e+00
2.212942533646656607e+00
2.212942533646656607e+00
2.196442030091250608e+00
2.196442030091250608e+00
2.188379284035767647e+00
2.188379284035767647e+00
2.234505691702016961e+00
2.234505691702016961e+00
2.281194616534928166e+00
2.281194616534928166e+00
2.350946745200964472e+00
2.350946745200964472e+00
2.229255531479842567e+00
2.229255531479842567e+00
2.220442762535478121e+00
2.220442762535478121e+00
2.220442762535478121e+00
2.291507431257057803e+00
2.291507431257057803e+00
2.205817316202276945e+00
2.205817316202276945e+00
2.094626422925504272e+00
2.094626422925504272e+00
2.398010681478316641e+00
2.398010681478316641e+00
2.483138279366435608e+00
2.483138279366435608e+00
2.366134708700827094e+00
2.366134708700827094e+00
2.281944639423810539e+00
2.281944639423810539e+00
2.248006103701895242e+00
2.248006103701895242e+00
2.248006103701895242e+00
2.247818597979674760e+00
2.247818597979674760e+00
2.275381939146092325e+00
2.275381939146092325e+00
2.348509170812097757e+00
2.348509170812097757e+00
2.314383129367961978e+00
2.314383129367961978e+00
2.263569078646198829e+00
2.263569078646198829e+00
2.273319376201666131e+00
2.273319376201666131e+00
2.287757316812646824e+00
2.287757316812646824e+00
2.163066011535996758e+00
2.163066011535996758e+00
2.123502304147465658e+00
2.123502304147465658e+00
2.123502304147465658e+00
2.517264320810571387e+00
2.517264320810571387e+00
2.366884731589709023e+00
2.366884731589709023e+00
2.269756767479476078e+00
2.269756767479476078e+00
2.258506424146244473e+00
2.258506424146244473e+00
2.226067934202093479e+00
2.226067934202093479e+00
2.236193243202001746e+00
2.236193243202001746e+00
2.251381206701864812e+00
2.251381206701864812e+00
2.352259285256507848e+00
2.352259285256507848e+00
2.352259285256507848e+00
2.212005005035553751e+00
2.212005005035553751e+00
2.175816400646992221e+00
2.175816400646992221e+00
2.181629078035828950e+00
2.181629078035828950e+00
2.223255348368785356e+00
2.223255348368785356e+00
2.052437635425885976e+00
2.052437635425885976e+00
2.103064180425428198e+00
2.103064180425428198e+00
2.472825464644306859e+00
2.472825464644306859e+00
2.275006927701650916e+00
2.275006927701650916e+00
2.275006927701650916e+00
2.297320108645893644e+00
2.297320108645893644e+00
2.240130863368633207e+00
2.240130863368633207e+00
2.233755668813135031e+00
2.233755668813135031e+00
2.269756767479476078e+00
2.269756767479476078e+00
2.311758049256874337e+00
2.311758049256874337e+00
2.459325052644428578e+00
2.459325052644428578e+00
2.321133335367900674e+00
2.321133335367900674e+00
2.299382671590319838e+00
2.299382671590319838e+00
2.299382671590319838e+00
2.309695486312448587e+00
2.309695486312448587e+00
2.259818964201788294e+00
2.259818964201788294e+00
2.085813653981139382e+00
2.085813653981139382e+00
2.253818781090731527e+00
2.253818781090731527e+00
2.399323221533860018e+00
2.399323221533860018e+00
2.222505325479903426e+00
2.222505325479903426e+00
2.249506149479659545e+00
2.249506149479659545e+00
2.266006653035065987e+00
2.266006653035065987e+00
2.266006653035065987e+00
2.273506881923887057e+00
2.273506881923887057e+00
2.301820245979186552e+00
2.301820245979186552e+00
2.368009765923032361e+00
2.368009765923032361e+00
2.395573107089449927e+00
2.395573107089449927e+00
2.297132602923673161e+00
2.297132602923673161e+00
2.276506973479415219e+00
2.276506973479415219e+00
2.251381206701864812e+00
2.251381206701864812e+00
2.161003448591571008e+00
2.161003448591571008e+00
2.161003448591571008e+00
2.109251869258705447e+00
2.109251869258705447e+00
2.495138645588549586e+00
2.495138645588549586e+00
2.533764824365978274e+00
2.533764824365978274e+00
2.335196264534440402e+00
2.335196264534440402e+00
2.260568987090670667e+00
2.260568987090670667e+00
2.231693105868709726e+00
2.231693105868709726e+00
2.217067659535508550e+00
2.217067659535508550e+00
2.227380474257637299e+00
2.227380474257637299e+00
2.332946195867793726e+00
2.332946195867793726e+00
2.260006469924008776e+00
2.260006469924008776e+00
2.260006469924008776e+00
2.195129490035706787e+00
2.195129490035706787e+00
2.199629627368999252e+00
2.199629627368999252e+00
2.227755485702078264e+00
2.227755485702078264e+00
2.096313974425489057e+00
2.096313974425489057e+00
2.082251045258949329e+00
2.082251045258949329e+00
2.500763817255165389e+00
2.500763817255165389e+00
2.298445142979216982e+00
2.298445142979216982e+00
2.254006286812952009e+00
2.254006286812952009e+00
2.254006286812952009e+00
2.266194158757286470e+00
2.266194158757286470e+00
2.248193609424115724e+00
2.248193609424115724e+00
2.251381206701864812e+00
2.251381206701864812e+00
2.251568712424085295e+00
2.251568712424085295e+00
2.398948210089419053e+00
2.398948210089419053e+00
2.265256630146183614e+00
2.265256630146183614e+00
2.217817682424390480e+00
2.217817682424390480e+00
2.218005188146610962e+00
2.218005188146610962e+00
2.218005188146610962e+00
2.234505691702016961e+00
2.234505691702016961e+00
2.121252235480818982e+00
2.121252235480818982e+00
2.308007934812463802e+00
2.308007934812463802e+00
2.598829309976500745e+00
2.598829309976500745e+00
2.420886379589221260e+00
2.420886379589221260e+00
2.411698599200414961e+00
2.411698599200414961e+00
2.371572374645222414e+00
2.371572374645222414e+00
2.371572374645222414e+00
2.306695394756919981e+00
2.306695394756919981e+00
2.297507614368114126e+00
2.297507614368114126e+00
2.314945646534623425e+00
2.314945646534623425e+00
2.321320841090121156e+00
2.321320841090121156e+00
2.197379558702353020e+00
2.197379558702353020e+00
2.181816583758049433e+00
2.181816583758049433e+00
2.224380382702108694e+00
2.224380382702108694e+00
2.167753654591509704e+00
2.167753654591509704e+00
2.167753654591509704e+00
2.060312875759148010e+00
2.060312875759148010e+00
2.322070863979003530e+00
2.322070863979003530e+00
2.399698232978301426e+00
2.399698232978301426e+00
2.217067659535508550e+00
2.217067659535508550e+00
2.206942350535599839e+00
2.206942350535599839e+00
2.194379467146824858e+00
2.194379467146824858e+00
2.224942899868770141e+00
2.224942899868770141e+00
2.301257728812525105e+00
2.301257728812525105e+00
2.418073793755913137e+00
2.418073793755913137e+00
2.418073793755913137e+00
2.380385143589587305e+00
2.380385143589587305e+00
2.243130954924161813e+00
2.243130954924161813e+00
2.143940427869502674e+00
2.143940427869502674e+00
2.113939512314218838e+00
2.113939512314218838e+00
2.017936582537308787e+00
2.017936582537308787e+00
1.989810724204229997e+00
1.989810724204229997e+00
2.410761070589312105e+00
2.410761070589312105e+00
2.282882168034912951e+00
2.282882168034912951e+00
2.282882168034912951e+00
2.201317178868984037e+00
2.201317178868984037e+00
2.218380199591051927e+00
2.218380199591051927e+00
2.252881252479629115e+00
2.252881252479629115e+00
2.338383861812189490e+00
2.338383861812189490e+00
2.431574205755790974e+00
2.431574205755790974e+00
2.587578966643269140e+00
2.587578966643269140e+00
2.415448713644825496e+00
2.415448713644825496e+00
2.323758415478988315e+00
2.323758415478988315e+00
2.323758415478988315e+00
2.283819696646015807e+00
2.283819696646015807e+00
2.271444318979460864e+00
2.271444318979460864e+00
2.086001159703360308e+00
2.086001159703360308e+00
2.136627704702902530e+00
2.136627704702902530e+00
2.502826380199591139e+00
2.502826380199591139e+00
2.342508987701040546e+00
2.342508987701040546e+00
2.351509262367625919e+00
2.351509262367625919e+00
2.299570177312540320e+00
2.299570177312540320e+00
2.299570177312540320e+00
2.205817316202276945e+00
2.205817316202276945e+00
2.154253242591631867e+00
2.154253242591631867e+00
2.143190404980620745e+00
2.143190404980620745e+00
2.237318277535325084e+00
2.237318277535325084e+00
2.070063173314615312e+00
2.070063173314615312e+00
2.077000885036774935e+00
2.077000885036774935e+00
2.148253059480575100e+00
2.148253059480575100e+00
2.159690908536027187e+00
2.159690908536027187e+00
2.098189031647694325e+00
2.098189031647694325e+00
2.344759056367687222e+00
2.344759056367687222e+00
2.344759056367687222e+00
2.559265602587969646e+00
2.559265602587969646e+00
2.387322855311746483e+00
2.387322855311746483e+00
2.371009857478560967e+00
2.371009857478560967e+00
2.365572191534165203e+00
2.365572191534165203e+00
2.354509353923154524e+00
2.354509353923154524e+00
2.369884823145237629e+00
2.369884823145237629e+00
2.419948850978118404e+00
2.419948850978118404e+00
2.433449262977995797e+00
2.433449262977995797e+00
2.311383037812433372e+00
2.311383037812433372e+00
2.311383037812433372e+00
2.302382763145847999e+00
2.302382763145847999e+00
2.251943723868526259e+00
2.251943723868526259e+00
2.132127567369609622e+00
2.132127567369609622e+00
2.037062166203802427e+00
2.037062166203802427e+00
2.369884823145237629e+00
2.369884823145237629e+00
2.341758964812158617e+00
2.341758964812158617e+00
2.209192419202246516e+00
2.209192419202246516e+00
2.181254066591387542e+00
2.181254066591387542e+00
2.181254066591387542e+00
2.171503769035920239e+00
2.171503769035920239e+00
2.200942167424543072e+00
2.200942167424543072e+00
2.242005920590838475e+00
2.242005920590838475e+00
2.357884456923124095e+00
2.357884456923124095e+00
2.350946745200964472e+00
2.350946745200964472e+00
2.331258644367808941e+00
2.331258644367808941e+00
2.308382946256904766e+00
2.308382946256904766e+00
2.295820062868129341e+00
2.295820062868129341e+00
2.295820062868129341e+00
2.084126102481154597e+00
2.084126102481154597e+00
2.003311136204107612e+00
2.003311136204107612e+00
2.369134800256355700e+00
2.369134800256355700e+00
2.206379833368938392e+00
2.206379833368938392e+00
2.171316263313699757e+00
2.171316263313699757e+00
2.198879604480116878e+00
2.198879604480116878e+00
2.250631183812982439e+00
2.250631183812982439e+00
2.297882625812555535e+00
2.297882625812555535e+00
2.297882625812555535e+00
2.342696493423261028e+00
2.342696493423261028e+00
2.502076357310709209e+00
2.502076357310709209e+00
2.341008941923276243e+00
2.341008941923276243e+00
2.258318918424023991e+00
2.258318918424023991e+00
2.277069490646077110e+00
2.277069490646077110e+00
2.274819421979430434e+00
2.274819421979430434e+00
2.092751365703299449e+00
2.092751365703299449e+00
2.092751365703299449e+00
2.174128849147007880e+00
2.174128849147007880e+00
2.419011322367015993e+00
2.419011322367015993e+00
2.218380199591051927e+00
2.218380199591051927e+00
2.230755577257606870e+00
2.230755577257606870e+00
2.305382854701376161e+00
2.305382854701376161e+00
2.291507431257057803e+00
2.291507431257057803e+00
2.344196539201025331e+00
2.344196539201025331e+00
2.452199835200048916e+00
2.452199835200048916e+00
2.425386516922513280e+00
2.425386516922513280e+00
2.425386516922513280e+00
2.207504867702261730e+00
2.207504867702261730e+00
2.180879055146946577e+00
2.180879055146946577e+00
2.211629993591112786e+00
2.211629993591112786e+00
2.149753105258339403e+00
2.149753105258339403e+00
2.039874752037110550e+00
2.039874752037110550e+00
2.349634205145421095e+00
2.349634205145421095e+00
2.478638142033143144e+00
2.478638142033143144e+00
2.318133243812372069e+00
2.318133243812372069e+00
2.318133243812372069e+00
2.360322031311990809e+00
2.360322031311990809e+00
2.354134342478713116e+00
2.354134342478713116e+00
2.330321115756706529e+00
2.330321115756706529e+00
2.311383037812433372e+00
2.311383037812433372e+00
2.359572008423108880e+00
2.359572008423108880e+00
2.345696584978789634e+00
2.345696584978789634e+00
2.289632374034852091e+00
2.289632374034852091e+00
2.291507431257057803e+00
2.291507431257057803e+00
2.287944822534867306e+00
2.287944822534867306e+00
2.287944822534867306e+00
2.152565691091647082e+00
2.152565691091647082e+00
2.060875392925809457e+00
2.060875392925809457e+00
2.460075075533310951e+00
2.460075075533310951e+00
2.336883816034425188e+00
2.336883816034425188e+00
2.252131229590746742e+00
2.252131229590746742e+00
2.239005829035309869e+00
2.239005829035309869e+00
2.190816858424634361e+00
2.190816858424634361e+00
2.283632190923795324e+00
2.283632190923795324e+00
2.283632190923795324e+00
2.375509994811853431e+00
2.375509994811853431e+00
2.502076357310709209e+00
2.502076357310709209e+00
2.335383770256660885e+00
2.335383770256660885e+00
2.214067567979979945e+00
2.214067567979979945e+00
2.182379100924710880e+00
2.182379100924710880e+00
2.189129306924649576e+00
2.189129306924649576e+00
2.009686330759605788e+00
2.009686330759605788e+00
2.046249946592608282e+00
2.046249946592608282e+00
2.046249946592608282e+00
2.434386791589098653e+00
2.434386791589098653e+00
2.230568071535386387e+00
2.230568071535386387e+00
2.199254615924558287e+00
2.199254615924558287e+00
2.164941068758201581e+00
2.164941068758201581e+00
2.160628437147130043e+00
2.160628437147130043e+00
2.256256355479598685e+00
2.256256355479598685e+00
2.333321207312235135e+00
2.333321207312235135e+00
2.477325601977599767e+00
2.477325601977599767e+00
2.322070863979003530e+00
2.322070863979003530e+00
2.308007934812463802e+00
2.308007934812463802e+00
2.317195715201269657e+00
2.317195715201269657e+00
2.317195715201269657e+00
2.264881618701742649e+00
2.264881618701742649e+00
2.110001892147587377e+00
2.110001892147587377e+00
2.360697042756431774e+00
2.360697042756431774e+00
2.654143498031556359e+00
2.654143498031556359e+00
2.461012604144413807e+00
2.461012604144413807e+00
2.362197088534196077e+00
2.362197088534196077e+00
2.324133426923429280e+00
2.324133426923429280e+00
2.324133426923429280e+00
2.300132694479201767e+00
2.300132694479201767e+00
2.270131778923917043e+00
2.270131778923917043e+00
2.296757591479232197e+00
2.296757591479232197e+00
2.272006836146122755e+00
2.272006836146122755e+00
2.074000793481246330e+00
2.074000793481246330e+00
2.031436994537187068e+00
2.031436994537187068e+00
1.957934751426740450e+00
1.957934751426740450e+00
1.764803857539597898e+00
1.764803857539597898e+00
1.764803857539597898e+00
1.654737998596148563e+00
1.654737998596148563e+00
2.034999603259376677e+00
2.034999603259376677e+00
2.072125736259041062e+00
2.072125736259041062e+00
2.065375530259102366e+00
2.065375530259102366e+00
2.146565507980590315e+00
2.146565507980590315e+00
2.268631733146153184e+00
2.268631733146153184e+00
2.410948576311533031e+00
2.410948576311533031e+00
2.607454573198645154e+00
2.607454573198645154e+00
2.607454573198645154e+00
2.800022949919125814e+00
2.800022949919125814e+00
2.717145420697653080e+00
2.717145420697653080e+00
2.587016449476607249e+00
2.587016449476607249e+00
2.514826746421705117e+00
2.514826746421705117e+00
2.434574297311319135e+00
2.434574297311319135e+00
2.245568529313028083e+00
2.245568529313028083e+00
2.191941892757957699e+00
2.191941892757957699e+00
2.586078920865504838e+00
2.586078920865504838e+00
2.586078920865504838e+00
2.332571184423352761e+00
2.332571184423352761e+00
2.197567064424573946e+00
2.197567064424573946e+00
2.228318002868740155e+00
2.228318002868740155e+00
2.291694936979278285e+00
2.291694936979278285e+00
2.334071230201117064e+00
2.334071230201117064e+00
2.290944914090395912e+00
2.290944914090395912e+00
2.419386333811456957e+00
2.419386333811456957e+00
2.251193700979644330e+00
2.251193700979644330e+00
2.251193700979644330e+00
2.172441297647023095e+00
2.172441297647023095e+00
2.116752098147526517e+00
2.116752098147526517e+00
2.081126010925626435e+00
2.081126010925626435e+00
1.977060335093234089e+00
1.977060335093234089e+00
2.195879512924588717e+00
2.195879512924588717e+00
2.428949125644703777e+00
2.428949125644703777e+00
2.207879879146702695e+00
2.207879879146702695e+00
2.293194982757042144e+00
2.293194982757042144e+00
2.293194982757042144e+00
2.372134891811884305e+00
2.372134891811884305e+00
2.308570451979125249e+00
2.308570451979125249e+00
2.307820429090243319e+00
2.307820429090243319e+00
2.326383495590075512e+00
2.326383495590075512e+00
2.411698599200414961e+00
2.411698599200414961e+00
2.318320749534592551e+00
2.318320749534592551e+00
2.290569902645954947e+00
2.290569902645954947e+00
2.285507248146000592e+00
2.285507248146000592e+00
2.285507248146000592e+00
2.255131321146275347e+00
2.255131321146275347e+00
2.192691915646840073e+00
2.192691915646840073e+00
2.459887569811090469e+00
2.459887569811090469e+00
2.353759331034272151e+00
2.353759331034272151e+00
2.100626606036561483e+00
2.100626606036561483e+00
1.941059236426893042e+00
1.941059236426893042e+00
1.824430677205725271e+00
1.824430677205725271e+00
1.794617267372661473e+00
1.794617267372661473e+00
1.794617267372661473e+00
1.916120975371562896e+00
1.916120975371562896e+00
2.082438550981169811e+00
2.082438550981169811e+00
2.146940519425031280e+00
2.146940519425031280e+00
2.171691274758141166e+00
2.171691274758141166e+00
2.337071321756645670e+00
2.337071321756645670e+00
2.580078737754448071e+00
2.580078737754448071e+00
2.624892605365154008e+00
2.624892605365154008e+00
2.575953611865596571e+00
2.575953611865596571e+00
2.575953611865596571e+00
2.873150181585131246e+00
2.873150181585131246e+00
2.631455305642872666e+00
2.631455305642872666e+00
2.411698599200414961e+00
2.411698599200414961e+00
2.309882992034669069e+00
2.309882992034669069e+00
2.238443311868648422e+00
2.238443311868648422e+00
2.185566698202459968e+00
2.185566698202459968e+00
2.187254249702444309e+00
2.187254249702444309e+00
2.298070131534776017e+00
2.298070131534776017e+00
2.209942442091128445e+00
2.209942442091128445e+00
2.152190679647205673e+00
2.152190679647205673e+00
2.152190679647205673e+00
2.011373882259590129e+00
2.011373882259590129e+00
1.881807428205206412e+00
1.881807428205206412e+00
1.871119602038636476e+00
1.871119602038636476e+00
1.999748527481917781e+00
1.999748527481917781e+00
2.424073976866969904e+00
2.424073976866969904e+00
2.395948118533890892e+00
2.395948118533890892e+00
2.390510452589495571e+00
2.390510452589495571e+00
2.364072145756401344e+00
2.364072145756401344e+00
2.368572283089693808e+00
2.368572283089693808e+00
2.379822626422925413e+00
2.379822626422925413e+00
2.379822626422925413e+00
2.330321115756706529e+00
2.330321115756706529e+00
2.457637501144443792e+00
2.457637501144443792e+00
2.327321024201178368e+00
2.327321024201178368e+00
2.287194799645985377e+00
2.287194799645985377e+00
2.307070406201360946e+00
2.307070406201360946e+00
2.290757408368175430e+00
2.290757408368175430e+00
1.937121616260262025e+00
1.937121616260262025e+00
1.861181798760948691e+00
1.861181798760948691e+00
1.861181798760948691e+00
1.963372417371135548e+00
1.963372417371135548e+00
1.733865413373210762e+00
1.733865413373210762e+00
1.810180242316965282e+00
1.810180242316965282e+00
1.931496444593646222e+00
1.931496444593646222e+00
2.021874202703940249e+00
2.021874202703940249e+00
2.146378002258369833e+00
2.146378002258369833e+00
2.335946287423322332e+00
2.335946287423322332e+00
2.367447248756370914e+00
2.367447248756370914e+00
2.367447248756370914e+00
2.475263039033173573e+00
2.475263039033173573e+00
2.849899472029786107e+00
2.849899472029786107e+00
3.103219702749717701e+00
3.103219702749717701e+00
3.040780297250282427e+00
3.040780297250282427e+00
2.771897091586047246e+00
2.771897091586047246e+00
2.771522080141606281e+00
2.771522080141606281e+00
2.571453474532304107e+00
2.571453474532304107e+00
2.571453474532304107e+00
2.324320932645649762e+00
2.324320932645649762e+00
2.148815576647236547e+00
2.148815576647236547e+00
1.961497360148930280e+00
1.961497360148930280e+00
1.820118045594653289e+00
1.820118045594653289e+00
1.903183080538346506e+00
1.903183080538346506e+00
2.048500015259254514e+00
2.048500015259254514e+00
1.951559556871242496e+00
1.951559556871242496e+00
1.796304818872646480e+00
1.796304818872646480e+00
1.849743949705496382e+00
1.849743949705496382e+00
1.849743949705496382e+00
2.068375621814630971e+00
2.068375621814630971e+00
2.085438642536698417e+00
2.085438642536698417e+00
2.149003082369457029e+00
2.149003082369457029e+00
2.558515579699087716e+00
2.558515579699087716e+00
2.411136082033753514e+00
2.411136082033753514e+00
2.427636585589159957e+00
2.427636585589159957e+00
2.422386425366985119e+00
2.422386425366985119e+00
2.411886104922635443e+00
2.411886104922635443e+00
2.411886104922635443e+00
2.372322397534104788e+00
2.372322397534104788e+00
2.257381389812921579e+00
2.257381389812921579e+00
2.345134067812128187e+00
2.345134067812128187e+00
2.089001251258888470e+00
2.089001251258888470e+00
2.018686605426191161e+00
2.018686605426191161e+00
1.971435163426618287e+00
1.971435163426618287e+00
1.940871730704672338e+00
1.940871730704672338e+00
2.087501205481124167e+00
2.087501205481124167e+00
2.087501205481124167e+00
2.612517227698599065e+00
2.612517227698599065e+00
3.058780846583452728e+00
3.058780846583452728e+00
2.758959196752830856e+00
2.758959196752830856e+00
2.528889675588243957e+00
2.528889675588243957e+00
2.470762901699881109e+00
2.470762901699881109e+00
2.363509628589739453e+00
2.363509628589739453e+00
2.330133610034486047e+00
2.330133610034486047e+00
2.302570268868068482e+00
2.302570268868068482e+00
2.302570268868068482e+00
2.152190679647205673e+00
2.152190679647205673e+00
1.940309213538010891e+00
1.940309213538010891e+00
2.170378734702597345e+00
2.170378734702597345e+00
2.343821527756584366e+00
2.343821527756584366e+00
2.309320474868007622e+00
2.309320474868007622e+00
2.180879055146946577e+00
2.180879055146946577e+00
2.309507980590228104e+00
2.309507980590228104e+00
2.255881344035157721e+00
2.255881344035157721e+00
2.255881344035157721e+00
2.278194524979400004e+00
2.278194524979400004e+00
2.328071047090059853e+00
2.328071047090059853e+00
2.129502487258521981e+00
2.129502487258521981e+00
1.953809625537888728e+00
1.953809625537888728e+00
1.956434705648976147e+00
1.956434705648976147e+00
2.015311502426221590e+00
2.015311502426221590e+00
1.925683767204809937e+00
1.925683767204809937e+00
1.841493697927793161e+00
1.841493697927793161e+00
2.002186101870784718e+00
2.002186101870784718e+00
2.228880520035401602e+00
2.228880520035401602e+00
2.298257637256996500e+00
2.298257637256996500e+00
2.298257637256996500e+00
2.269944273201696561e+00
2.269944273201696561e+00
2.893775811029389189e+00
2.893775811029389189e+00
2.957152745139927319e+00
2.957152745139927319e+00
2.819523545030060863e+00
2.819523545030060863e+00
2.485575853755302767e+00
2.485575853755302767e+00
2.352071779534287366e+00
2.352071779534287366e+00
2.228505508590960638e+00
2.228505508590960638e+00
2.203754753257850751e+00
2.203754753257850751e+00
2.203754753257850751e+00
2.385635303811762142e+00
2.385635303811762142e+00
2.396323129978331856e+00
2.396323129978331856e+00
2.372697408978545752e+00
2.372697408978545752e+00
2.367447248756370914e+00
2.367447248756370914e+00
2.464950224311044824e+00
2.464950224311044824e+00
2.252881252479629115e+00
2.252881252479629115e+00
1.998060975981932996e+00
1.998060975981932996e+00
2.156878322702719064e+00
2.156878322702719064e+00
2.156878322702719064e+00
1.719989989928891960e+00
1.719989989928891960e+00
1.672551042207098604e+00
1.672551042207098604e+00
1.896995391705069034e+00
1.896995391705069034e+00
2.338008850367748082e+00
2.338008850367748082e+00
2.401573290200506694e+00
2.401573290200506694e+00
2.334446241645558029e+00
2.334446241645558029e+00
2.679456770531327248e+00
2.679456770531327248e+00
2.753334025086214609e+00
2.753334025086214609e+00
2.753334025086214609e+00
2.738333567308572469e+00
2.738333567308572469e+00
2.580078737754448071e+00
2.580078737754448071e+00
2.431386700033570492e+00
2.431386700033570492e+00
2.149565599536118921e+00
2.149565599536118921e+00
2.148815576647236547e+00
2.148815576647236547e+00
2.194566972869045340e+00
2.194566972869045340e+00
2.096688985869930022e+00
2.096688985869930022e+00
2.077563402203436382e+00
2.077563402203436382e+00
1.924183721427045635e+00
1.924183721427045635e+00
1.726365184484389914e+00
1.726365184484389914e+00
1.550859828485976699e+00
1.550859828485976699e+00
1.550859828485976699e+00
1.405167882320627504e+00
1.405167882320627504e+00
1.495170628986480343e+00
1.495170628986480343e+00
1.760303720206305211e+00
1.760303720206305211e+00
1.979685415204321286e+00
1.979685415204321286e+00
2.295820062868129341e+00
2.295820062868129341e+00
2.581203772087771409e+00
2.581203772087771409e+00
2.697082308420057029e+00
2.697082308420057029e+00
3.006466750083926165e+00
3.006466750083926165e+00
3.006466750083926165e+00
2.691832148197881747e+00
2.691832148197881747e+00
2.311570543534653854e+00
2.311570543534653854e+00
2.082063539536728847e+00
2.082063539536728847e+00
1.985498092593157793e+00
1.985498092593157793e+00
2.167378643147068740e+00
2.167378643147068740e+00
2.567140842921231680e+00
2.567140842921231680e+00
2.738708578753013434e+00
2.738708578753013434e+00
2.419573839533677440e+00
2.419573839533677440e+00
2.419573839533677440e+00
2.096876491592150504e+00
2.096876491592150504e+00
2.037812189092684800e+00
2.037812189092684800e+00
2.021311685537278358e+00
2.021311685537278358e+00
1.946684408093508845e+00
1.946684408093508845e+00
2.012498916592913467e+00
2.012498916592913467e+00
2.668581438642536607e+00
2.668581438642536607e+00
2.813148350474562687e+00
2.813148350474562687e+00
3.200160161137730164e+00
3.200160161137730164e+00
3.200160161137730164e+00
3.467168309579760077e+00
3.467168309579760077e+00
3.502044373912778230e+00
3.502044373912778230e+00
3.217035676137577571e+00
3.217035676137577571e+00
2.774147160252693034e+00
2.774147160252693034e+00
2.498513748588519157e+00
2.498513748588519157e+00
2.280257087923826198e+00
2.280257087923826198e+00
2.016249031037324002e+00
2.016249031037324002e+00
1.535296853541673112e+00
1.535296853541673112e+00
1.535296853541673112e+00
1.344228522598956310e+00
1.344228522598956310e+00
1.116784081545457497e+00
1.116784081545457497e+00
1.315727652821436333e+00
1.315727652821436333e+00
1.802492507705923730e+00
1.802492507705923730e+00
1.867181981872005458e+00
1.867181981872005458e+00
2.150690633869442259e+00
2.150690633869442259e+00
2.379822626422925413e+00
2.379822626422925413e+00
2.541265053254798900e+00
2.541265053254798900e+00
2.526264595477157204e+00
2.526264595477157204e+00
2.526264595477157204e+00
2.607829584643086118e+00
2.607829584643086118e+00
2.490638508255257122e+00
2.490638508255257122e+00
2.336321298867763296e+00
2.336321298867763296e+00
2.469825373088778253e+00
2.469825373088778253e+00
2.669706472975859946e+00
2.669706472975859946e+00
2.613454756309701921e+00
2.613454756309701921e+00
2.153315713980529011e+00
2.153315713980529011e+00
1.970872646259956840e+00
1.970872646259956840e+00
1.905995666371654407e+00
1.905995666371654407e+00
1.905995666371654407e+00
1.844306283761101062e+00
1.844306283761101062e+00
2.117689626758628929e+00
2.117689626758628929e+00
2.302195257423627517e+00
2.302195257423627517e+00
2.725208166753136041e+00
2.725208166753136041e+00
2.985091097750785849e+00
2.985091097750785849e+00
2.921151646473586272e+00
2.921151646473586272e+00
2.264506607257301685e+00
2.264506607257301685e+00
1.798929898983733677e+00
1.798929898983733677e+00
1.541672048097171066e+00
1.541672048097171066e+00
1.541672048097171066e+00
1.509796075319681297e+00
1.509796075319681297e+00
1.591173558763390172e+00
1.591173558763390172e+00
1.910870815149388058e+00
1.910870815149388058e+00
2.851774529251991375e+00
2.851774529251991375e+00
3.089906796472060346e+00
3.089906796472060346e+00
3.278725058748130472e+00
3.278725058748130472e+00
3.086531693472090776e+00
3.086531693472090776e+00
2.586641438032166285e+00
2.586641438032166285e+00
2.586641438032166285e+00
2.031061983092746104e+00
2.031061983092746104e+00
1.883307473982970714e+00
1.883307473982970714e+00
2.034812097537156195e+00
2.034812097537156195e+00
1.910308297982726611e+00
1.910308297982726611e+00
2.013436445204016323e+00
2.013436445204016323e+00
2.316070680867946319e+00
2.316070680867946319e+00
2.557953062532425825e+00
2.557953062532425825e+00
2.366134708700827094e+00
2.366134708700827094e+00
2.366134708700827094e+00
2.469450361644337288e+00
2.469450361644337288e+00
2.832836451307718217e+00
2.832836451307718217e+00
2.277444502090518075e+00
2.277444502090518075e+00
1.776429212317270467e+00
1.776429212317270467e+00
1.510358592486342966e+00
1.510358592486342966e+00
1.339165868099002177e+00
1.339165868099002177e+00
1.393542527542954712e+00
1.393542527542954712e+00
1.517858821375164036e+00
1.517858821375164036e+00
1.517858821375164036e+00
2.240693380535294654e+00
2.240693380535294654e+00
2.852149540696432339e+00
2.852149540696432339e+00
3.108469862971892539e+00
3.108469862971892539e+00
3.212535538804284663e+00
3.212535538804284663e+00
3.036842677083651409e+00
3.036842677083651409e+00
2.581203772087771409e+00
2.581203772087771409e+00
2.378885097811823002e+00
2.378885097811823002e+00
2.301820245979186552e+00
2.301820245979186552e+00
2.301820245979186552e+00
2.044937406537064906e+00
2.044937406537064906e+00
2.028436902981658463e+00
2.028436902981658463e+00
1.859119235816522719e+00
1.859119235816522719e+00
1.578610675374614747e+00
1.578610675374614747e+00
1.692989165929136064e+00
1.692989165929136064e+00
1.987935666982024729e+00
1.987935666982024729e+00
2.398760704367198571e+00
2.398760704367198571e+00
2.805085604419080170e+00
2.805085604419080170e+00
2.805085604419080170e+00
3.044905423139133926e+00
3.044905423139133926e+00
3.115407574694051718e+00
3.115407574694051718e+00
2.965215491195409836e+00
2.965215491195409836e+00
2.692769676808984602e+00
2.692769676808984602e+00
2.772272103030488211e+00
2.772272103030488211e+00
2.342883999145481511e+00
2.342883999145481511e+00
1.813742851039155335e+00
1.813742851039155335e+00
1.587798455763420602e+00
1.587798455763420602e+00
1.587798455763420602e+00
1.510733603930783930e+00
1.510733603930783930e+00
1.755241065706351078e+00
1.755241065706351078e+00
2.045312417981505870e+00
2.045312417981505870e+00
2.511451643421735547e+00
2.511451643421735547e+00
2.697269814142277511e+00
2.697269814142277511e+00
2.806585650196844473e+00
2.806585650196844473e+00
2.527389629810480098e+00
2.527389629810480098e+00
2.282882168034912951e+00
2.282882168034912951e+00
2.282882168034912951e+00
2.058062807092501334e+00
2.058062807092501334e+00
2.116002075258644588e+00
2.116002075258644588e+00
2.608954618976409012e+00
2.608954618976409012e+00
2.554202948088015290e+00
2.554202948088015290e+00
2.425949034089175171e+00
2.425949034089175171e+00
2.066125553147984295e+00
2.066125553147984295e+00
1.868307016205328575e+00
1.868307016205328575e+00
1.869619556260872173e+00
1.869619556260872173e+00
1.869619556260872173e+00
1.809617725150303613e+00
1.809617725150303613e+00
2.063125461592455689e+00
2.063125461592455689e+00
2.214442579424420909e+00
2.214442579424420909e+00
2.440574480422376347e+00
2.440574480422376347e+00
2.536764915921506436e+00
2.536764915921506436e+00
2.429324137089144742e+00
2.429324137089144742e+00
1.987560655537583543e+00
1.987560655537583543e+00
1.930558915982543589e+00
1.930558915982543589e+00
1.995998413037507468e+00
1.995998413037507468e+00
1.995998413037507468e+00
1.675363628040406505e+00
1.675363628040406505e+00
1.613299233985412195e+00
1.613299233985412195e+00
1.910683309427167575e+00
1.910683309427167575e+00
2.522701986754967152e+00
2.522701986754967152e+00
2.907651234473708435e+00
2.907651234473708435e+00
2.986403637806329670e+00
2.986403637806329670e+00
2.791585192419202333e+00
2.791585192419202333e+00
2.405323404644917229e+00
2.405323404644917229e+00
2.405323404644917229e+00
2.362197088534196077e+00
2.362197088534196077e+00
2.424073976866969904e+00
2.424073976866969904e+00
2.416198736533707869e+00
2.416198736533707869e+00
2.307070406201360946e+00
2.307070406201360946e+00
2.491388531144139051e+00
2.491388531144139051e+00
2.670456495864741875e+00
2.670456495864741875e+00
2.472825464644306859e+00
2.472825464644306859e+00
2.407760979033784388e+00
2.407760979033784388e+00
2.407760979033784388e+00
2.476763084810937876e+00
2.476763084810937876e+00
2.613642262031922403e+00
2.613642262031922403e+00
2.604266975920896066e+00
2.604266975920896066e+00
2.470387890255439700e+00
2.470387890255439700e+00
2.295632557145908859e+00
2.295632557145908859e+00
2.082251045258949329e+00
2.082251045258949329e+00
1.905433149204992960e+00
1.905433149204992960e+00
1.929996398815881919e+00
1.929996398815881919e+00
1.929996398815881919e+00
1.940496719260231373e+00
1.940496719260231373e+00
2.034062074648274265e+00
2.034062074648274265e+00
2.550827845088045720e+00
2.550827845088045720e+00
2.374384960478530537e+00
2.374384960478530537e+00
2.245756035035248566e+00
2.245756035035248566e+00
2.167003631702627775e+00
2.167003631702627775e+00
2.092376354258858040e+00
2.092376354258858040e+00
2.001623584704122827e+00
2.001623584704122827e+00
1.962434888760032914e+00
1.962434888760032914e+00
1.962434888760032914e+00
2.074188299203466812e+00
2.074188299203466812e+00
1.888932645649586517e+00
1.888932645649586517e+00
1.854619098483230255e+00
1.854619098483230255e+00
1.928308847315897134e+00
1.928308847315897134e+00
2.016436536759544484e+00
2.016436536759544484e+00
1.933746513260292454e+00
1.933746513260292454e+00
2.173566331980346433e+00
2.173566331980346433e+00
2.720145512253181685e+00
2.720145512253181685e+00
2.720145512253181685e+00
2.493451094088564801e+00
2.493451094088564801e+00
2.366134708700827094e+00
2.366134708700827094e+00
2.221567796868801015e+00
2.221567796868801015e+00
1.841868709372234347e+00
1.841868709372234347e+00
1.733865413373210762e+00
1.733865413373210762e+00
1.795179784539323142e+00
1.795179784539323142e+00
2.114127018036439321e+00
2.114127018036439321e+00
2.423136448255867048e+00
2.423136448255867048e+00
2.993716360972930257e+00
2.993716360972930257e+00
2.993716360972930257e+00
3.387853389080477395e+00
3.387853389080477395e+00
3.326539017914365015e+00
3.326539017914365015e+00
2.971215674306467047e+00
2.971215674306467047e+00
2.795335306863612868e+00
2.795335306863612868e+00
2.782397412030396477e+00
2.782397412030396477e+00
2.447137180700094561e+00
2.447137180700094561e+00
2.374384960478530537e+00
2.374384960478530537e+00
2.374384960478530537e+00
2.329758598590044638e+00
2.329758598590044638e+00
2.283444685201574842e+00
2.283444685201574842e+00
2.227567979979857782e+00
2.227567979979857782e+00
2.194566972869045340e+00
2.194566972869045340e+00
2.092751365703299449e+00
2.092751365703299449e+00
1.915933469649342413e+00
1.915933469649342413e+00
1.973497726371044036e+00
1.973497726371044036e+00
2.169441206091494490e+00
2.169441206091494490e+00
2.228693014313181120e+00
2.228693014313181120e+00
2.228693014313181120e+00
2.146378002258369833e+00
2.146378002258369833e+00
2.351696768089846401e+00
2.351696768089846401e+00
2.290757408368175430e+00
2.290757408368175430e+00
2.244255989257484707e+00
2.244255989257484707e+00
2.233568163090914993e+00
2.233568163090914993e+00
2.157253334147160473e+00
2.157253334147160473e+00
2.013061433759574914e+00
2.013061433759574914e+00
1.877119785149693465e+00
1.877119785149693465e+00
1.828555803094576770e+00
1.828555803094576770e+00
1.828555803094576770e+00
1.754678548539689409e+00
1.754678548539689409e+00
1.626049623096408103e+00
1.626049623096408103e+00
1.640112552262947387e+00
1.640112552262947387e+00
1.954184636982329915e+00
1.954184636982329915e+00
2.109439374980925930e+00
2.109439374980925930e+00
2.293757499923703591e+00
2.293757499923703591e+00
3.042842860194707733e+00
3.042842860194707733e+00
3.088969267860957935e+00
3.088969267860957935e+00
3.058030823694570799e+00
3.058030823694570799e+00
3.058030823694570799e+00
2.898838465529343544e+00
2.898838465529343544e+00
2.685644459364604497e+00
2.685644459364604497e+00
2.565265785699026413e+00
2.565265785699026413e+00
2.384135258033997840e+00
2.384135258033997840e+00
2.374947477645191540e+00
2.374947477645191540e+00
2.025999328592791304e+00
2.025999328592791304e+00
1.847681386761070632e+00
1.847681386761070632e+00
1.880682393871883296e+00
1.880682393871883296e+00
2.097814020203253360e+00
2.097814020203253360e+00
2.097814020203253360e+00
2.245756035035248566e+00
2.245756035035248566e+00
2.432324228644673347e+00
2.432324228644673347e+00
2.656581072420422629e+00
2.656581072420422629e+00
2.306132877590258534e+00
2.306132877590258534e+00
2.153878231147190458e+00
2.153878231147190458e+00
2.102314157536546269e+00
2.102314157536546269e+00
2.073438276314584883e+00
2.073438276314584883e+00
2.073438276314584883e+00
2.315508163701284872e+00
2.315508163701284872e+00
2.450137272255623166e+00
2.450137272255623166e+00
2.404760887478255782e+00
2.404760887478255782e+00
2.193441938535722002e+00
2.193441938535722002e+00
2.063312967314676172e+00
2.063312967314676172e+00
1.948559465315714112e+00
1.948559465315714112e+00
1.911245826593829245e+00
1.911245826593829245e+00
1.930933927426984553e+00
1.930933927426984553e+00
2.206192327646717910e+00
2.206192327646717910e+00
2.261694021423993561e+00
2.261694021423993561e+00
2.261694021423993561e+00
2.152378185369426600e+00
2.152378185369426600e+00
2.212567522202215642e+00
2.212567522202215642e+00
2.251193700979644330e+00
2.251193700979644330e+00
2.217067659535508550e+00
2.217067659535508550e+00
2.371759880367442896e+00
2.371759880367442896e+00
2.382260200811792572e+00
2.382260200811792572e+00
2.216692648091067142e+00
2.216692648091067142e+00
2.151440656758324188e+00
2.151440656758324188e+00
2.151440656758324188e+00
2.322258369701224012e+00
2.322258369701224012e+00
2.667831415753654234e+00
2.667831415753654234e+00
2.903901120029297456e+00
2.903901120029297456e+00
2.859462263863032927e+00
2.859462263863032927e+00
3.072093752861110527e+00
3.072093752861110527e+00
2.746583819086275913e+00
2.746583819086275913e+00
2.481825739310891787e+00
2.481825739310891787e+00
2.333508713034455617e+00
2.333508713034455617e+00
2.333508713034455617e+00
2.241068391979735619e+00
2.241068391979735619e+00
2.190441846980193397e+00
2.190441846980193397e+00
2.175628894924771739e+00
2.175628894924771739e+00
2.274256904812768987e+00
2.274256904812768987e+00
2.083376079592272667e+00
2.083376079592272667e+00
2.028624408703878945e+00
2.028624408703878945e+00
2.004811181981871915e+00
2.004811181981871915e+00
2.035749626148258606e+00
2.035749626148258606e+00
2.035749626148258606e+00
1.913120883816034512e+00
1.913120883816034512e+00
2.064438001647999510e+00
2.064438001647999510e+00
2.461012604144413807e+00
2.461012604144413807e+00
2.190629352702413879e+00
2.190629352702413879e+00
2.125939878536332373e+00
2.125939878536332373e+00
2.244255989257484707e+00
2.244255989257484707e+00
2.357509445478682686e+00
2.357509445478682686e+00
2.338571367534409973e+00
2.338571367534409973e+00
2.338571367534409973e+00
2.343446516312143402e+00
2.343446516312143402e+00
2.495326151310770069e+00
2.495326151310770069e+00
2.293569994201483109e+00
2.293569994201483109e+00
2.254943815424054865e+00
2.254943815424054865e+00
2.127814935758537640e+00
2.127814935758537640e+00
2.013061433759574914e+00
2.013061433759574914e+00
1.788617084261604706e+00
1.788617084261604706e+00
1.930933927426984553e+00
1.930933927426984553e+00
1.930933927426984553e+00
2.116189580980865070e+00
2.116189580980865070e+00
2.022249214148381213e+00
2.022249214148381213e+00
2.194754478591265823e+00
2.194754478591265823e+00
2.310070497756889552e+00
2.310070497756889552e+00
2.321883358256782603e+00
2.321883358256782603e+00
2.331258644367808941e+00
2.331258644367808941e+00
2.492138554033020981e+00
2.492138554033020981e+00
2.713770317697683954e+00
2.713770317697683954e+00
2.537702444532609292e+00
2.537702444532609292e+00
2.422386425366985119e+00
2.422386425366985119e+00
2.422386425366985119e+00
2.402323313089388623e+00
2.402323313089388623e+00
2.234130680257575996e+00
2.234130680257575996e+00
2.063500473036897098e+00
2.063500473036897098e+00
2.428199102755821404e+00
2.428199102755821404e+00
2.512014160588396994e+00
2.512014160588396994e+00
2.512201666310617476e+00
2.512201666310617476e+00
2.505076448866237371e+00
2.505076448866237371e+00
2.478825647755364070e+00
2.478825647755364070e+00
2.478825647755364070e+00
2.410948576311533031e+00
2.410948576311533031e+00
2.249693655201880027e+00
2.249693655201880027e+00
2.253443769646290562e+00
2.253443769646290562e+00
2.161940977202673420e+00
2.161940977202673420e+00
2.125002349925229961e+00
2.125002349925229961e+00
2.098939054536576698e+00
2.098939054536576698e+00
2.164753563035981099e+00
2.164753563035981099e+00
2.064625507370219992e+00
2.064625507370219992e+00
2.067250587481307633e+00
2.067250587481307633e+00
2.067250587481307633e+00
2.483513290810876573e+00
2.483513290810876573e+00
2.235443220313119816e+00
2.235443220313119816e+00
2.151253151036103706e+00
2.151253151036103706e+00
2.233193151646474028e+00
2.233193151646474028e+00
2.233005645924253102e+00
2.233005645924253102e+00
2.247256080813012868e+00
2.247256080813012868e+00
2.238443311868648422e+00
2.238443311868648422e+00
2.238443311868648422e+00
2.436261848811303921e+00
2.436261848811303921e+00
2.301257728812525105e+00
2.301257728812525105e+00
2.240318369090853690e+00
2.240318369090853690e+00
2.172253791924802613e+00
2.172253791924802613e+00
2.174691366313669327e+00
2.174691366313669327e+00
1.992248298593096711e+00
1.992248298593096711e+00
2.104376720480972018e+00
2.104376720480972018e+00
2.401010773033844803e+00
2.401010773033844803e+00
2.401010773033844803e+00
2.249693655201880027e+00
2.249693655201880027e+00
2.252881252479629115e+00
2.252881252479629115e+00
2.198504593035676358e+00
2.198504593035676358e+00
2.131002533036286284e+00
2.131002533036286284e+00
2.233380657368694511e+00
2.233380657368694511e+00
2.462325144199957183e+00
2.462325144199957183e+00
2.629955259865108363e+00
2.629955259865108363e+00
2.311570543534653854e+00
2.311570543534653854e+00
2.193629444257942485e+00
2.193629444257942485e+00
2.193629444257942485e+00
2.230568071535386387e+00
2.230568071535386387e+00
2.258881435590685438e+00
2.258881435590685438e+00
2.114127018036439321e+00
2.114127018036439321e+00
2.380760155034028269e+00
2.380760155034028269e+00
2.509201574755088870e+00
2.509201574755088870e+00
2.386010315256203107e+00
2.386010315256203107e+00
2.387135349589526001e+00
2.387135349589526001e+00
2.356009399700918827e+00
2.356009399700918827e+00
2.356009399700918827e+00
2.257006378368480615e+00
2.257006378368480615e+00
2.200004638813440216e+00
2.200004638813440216e+00
2.224567888424329176e+00
2.224567888424329176e+00
2.074750816370128703e+00
2.074750816370128703e+00
1.952497085482345129e+00
1.952497085482345129e+00
1.994873378704184130e+00
1.994873378704184130e+00
2.154065736869411385e+00
2.154065736869411385e+00
2.263381572923978347e+00
2.263381572923978347e+00
2.263381572923978347e+00
2.363509628589739453e+00
2.363509628589739453e+00
2.822148625141148059e+00
2.822148625141148059e+00
2.752021485030671233e+00
2.752021485030671233e+00
2.554015442365794808e+00
2.554015442365794808e+00
2.390135441145054607e+00
2.390135441145054607e+00
2.251568712424085295e+00
2.251568712424085295e+00
2.191191869869075770e+00
2.191191869869075770e+00
2.092376354258858040e+00
2.092376354258858040e+00
2.092376354258858040e+00
2.178253975035859380e+00
2.178253975035859380e+00
2.091251319925535146e+00
2.091251319925535146e+00
2.080563493758964988e+00
2.080563493758964988e+00
2.030686971648304695e+00
2.030686971648304695e+00
1.943121799371318792e+00
1.943121799371318792e+00
1.707239600817896052e+00
1.707239600817896052e+00
1.887432599871822214e+00
1.887432599871822214e+00
2.534139835810419239e+00
2.534139835810419239e+00
2.534139835810419239e+00
2.551202856532486685e+00
2.551202856532486685e+00
2.676269173253578604e+00
2.676269173253578604e+00
2.674206610309152410e+00
2.674206610309152410e+00
2.591704092532120640e+00
2.591704092532120640e+00
2.472075441755424485e+00
2.472075441755424485e+00
2.412636127811517817e+00
2.412636127811517817e+00
2.490638508255257122e+00
2.490638508255257122e+00
2.375134983367412023e+00
2.375134983367412023e+00
2.375134983367412023e+00
2.471887936033204003e+00
2.471887936033204003e+00
2.495888668477431516e+00
2.495888668477431516e+00
2.396323129978331856e+00
2.396323129978331856e+00
2.131752555925168657e+00
2.131752555925168657e+00
2.240505874813074172e+00
2.240505874813074172e+00
2.374384960478530537e+00
2.374384960478530537e+00
2.137377727591784460e+00
2.137377727591784460e+00
2.158378368480483367e+00
2.158378368480483367e+00
2.098939054536576698e+00
2.098939054536576698e+00
2.044562395092623941e+00
2.044562395092623941e+00
2.045124912259285388e+00
2.045124912259285388e+00
2.045124912259285388e+00
2.056562761314737475e+00
2.056562761314737475e+00
2.082438550981169811e+00
2.082438550981169811e+00
1.975935300759910973e+00
1.975935300759910973e+00
2.062187932981353278e+00
2.062187932981353278e+00
2.169441206091494490e+00
2.169441206091494490e+00
2.184816675313578038e+00
2.184816675313578038e+00
2.211254982146671821e+00
2.211254982146671821e+00
2.578203680532242803e+00
2.578203680532242803e+00
2.578203680532242803e+00
2.601641895809808869e+00
2.601641895809808869e+00
2.529264687032685366e+00
2.529264687032685366e+00
2.454074892422254184e+00
2.454074892422254184e+00
2.308945463423566213e+00
2.308945463423566213e+00
2.186129215369121415e+00
2.186129215369121415e+00
2.113939512314218838e+00
2.113939512314218838e+00
2.197004547257912055e+00
2.197004547257912055e+00
2.082626056703390294e+00
2.082626056703390294e+00
2.082626056703390294e+00
1.932808984649189599e+00
1.932808984649189599e+00
1.938996673482467070e+00
1.938996673482467070e+00
2.151065645313883223e+00
2.151065645313883223e+00
2.179941526535844165e+00
2.179941526535844165e+00
2.284757225257118218e+00
2.284757225257118218e+00
2.817460982085635113e+00
2.817460982085635113e+00
2.707020111697744813e+00
2.707020111697744813e+00
2.565078279976805931e+00
2.565078279976805931e+00
2.565078279976805931e+00
2.493076082644123392e+00
2.493076082644123392e+00
2.406260933256020085e+00
2.406260933256020085e+00
2.367072237311929506e+00
2.367072237311929506e+00
2.365197180089724238e+00
2.365197180089724238e+00
2.479388164922025517e+00
2.479388164922025517e+00
2.276506973479415219e+00
2.276506973479415219e+00
2.232255623035371173e+00
2.232255623035371173e+00
2.213130039368877089e+00
2.213130039368877089e+00
2.246131046479689974e+00
2.246131046479689974e+00
2.246131046479689974e+00
2.139815301980651618e+00
2.139815301980651618e+00
2.305195348979155678e+00
2.305195348979155678e+00
2.548202764976958523e+00
2.548202764976958523e+00
2.298632648701437464e+00
2.298632648701437464e+00
2.249131138035218136e+00
2.249131138035218136e+00
2.201129673146763555e+00
2.201129673146763555e+00
2.223630359813226764e+00
2.223630359813226764e+00
2.220255256813257638e+00
2.220255256813257638e+00
2.220255256813257638e+00
2.199254615924558287e+00
2.199254615924558287e+00
2.225505417035432032e+00
2.225505417035432032e+00
2.055062715536973172e+00
2.055062715536973172e+00
2.059562852870265637e+00
2.059562852870265637e+00
2.067438093203528116e+00
2.067438093203528116e+00
1.991873287148655747e+00
1.991873287148655747e+00
1.861556810205389434e+00
1.861556810205389434e+00
2.091251319925535146e+00
2.091251319925535146e+00
2.091251319925535146e+00
2.200567155980101663e+00
2.200567155980101663e+00
2.076063356425672080e+00
2.076063356425672080e+00
2.215567613757744247e+00
2.215567613757744247e+00
2.360509537034211291e+00
2.360509537034211291e+00
2.491013519699698087e+00
2.491013519699698087e+00
2.591704092532120640e+00
2.591704092532120640e+00
2.692394665364543638e+00
2.692394665364543638e+00
2.675144138920255266e+00
2.675144138920255266e+00
2.675144138920255266e+00
2.551577867976928093e+00
2.551577867976928093e+00
2.492888576921902910e+00
2.492888576921902910e+00
2.445074617755668811e+00
2.445074617755668811e+00
2.260943998535111632e+00
2.260943998535111632e+00
2.120877224036378017e+00
2.120877224036378017e+00
2.472262947477644968e+00
2.472262947477644968e+00
2.284944730979339145e+00
2.284944730979339145e+00
2.064250495925779028e+00
2.064250495925779028e+00
2.064250495925779028e+00
2.003498641926328094e+00
2.003498641926328094e+00
1.977060335093234089e+00
1.977060335093234089e+00
1.966372508926664153e+00
1.966372508926664153e+00
1.999373516037476817e+00
1.999373516037476817e+00
2.192504409924619146e+00
2.192504409924619146e+00
2.091626331369976111e+00
2.091626331369976111e+00
2.141315347758415477e+00
2.141315347758415477e+00
2.319633289590136371e+00
2.319633289590136371e+00
2.409261024811548246e+00
2.409261024811548246e+00
2.301257728812525105e+00
2.301257728812525105e+00
2.301257728812525105e+00
2.429699148533585706e+00
2.429699148533585706e+00
2.862837366863002497e+00
2.862837366863002497e+00
2.685269447920163532e+00
2.685269447920163532e+00
2.535077364421521651e+00
2.535077364421521651e+00
2.434199285866878171e+00
2.434199285866878171e+00
2.383947752311777357e+00
2.383947752311777357e+00
2.347009125034333454e+00
2.347009125034333454e+00
2.307070406201360946e+00
2.307070406201360946e+00
2.307070406201360946e+00
2.379447614978484449e+00
2.379447614978484449e+00
2.128564958647419569e+00
2.128564958647419569e+00
2.037812189092684800e+00
2.037812189092684800e+00
2.025249305703909375e+00
2.025249305703909375e+00
2.035749626148258606e+00
2.035749626148258606e+00
1.890620197149571302e+00
1.890620197149571302e+00
2.042312326425977265e+00
2.042312326425977265e+00
2.214630085146641392e+00
2.214630085146641392e+00
2.087126194036683202e+00
2.087126194036683202e+00
2.087126194036683202e+00
2.163253517258217240e+00
2.163253517258217240e+00
2.181629078035828950e+00
2.181629078035828950e+00
2.213880062257759462e+00
2.213880062257759462e+00
2.301632740256966070e+00
2.301632740256966070e+00
2.493638599810785283e+00
2.493638599810785283e+00
2.688082033753471656e+00
2.688082033753471656e+00
2.600329355754265048e+00
2.600329355754265048e+00
2.512014160588396994e+00
2.512014160588396994e+00
2.512014160588396994e+00
2.466637775811029609e+00
2.466637775811029609e+00
2.340258919034394314e+00
2.340258919034394314e+00
2.177503952146977007e+00
2.177503952146977007e+00
2.453512375255592737e+00
2.453512375255592737e+00
2.395948118533890892e+00
2.395948118533890892e+00
2.199067110202337361e+00
2.199067110202337361e+00
2.177316446424756524e+00
2.177316446424756524e+00
2.141690359202856442e+00
2.141690359202856442e+00
2.141690359202856442e+00
2.112064455092013571e+00
2.112064455092013571e+00
2.140565324869533104e+00
2.140565324869533104e+00
2.268819238868374111e+00
2.268819238868374111e+00
2.200004638813440216e+00
2.200004638813440216e+00
2.112064455092013571e+00
2.112064455092013571e+00
2.144315439313944083e+00
2.144315439313944083e+00
2.243130954924161813e+00
2.243130954924161813e+00
2.158940885647145258e+00
2.158940885647145258e+00
2.158940885647145258e+00
2.144502945036164565e+00
2.144502945036164565e+00
2.550265327921384717e+00
2.550265327921384717e+00
2.390885464033936536e+00
2.390885464033936536e+00
2.339508896145511940e+00
2.339508896145511940e+00
2.317570726645710621e+00
2.317570726645710621e+00
2.318883266701254442e+00
2.318883266701254442e+00
2.376260017700735361e+00
2.376260017700735361e+00
2.368759788811914291e+00
2.368759788811914291e+00
2.368759788811914291e+00
2.489700979644154266e+00
2.489700979644154266e+00
2.349446699423200169e+00
2.349446699423200169e+00
2.283257179479354360e+00
2.283257179479354360e+00
2.225692922757652514e+00
2.225692922757652514e+00
2.226817957090975852e+00
2.226817957090975852e+00
2.042687337870418673e+00
2.042687337870418673e+00
2.144502945036164565e+00
2.144502945036164565e+00
2.446574663533433114e+00
2.446574663533433114e+00
2.250818689535202921e+00
2.250818689535202921e+00
2.250818689535202921e+00
2.215005096591082356e+00
2.215005096591082356e+00
2.211254982146671821e+00
2.211254982146671821e+00
2.191379375591296252e+00
2.191379375591296252e+00
2.227755485702078264e+00
2.227755485702078264e+00
2.279132053590502860e+00
2.279132053590502860e+00
2.399510727256080500e+00
2.399510727256080500e+00
2.265631641590625023e+00
2.265631641590625023e+00
2.282319650868251504e+00
2.282319650868251504e+00
2.282319650868251504e+00
2.274444410534989469e+00
2.274444410534989469e+00
2.216505142368846659e+00
2.216505142368846659e+00
2.099876583147679110e+00
2.099876583147679110e+00
2.345134067812128187e+00
2.345134067812128187e+00
2.421823908200323228e+00
2.421823908200323228e+00
2.262256538590655452e+00
2.262256538590655452e+00
2.288507339701529197e+00
2.288507339701529197e+00
2.291132419812616394e+00
2.291132419812616394e+00
2.291132419812616394e+00
2.291132419812616394e+00
2.291132419812616394e+00
2.320570818201239227e+00
2.320570818201239227e+00
2.370634846034120002e+00
2.370634846034120002e+00
2.313445600756859122e+00
2.313445600756859122e+00
2.155003265480513797e+00
2.155003265480513797e+00
2.108501846369823074e+00
2.108501846369823074e+00
2.126877407147435228e+00
2.126877407147435228e+00
2.058062807092501334e+00
2.058062807092501334e+00
2.011561387981810611e+00
2.011561387981810611e+00
2.011561387981810611e+00
2.416386242255928352e+00
2.416386242255928352e+00
2.360884548478652700e+00
2.360884548478652700e+00
2.335946287423322332e+00
2.335946287423322332e+00
2.372509903256325270e+00
2.372509903256325270e+00
2.312320566423536228e+00
2.312320566423536228e+00
2.241630909146397510e+00
2.241630909146397510e+00
2.205442304757835537e+00
2.205442304757835537e+00
2.314195623645741495e+00
2.314195623645741495e+00
2.314195623645741495e+00
2.205817316202276945e+00
2.205817316202276945e+00
2.145440473647266977e+00
2.145440473647266977e+00
2.154815759758293314e+00
2.154815759758293314e+00
2.307257911923581428e+00
2.307257911923581428e+00
2.279882076479384789e+00
2.279882076479384789e+00
2.371009857478560967e+00
2.371009857478560967e+00
2.723708120975371738e+00
2.723708120975371738e+00
2.439074434644612044e+00
2.439074434644612044e+00
2.439074434644612044e+00
2.369697317423017147e+00
2.369697317423017147e+00
2.351321756645405436e+00
2.351321756645405436e+00
2.340633930478835278e+00
2.340633930478835278e+00
2.318133243812372069e+00
2.318133243812372069e+00
2.291694936979278285e+00
2.291694936979278285e+00
2.398760704367198571e+00
2.398760704367198571e+00
2.231130588702047834e+00
2.231130588702047834e+00
2.212380016479995160e+00
2.212380016479995160e+00
2.212380016479995160e+00
2.229630542924283532e+00
2.229630542924283532e+00
2.227755485702078264e+00
2.227755485702078264e+00
2.046249946592608282e+00
2.046249946592608282e+00
2.209567430646687480e+00
2.209567430646687480e+00
2.405135898922696747e+00
2.405135898922696747e+00
2.182004089480269915e+00
2.182004089480269915e+00
2.161565965758232455e+00
2.161565965758232455e+00
2.146940519425031280e+00
2.146940519425031280e+00
2.146940519425031280e+00
2.160253425702688634e+00
2.160253425702688634e+00
2.244068483535264225e+00
2.244068483535264225e+00
2.319258278145695407e+00
2.319258278145695407e+00
2.353009308145390222e+00
2.353009308145390222e+00
2.214630085146641392e+00
2.214630085146641392e+00
2.194191961424603932e+00
2.194191961424603932e+00
2.227567979979857782e+00
2.227567979979857782e+00
2.213692556535538980e+00
2.213692556535538980e+00
2.182004089480269915e+00
2.182004089480269915e+00
2.182004089480269915e+00
2.507514023255104085e+00
2.507514023255104085e+00
2.514451734977264152e+00
2.514451734977264152e+00
2.384510269478438804e+00
2.384510269478438804e+00
2.368947294534135217e+00
2.368947294534135217e+00
2.301445234534745587e+00
2.301445234534745587e+00
2.273694387646107540e+00
2.273694387646107540e+00
2.270881801812799416e+00
2.270881801812799416e+00
2.363509628589739453e+00
2.363509628589739453e+00
2.363509628589739453e+00
2.312133060701315301e+00
2.312133060701315301e+00
2.256256355479598685e+00
2.256256355479598685e+00
2.230005554368724940e+00
2.230005554368724940e+00
2.250818689535202921e+00
2.250818689535202921e+00
2.140002807702871657e+00
2.140002807702871657e+00
2.113564500869777874e+00
2.113564500869777874e+00
2.541827570421460791e+00
2.541827570421460791e+00
2.353759331034272151e+00
2.353759331034272151e+00
2.353759331034272151e+00
2.243693472090823260e+00
2.243693472090823260e+00
2.214067567979979945e+00
2.214067567979979945e+00
2.191941892757957699e+00
2.191941892757957699e+00
2.196067018646809643e+00
2.196067018646809643e+00
2.187816766869105756e+00
2.187816766869105756e+00
2.311945554979094819e+00
2.311945554979094819e+00
2.176753929258095077e+00
2.176753929258095077e+00
2.176753929258095077e+00
2.175441389202551257e+00
2.175441389202551257e+00
2.201692190313425002e+00
2.201692190313425002e+00
2.229630542924283532e+00
2.229630542924283532e+00
2.046812463759269729e+00
2.046812463759269729e+00
2.157253334147160473e+00
2.157253334147160473e+00
2.495888668477431516e+00
2.495888668477431516e+00
2.338008850367748082e+00
2.338008850367748082e+00
2.381322672200689716e+00
2.381322672200689716e+00
2.381322672200689716e+00
2.385635303811762142e+00
2.385635303811762142e+00
2.362197088534196077e+00
2.362197088534196077e+00
2.354134342478713116e+00
2.354134342478713116e+00
2.344384044923245813e+00
2.344384044923245813e+00
2.392948026978362286e+00
2.392948026978362286e+00
2.230193060090945423e+00
2.230193060090945423e+00
2.202629718924527857e+00
2.202629718924527857e+00
2.233568163090914993e+00
2.233568163090914993e+00
2.209754936368907963e+00
2.209754936368907963e+00
2.209754936368907963e+00
2.088626239814447505e+00
2.088626239814447505e+00
2.321133335367900674e+00
2.321133335367900674e+00
2.449387249366740793e+00
2.449387249366740793e+00
2.275006927701650916e+00
2.275006927701650916e+00
2.257943906979583026e+00
2.257943906979583026e+00
2.242943449201941331e+00
2.242943449201941331e+00
2.228505508590960638e+00
2.228505508590960638e+00
2.252881252479629115e+00
2.252881252479629115e+00
2.252881252479629115e+00
2.337071321756645670e+00
2.337071321756645670e+00
2.372884914700766235e+00
2.372884914700766235e+00
2.263006561479537382e+00
2.263006561479537382e+00
2.217255165257729033e+00
2.217255165257729033e+00
2.246506057924130939e+00
2.246506057924130939e+00
2.163628528702658205e+00
2.163628528702658205e+00
2.106064271980956359e+00
2.106064271980956359e+00
2.501138828699606353e+00
2.501138828699606353e+00
2.501138828699606353e+00
2.417698782311472172e+00
2.417698782311472172e+00
2.311008026367992407e+00
2.311008026367992407e+00
2.282694662312692468e+00
2.282694662312692468e+00
2.255131321146275347e+00
2.255131321146275347e+00
2.255318826868495830e+00
2.255318826868495830e+00
2.261694021423993561e+00
2.261694021423993561e+00
2.375885006256294396e+00
2.375885006256294396e+00
2.299757683034760802e+00
2.299757683034760802e+00
2.299757683034760802e+00
2.270131778923917043e+00
2.270131778923917043e+00
2.269381756035035114e+00
2.269381756035035114e+00
2.296382580034791232e+00
2.296382580034791232e+00
2.122377269814142320e+00
2.122377269814142320e+00
2.132315073091830104e+00
2.132315073091830104e+00
2.481638233588671305e+00
2.481638233588671305e+00
2.223067842646564873e+00
2.223067842646564873e+00
2.159690908536027187e+00
2.159690908536027187e+00
2.159690908536027187e+00
2.156690816980498582e+00
2.156690816980498582e+00
2.149378093813898438e+00
2.149378093813898438e+00
2.204692281868953607e+00
2.204692281868953607e+00
2.253068758201849597e+00
2.253068758201849597e+00
2.416573747978148834e+00
2.416573747978148834e+00
2.300695211645863214e+00
2.300695211645863214e+00
2.311195532090212890e+00
2.311195532090212890e+00
2.320195806756797818e+00
2.320195806756797818e+00
2.320195806756797818e+00
2.312508072145756710e+00
2.312508072145756710e+00
2.131190038758506766e+00
2.131190038758506766e+00
2.292819971312600735e+00
2.292819971312600735e+00
2.478825647755364070e+00
2.478825647755364070e+00
2.278757042146061895e+00
2.278757042146061895e+00
2.269756767479476078e+00
2.269756767479476078e+00
2.239755851924192243e+00
2.239755851924192243e+00
2.217817682424390480e+00
2.217817682424390480e+00
2.217817682424390480e+00
2.262631550035096417e+00
2.262631550035096417e+00
2.314008117923521013e+00
2.314008117923521013e+00
2.378135074922940628e+00
2.378135074922940628e+00
2.275944456312753772e+00
2.275944456312753772e+00
2.254193792535172935e+00
2.254193792535172935e+00
2.274256904812768987e+00
2.274256904812768987e+00
2.211629993591112786e+00
2.211629993591112786e+00
2.105689260536515395e+00
2.105689260536515395e+00
2.105689260536515395e+00
2.409448530533769173e+00
2.409448530533769173e+00
2.419386333811456957e+00
2.419386333811456957e+00
2.258693929868464956e+00
2.258693929868464956e+00
2.248006103701895242e+00
2.248006103701895242e+00
2.224755394146549659e+00
2.224755394146549659e+00
2.215005096591082356e+00
2.215005096591082356e+00
2.223067842646564873e+00
2.223067842646564873e+00
2.323008392590105942e+00
2.323008392590105942e+00
2.323008392590105942e+00
2.293382488479262626e+00
2.293382488479262626e+00
2.229630542924283532e+00
2.229630542924283532e+00
2.227005462813196335e+00
2.227005462813196335e+00
2.282882168034912951e+00
2.282882168034912951e+00
2.165878597369304437e+00
2.165878597369304437e+00
2.134752647480697263e+00
2.134752647480697263e+00
2.557578051087984861e+00
2.557578051087984861e+00
2.557578051087984861e+00
2.366509720145268059e+00
2.366509720145268059e+00
2.273881893368328022e+00
2.273881893368328022e+00
2.251568712424085295e+00
2.251568712424085295e+00
2.213692556535538980e+00
2.213692556535538980e+00
2.215755119479964730e+00
2.215755119479964730e+00
2.234693197424237443e+00
2.234693197424237443e+00
2.372134891811884305e+00
2.372134891811884305e+00
2.232068117313150690e+00
2.232068117313150690e+00
2.208442396313364142e+00
2.208442396313364142e+00
2.208442396313364142e+00
2.242380932035279439e+00
2.242380932035279439e+00
2.291882442701498768e+00
2.291882442701498768e+00
2.136252693258461566e+00
2.136252693258461566e+00
2.251756218146305777e+00
2.251756218146305777e+00
2.565265785699026413e+00
2.565265785699026413e+00
2.307445417645802355e+00
2.307445417645802355e+00
2.273506881923887057e+00
2.273506881923887057e+00
2.255318826868495830e+00
2.255318826868495830e+00
2.242005920590838475e+00
2.242005920590838475e+00
2.242005920590838475e+00
2.275944456312753772e+00
2.275944456312753772e+00
2.308570451979125249e+00
2.308570451979125249e+00
2.395760612811670409e+00
2.395760612811670409e+00
2.247631092257453833e+00
2.247631092257453833e+00
2.229630542924283532e+00
2.229630542924283532e+00
2.235068208868678852e+00
2.235068208868678852e+00
2.209754936368907963e+00
2.209754936368907963e+00
2.104001709036531054e+00
2.104001709036531054e+00
2.318695760979033516e+00
2.318695760979033516e+00
2.318695760979033516e+00
2.438136906033509188e+00
2.438136906033509188e+00
2.262631550035096417e+00
2.262631550035096417e+00
2.256818872646260132e+00
2.256818872646260132e+00
2.249318643757439062e+00
2.249318643757439062e+00
2.256818872646260132e+00
2.256818872646260132e+00
2.269569261757255596e+00
2.269569261757255596e+00
2.338383861812189490e+00
2.338383861812189490e+00
2.338383861812189490e+00
2.335383770256660885e+00
2.335383770256660885e+00
2.244443494979705633e+00
2.244443494979705633e+00
2.231880611590930208e+00
2.231880611590930208e+00
2.257193884090700653e+00
2.257193884090700653e+00
2.169066194647053525e+00
2.169066194647053525e+00
2.097626514481032878e+00
2.097626514481032878e+00
2.479013153477584552e+00
2.479013153477584552e+00
2.392573015533921321e+00
2.392573015533921321e+00
2.280632099368266719e+00
2.280632099368266719e+00
2.272006836146122755e+00
2.272006836146122755e+00
2.272006836146122755e+00
2.256631366924039650e+00
2.256631366924039650e+00
2.267506698812830290e+00
2.267506698812830290e+00
2.285882259590441556e+00
2.285882259590441556e+00
2.406823450422681532e+00
2.406823450422681532e+00
2.311383037812433372e+00
2.311383037812433372e+00
2.253631275368511044e+00
2.253631275368511044e+00
2.248381115146336207e+00
2.248381115146336207e+00
2.276694479201635701e+00
2.276694479201635701e+00
2.276694479201635701e+00
2.127439924314096675e+00
2.127439924314096675e+00
2.157253334147160473e+00
2.157253334147160473e+00
2.559640614032411055e+00
2.559640614032411055e+00
2.346634113589892490e+00
2.346634113589892490e+00
2.267131687368389326e+00
2.267131687368389326e+00
2.243505966368602778e+00
2.243505966368602778e+00
2.197754570146794428e+00
2.197754570146794428e+00
2.208442396313364142e+00
2.208442396313364142e+00
2.230568071535386387e+00
2.230568071535386387e+00
2.230568071535386387e+00
2.375697500534073914e+00
2.375697500534073914e+00
2.232443128757591655e+00
2.232443128757591655e+00
2.227005462813196335e+00
2.227005462813196335e+00
2.240505874813074172e+00
2.240505874813074172e+00
2.243130954924161813e+00
2.243130954924161813e+00
2.090501297036652772e+00
2.090501297036652772e+00
2.271444318979460864e+00
2.271444318979460864e+00
2.488013428144169481e+00
2.488013428144169481e+00
2.488013428144169481e+00
2.274819421979430434e+00
2.274819421979430434e+00
2.250443678090761956e+00
2.250443678090761956e+00
2.236568254646443155e+00
2.236568254646443155e+00
2.231318094424268317e+00
2.231318094424268317e+00
2.252693746757408633e+00
2.252693746757408633e+00
2.325445966978973100e+00
2.325445966978973100e+00
2.388260383922848895e+00
2.388260383922848895e+00
2.257943906979583026e+00
2.257943906979583026e+00
2.257943906979583026e+00
2.221567796868801015e+00
2.221567796868801015e+00
2.263756584368419311e+00
2.263756584368419311e+00
2.207879879146702695e+00
2.207879879146702695e+00
2.105126743369853504e+00
2.105126743369853504e+00
2.407198461867122496e+00
2.407198461867122496e+00
2.409636036255989211e+00
2.409636036255989211e+00
2.251193700979644330e+00
2.251193700979644330e+00
2.234318185979796478e+00
2.234318185979796478e+00
2.234318185979796478e+00
2.220255256813257638e+00
2.220255256813257638e+00
2.237505783257545566e+00
2.237505783257545566e+00
2.283257179479354360e+00
2.283257179479354360e+00
2.395948118533890892e+00
2.395948118533890892e+00
2.342321481978820064e+00
2.342321481978820064e+00
2.257943906979583026e+00
2.257943906979583026e+00
2.251193700979644330e+00
2.251193700979644330e+00
2.273881893368328022e+00
2.273881893368328022e+00
2.147503036591693171e+00
2.147503036591693171e+00
2.106439283425397324e+00
2.106439283425397324e+00
2.106439283425397324e+00
2.520826929532761884e+00
2.520826929532761884e+00
2.357509445478682686e+00
2.357509445478682686e+00
2.281382122257148648e+00
2.281382122257148648e+00
2.277632007812738557e+00
2.277632007812738557e+00
2.243505966368602778e+00
2.243505966368602778e+00
2.254756309701834383e+00
2.254756309701834383e+00
2.263194067201757864e+00
2.263194067201757864e+00
2.389385418256172233e+00
2.389385418256172233e+00
2.389385418256172233e+00
2.246693563646351421e+00
2.246693563646351421e+00
2.219692739646595747e+00
2.219692739646595747e+00
2.218755211035493335e+00
2.218755211035493335e+00
2.249881160924100509e+00
2.249881160924100509e+00
2.080750999481185470e+00
2.080750999481185470e+00
2.197567064424573946e+00
2.197567064424573946e+00
2.535264870143742133e+00
2.535264870143742133e+00
2.322445875423444495e+00
2.322445875423444495e+00
2.322445875423444495e+00
2.277444502090518075e+00
2.277444502090518075e+00
2.253068758201849597e+00
2.253068758201849597e+00
2.229068025757622085e+00
2.229068025757622085e+00
2.242193426313058957e+00
2.242193426313058957e+00
2.286444776757103448e+00
2.286444776757103448e+00
2.402510818811609106e+00
2.402510818811609106e+00
2.259818964201788294e+00
2.259818964201788294e+00
2.229818048646504014e+00
2.229818048646504014e+00
2.229818048646504014e+00
2.254943815424054865e+00
2.254943815424054865e+00
2.236380748924222672e+00
2.236380748924222672e+00
2.099689077425458628e+00
2.099689077425458628e+00
2.354134342478713116e+00
2.354134342478713116e+00
2.489138462477492819e+00
2.489138462477492819e+00
2.294507522812585520e+00
2.294507522812585520e+00
2.235818231757560781e+00
2.235818231757560781e+00
2.227192968535416817e+00
2.227192968535416817e+00
2.227192968535416817e+00
2.224005371257667729e+00
2.224005371257667729e+00
2.257943906979583026e+00
2.257943906979583026e+00
2.338946378978850937e+00
2.338946378978850937e+00
2.353759331034272151e+00
2.353759331034272151e+00
2.261506515701773079e+00
2.261506515701773079e+00
2.255318826868495830e+00
2.255318826868495830e+00
2.284569719534897736e+00
2.284569719534897736e+00
2.185379192480239485e+00
2.185379192480239485e+00
2.185379192480239485e+00
2.100814111758781966e+00
2.100814111758781966e+00
2.460637592699972398e+00
2.460637592699972398e+00
2.373259926145207199e+00
2.373259926145207199e+00
2.254006286812952009e+00
2.254006286812952009e+00
2.250443678090761956e+00
2.250443678090761956e+00
2.216692648091067142e+00
2.216692648091067142e+00
2.218755211035493335e+00
2.218755211035493335e+00
2.252506241035188150e+00
2.252506241035188150e+00
2.252506241035188150e+00
2.382635212256233537e+00
2.382635212256233537e+00
2.296195074312570750e+00
2.296195074312570750e+00
2.246506057924130939e+00
2.246506057924130939e+00
2.231130588702047834e+00
2.231130588702047834e+00
2.274631916257209951e+00
2.274631916257209951e+00
2.139815301980651618e+00
2.139815301980651618e+00
2.152190679647205673e+00
2.152190679647205673e+00
2.543140110477004168e+00
2.543140110477004168e+00
2.543140110477004168e+00
2.315883175145725836e+00
2.315883175145725836e+00
2.244818506424146598e+00
2.244818506424146598e+00
2.234505691702016961e+00
2.234505691702016961e+00
2.205817316202276945e+00
2.205817316202276945e+00
2.228693014313181120e+00
2.228693014313181120e+00
2.258881435590685438e+00
2.258881435590685438e+00
2.424073976866969904e+00
2.424073976866969904e+00
2.271256813257240381e+00
2.271256813257240381e+00
2.271256813257240381e+00
2.253256263924070080e+00
2.253256263924070080e+00
2.251381206701864812e+00
2.251381206701864812e+00
2.249881160924100509e+00
2.249881160924100509e+00
2.089938779869991325e+00
2.089938779869991325e+00
2.254193792535172935e+00
2.254193792535172935e+00
2.491388531144139051e+00
2.491388531144139051e+00
2.275944456312753772e+00
2.275944456312753772e+00
2.275944456312753772e+00
2.261506515701773079e+00
2.261506515701773079e+00
2.256631366924039650e+00
2.256631366924039650e+00
2.247256080813012868e+00
2.247256080813012868e+00
2.267319193090609808e+00
2.267319193090609808e+00
2.335196264534440402e+00
2.335196264534440402e+00
2.391072969756157018e+00
2.391072969756157018e+00
2.270694296090578934e+00
2.270694296090578934e+00
2.245193517868587563e+00
2.245193517868587563e+00
2.264881618701742649e+00
2.264881618701742649e+00
2.264881618701742649e+00
2.201504684591204519e+00
2.201504684591204519e+00
2.111689443647572162e+00
2.111689443647572162e+00
2.403260841700491479e+00
2.403260841700491479e+00
2.420323862422559369e+00
2.420323862422559369e+00
2.253256263924070080e+00
2.253256263924070080e+00
2.249506149479659545e+00
2.249506149479659545e+00
2.224005371257667729e+00
2.224005371257667729e+00
2.221942808313242423e+00
2.221942808313242423e+00
2.242005920590838475e+00
2.242005920590838475e+00
2.242005920590838475e+00
2.349821710867641578e+00
2.349821710867641578e+00
2.326758507034516477e+00
2.326758507034516477e+00
2.257943906979583026e+00
2.257943906979583026e+00
2.257381389812921579e+00
2.257381389812921579e+00
2.301632740256966070e+00
2.301632740256966070e+00
2.184066652424695665e+00
2.184066652424695665e+00
2.136252693258461566e+00
2.136252693258461566e+00
2.521389446699423331e+00
2.521389446699423331e+00
2.521389446699423331e+00
2.347946653645436310e+00
2.347946653645436310e+00
2.249131138035218136e+00
2.249131138035218136e+00
2.246131046479689974e+00
2.246131046479689974e+00
2.209942442091128445e+00
2.209942442091128445e+00
2.217442670979949515e+00
2.217442670979949515e+00
2.245006012146367080e+00
2.245006012146367080e+00
2.378322580645161111e+00
2.378322580645161111e+00
2.257193884090700653e+00
2.257193884090700653e+00
2.257193884090700653e+00
2.230380565813165905e+00
2.230380565813165905e+00
2.242380932035279439e+00
2.242380932035279439e+00
2.280257087923826198e+00
2.280257087923826198e+00
2.119377178258613714e+00
2.119377178258613714e+00
2.212567522202215642e+00
2.212567522202215642e+00
2.531327249977111116e+00
2.531327249977111116e+00
