2.389010406811731269e+00
2.321133335367900674e+00
2.321133335367900674e+00
2.321133335367900674e+00
2.308570451979125249e+00
2.308570451979125249e+00
2.308570451979125249e+00
2.312508072145756710e+00
2.312508072145756710e+00
2.312508072145756710e+00
2.294882534257026929e+00
2.294882534257026929e+00
2.294882534257026929e+00
2.294882534257026929e+00
2.308570451979125249e+00
2.308570451979125249e+00
2.308570451979125249e+00
2.374009949034089573e+00
2.374009949034089573e+00
2.374009949034089573e+00
2.332196172978911797e+00
2.332196172978911797e+00
2.332196172978911797e+00
2.332196172978911797e+00
2.267319193090609808e+00
2.267319193090609808e+00
2.267319193090609808e+00
2.225317911313211550e+00
2.225317911313211550e+00
2.225317911313211550e+00
2.225317911313211550e+00
2.219880245368816230e+00
2.219880245368816230e+00
2.219880245368816230e+00
2.150878139591662741e+00
2.150878139591662741e+00
2.150878139591662741e+00
2.097439008758812395e+00
2.097439008758812395e+00
2.097439008758812395e+00
2.097439008758812395e+00
2.397073152867214230e+00
2.397073152867214230e+00
2.397073152867214230e+00
2.359384502700888397e+00
2.359384502700888397e+00
2.359384502700888397e+00
2.305195348979155678e+00
2.305195348979155678e+00
2.305195348979155678e+00
2.305195348979155678e+00
2.316820703756828248e+00
2.316820703756828248e+00
2.316820703756828248e+00
2.314008117923521013e+00
2.314008117923521013e+00
2.314008117923521013e+00
2.293945005645924073e+00
2.293945005645924073e+00
2.293945005645924073e+00
2.293945005645924073e+00
2.293945005645924073e+00
2.293945005645924073e+00
2.293945005645924073e+00
2.371197363200781449e+00
2.371197363200781449e+00
2.371197363200781449e+00
2.371197363200781449e+00
2.284007202368236289e+00
2.284007202368236289e+00
2.284007202368236289e+00
2.241630909146397510e+00
2.241630909146397510e+00
2.241630909146397510e+00
2.198317087313455875e+00
2.198317087313455875e+00
2.198317087313455875e+00
2.198317087313455875e+00
2.211067476424451339e+00
2.211067476424451339e+00
2.211067476424451339e+00
2.109814386425366894e+00
2.109814386425366894e+00
2.109814386425366894e+00
2.187441755424664791e+00
2.187441755424664791e+00
2.187441755424664791e+00
2.411698599200414961e+00
2.411698599200414961e+00
2.411698599200414961e+00
2.325445966978973100e+00
2.325445966978973100e+00
2.325445966978973100e+00
2.291507431257057803e+00
2.291507431257057803e+00
2.291507431257057803e+00
2.321133335367900674e+00
2.321133335367900674e+00
2.321133335367900674e+00
2.321133335367900674e+00
2.315695669423505798e+00
2.315695669423505798e+00
2.315695669423505798e+00
2.313820612201300086e+00
2.313820612201300086e+00
2.313820612201300086e+00
2.343259010589922919e+00
2.343259010589922919e+00
2.343259010589922919e+00
2.343259010589922919e+00
2.377760063478499664e+00
2.377760063478499664e+00
2.377760063478499664e+00
2.279882076479384789e+00
2.279882076479384789e+00
2.279882076479384789e+00
2.240318369090853690e+00
2.240318369090853690e+00
2.240318369090853690e+00
2.240318369090853690e+00
2.213130039368877089e+00
2.213130039368877089e+00
2.213130039368877089e+00
2.195504501480147752e+00
2.195504501480147752e+00
2.195504501480147752e+00
2.094063905758842381e+00
2.094063905758842381e+00
2.094063905758842381e+00
2.094063905758842381e+00
2.274256904812768987e+00
2.274256904812768987e+00
2.274256904812768987e+00
2.391072969756157018e+00
2.391072969756157018e+00
2.391072969756157018e+00
2.327321024201178368e+00
2.327321024201178368e+00
2.327321024201178368e+00
2.312883083590197675e+00
2.312883083590197675e+00
2.312883083590197675e+00
2.312883083590197675e+00
2.312508072145756710e+00
2.312508072145756710e+00
2.312508072145756710e+00
2.299570177312540320e+00
2.299570177312540320e+00
2.299570177312540320e+00
2.301070223090304623e+00
2.301070223090304623e+00
2.301070223090304623e+00
2.301070223090304623e+00
2.363134617145298488e+00
2.363134617145298488e+00
2.363134617145298488e+00
2.348321665089877275e+00
2.348321665089877275e+00
2.348321665089877275e+00
2.258881435590685438e+00
2.258881435590685438e+00
2.258881435590685438e+00
2.258881435590685438e+00
2.212942533646656607e+00
2.212942533646656607e+00
2.212942533646656607e+00
2.211817499313333268e+00
2.211817499313333268e+00
2.211817499313333268e+00
2.163066011535996758e+00
2.163066011535996758e+00
2.163066011535996758e+00
2.163066011535996758e+00
2.077188390758995418e+00
2.077188390758995418e+00
2.077188390758995418e+00
2.368572283089693808e+00
2.368572283089693808e+00
2.368572283089693808e+00
2.374197454756310055e+00
2.374197454756310055e+00
2.374197454756310055e+00
2.374197454756310055e+00
2.322445875423444495e+00
2.322445875423444495e+00
2.322445875423444495e+00
2.325258461256752618e+00
2.325258461256752618e+00
2.325258461256752618e+00
2.314758140812402942e+00
2.314758140812402942e+00
2.314758140812402942e+00
2.314758140812402942e+00
2.292257454145939732e+00
2.292257454145939732e+00
2.292257454145939732e+00
2.304445326090273749e+00
2.304445326090273749e+00
2.304445326090273749e+00
2.304445326090273749e+00
2.375697500534073914e+00
2.375697500534073914e+00
2.375697500534073914e+00
2.311945554979094819e+00
2.311945554979094819e+00
2.311945554979094819e+00
2.262256538590655452e+00
2.262256538590655452e+00
2.262256538590655452e+00
2.262256538590655452e+00
2.211629993591112786e+00
2.211629993591112786e+00
2.211629993591112786e+00
2.216130130924405695e+00
2.216130130924405695e+00
2.216130130924405695e+00
2.120877224036378017e+00
2.120877224036378017e+00
2.120877224036378017e+00
2.120877224036378017e+00
2.135502670369579192e+00
2.135502670369579192e+00
2.135502670369579192e+00
2.417511276589251690e+00
2.417511276589251690e+00
2.417511276589251690e+00
2.353571825312051669e+00
2.353571825312051669e+00
2.353571825312051669e+00
2.353571825312051669e+00
2.301070223090304623e+00
2.301070223090304623e+00
2.301070223090304623e+00
2.305757866145817125e+00
2.305757866145817125e+00
2.305757866145817125e+00
2.289069856868190644e+00
2.289069856868190644e+00
2.289069856868190644e+00
2.289632374034852091e+00
2.289632374034852091e+00
2.289632374034852091e+00
2.289632374034852091e+00
2.326008484145634547e+00
2.326008484145634547e+00
2.326008484145634547e+00
2.394448072756126589e+00
2.394448072756126589e+00
2.394448072756126589e+00
2.394448072756126589e+00
2.293569994201483109e+00
2.293569994201483109e+00
2.293569994201483109e+00
2.249131138035218136e+00
2.249131138035218136e+00
2.249131138035218136e+00
2.207692373424482213e+00
2.207692373424482213e+00
2.207692373424482213e+00
2.207692373424482213e+00
2.209942442091128445e+00
2.209942442091128445e+00
2.209942442091128445e+00
2.106626789147617806e+00
2.106626789147617806e+00
2.106626789147617806e+00
2.233193151646474028e+00
2.233193151646474028e+00
2.233193151646474028e+00
2.233193151646474028e+00
2.414886196478164049e+00
2.414886196478164049e+00
2.414886196478164049e+00
2.330133610034486047e+00
2.330133610034486047e+00
2.330133610034486047e+00
2.294507522812585520e+00
2.294507522812585520e+00
2.294507522812585520e+00
2.294507522812585520e+00
2.305382854701376161e+00
2.305382854701376161e+00
2.305382854701376161e+00
2.290007385479293500e+00
2.290007385479293500e+00
2.290007385479293500e+00
2.283632190923795324e+00
2.283632190923795324e+00
2.283632190923795324e+00
2.283632190923795324e+00
2.324133426923429280e+00
2.324133426923429280e+00
2.324133426923429280e+00
2.326571001312295994e+00
2.326571001312295994e+00
2.326571001312295994e+00
2.250443678090761956e+00
2.250443678090761956e+00
2.250443678090761956e+00
2.250443678090761956e+00
2.216880153813287624e+00
2.216880153813287624e+00
2.216880153813287624e+00
2.221380291146580532e+00
2.221380291146580532e+00
2.221380291146580532e+00
2.204317270424512643e+00
2.204317270424512643e+00
2.204317270424512643e+00
2.204317270424512643e+00
2.101939146092104860e+00
2.101939146092104860e+00
2.101939146092104860e+00
2.335946287423322332e+00
2.335946287423322332e+00
2.335946287423322332e+00
2.400448255867183356e+00
2.400448255867183356e+00
2.400448255867183356e+00
2.400448255867183356e+00
2.323008392590105942e+00
2.323008392590105942e+00
2.323008392590105942e+00
2.320945829645680192e+00
2.320945829645680192e+00
2.320945829645680192e+00
2.336508804589983779e+00
2.336508804589983779e+00
2.336508804589983779e+00
2.336508804589983779e+00
2.315883175145725836e+00
2.315883175145725836e+00
2.315883175145725836e+00
2.314570635090182460e+00
2.314570635090182460e+00
2.314570635090182460e+00
2.372322397534104788e+00
2.372322397534104788e+00
2.372322397534104788e+00
2.372322397534104788e+00
2.323570909756767389e+00
2.323570909756767389e+00
2.323570909756767389e+00
2.265256630146183614e+00
2.265256630146183614e+00
2.265256630146183614e+00
2.265256630146183614e+00
2.224567888424329176e+00
2.224567888424329176e+00
2.224567888424329176e+00
2.221755302591021497e+00
2.221755302591021497e+00
2.221755302591021497e+00
2.136440198980682048e+00
2.136440198980682048e+00
2.136440198980682048e+00
2.136440198980682048e+00
2.085063631092257452e+00
2.085063631092257452e+00
2.085063631092257452e+00
2.387885372478407930e+00
2.387885372478407930e+00
2.387885372478407930e+00
2.347384136478774419e+00
2.347384136478774419e+00
2.347384136478774419e+00
2.347384136478774419e+00
2.279132053590502860e+00
2.279132053590502860e+00
2.279132053590502860e+00
2.284757225257118218e+00
2.284757225257118218e+00
2.284757225257118218e+00
2.296945097201452679e+00
2.296945097201452679e+00
2.296945097201452679e+00
2.296945097201452679e+00
2.302195257423627517e+00
2.302195257423627517e+00
2.302195257423627517e+00
2.334446241645558029e+00
2.334446241645558029e+00
2.334446241645558029e+00
2.412448622089296890e+00
2.412448622089296890e+00
2.412448622089296890e+00
2.412448622089296890e+00
2.307632923368022837e+00
2.307632923368022837e+00
2.307632923368022837e+00
2.267881710257271255e+00
2.267881710257271255e+00
2.267881710257271255e+00
2.267881710257271255e+00
2.224380382702108694e+00
2.224380382702108694e+00
2.224380382702108694e+00
2.225317911313211550e+00
2.225317911313211550e+00
2.225317911313211550e+00
2.111876949369793088e+00
2.111876949369793088e+00
2.111876949369793088e+00
2.111876949369793088e+00
2.182566606646931362e+00
2.182566606646931362e+00
2.182566606646931362e+00
2.408886013367107282e+00
2.408886013367107282e+00
2.408886013367107282e+00
2.332383678701132279e+00
2.332383678701132279e+00
2.332383678701132279e+00
2.295445051423688376e+00
2.295445051423688376e+00
2.295445051423688376e+00
2.295445051423688376e+00
2.308757957701345731e+00
2.308757957701345731e+00
2.308757957701345731e+00
2.297320108645893644e+00
2.297320108645893644e+00
2.297320108645893644e+00
2.291132419812616394e+00
2.291132419812616394e+00
2.291132419812616394e+00
2.291132419812616394e+00
2.320945829645680192e+00
2.320945829645680192e+00
2.320945829645680192e+00
2.362947111423078006e+00
2.362947111423078006e+00
2.362947111423078006e+00
2.276506973479415219e+00
2.276506973479415219e+00
2.276506973479415219e+00
2.276506973479415219e+00
2.242380932035279439e+00
2.242380932035279439e+00
2.242380932035279439e+00
2.216692648091067142e+00
2.216692648091067142e+00
2.216692648091067142e+00
2.196254524369030126e+00
2.196254524369030126e+00
2.196254524369030126e+00
2.196254524369030126e+00
2.094063905758842381e+00
2.094063905758842381e+00
2.094063905758842381e+00
2.287569811090426342e+00
2.287569811090426342e+00
2.287569811090426342e+00
2.394823084200567997e+00
2.394823084200567997e+00
2.394823084200567997e+00
2.394823084200567997e+00
2.311570543534653854e+00
2.311570543534653854e+00
2.311570543534653854e+00
2.295070039979247412e+00
2.295070039979247412e+00
2.295070039979247412e+00
2.295070039979247412e+00
2.309695486312448587e+00
2.309695486312448587e+00
2.309695486312448587e+00
2.298445142979216982e+00
2.298445142979216982e+00
2.298445142979216982e+00
2.299382671590319838e+00
2.299382671590319838e+00
2.299382671590319838e+00
2.299382671590319838e+00
2.348884182256538722e+00
2.348884182256538722e+00
2.348884182256538722e+00
2.331821161534470832e+00
2.331821161534470832e+00
2.331821161534470832e+00
2.262631550035096417e+00
2.262631550035096417e+00
2.262631550035096417e+00
2.262631550035096417e+00
2.222505325479903426e+00
2.222505325479903426e+00
2.222505325479903426e+00
2.218380199591051927e+00
2.218380199591051927e+00
2.218380199591051927e+00
2.167941160313730187e+00
2.167941160313730187e+00
2.167941160313730187e+00
2.167941160313730187e+00
2.086563676870021755e+00
2.086563676870021755e+00
2.086563676870021755e+00
2.375134983367412023e+00
2.375134983367412023e+00
2.375134983367412023e+00
2.370634846034120002e+00
2.370634846034120002e+00
2.370634846034120002e+00
2.370634846034120002e+00
2.318508255256813033e+00
2.318508255256813033e+00
2.318508255256813033e+00
2.333133701590014208e+00
2.333133701590014208e+00
2.333133701590014208e+00
2.330133610034486047e+00
2.330133610034486047e+00
2.330133610034486047e+00
2.330133610034486047e+00
2.305757866145817125e+00
2.305757866145817125e+00
2.305757866145817125e+00
2.308945463423566213e+00
2.308945463423566213e+00
2.308945463423566213e+00
2.379447614978484449e+00
2.379447614978484449e+00
2.379447614978484449e+00
2.379447614978484449e+00
2.300882717368083696e+00
2.300882717368083696e+00
2.300882717368083696e+00
2.253818781090731527e+00
2.253818781090731527e+00
2.253818781090731527e+00
2.207317361980041248e+00
2.207317361980041248e+00
2.207317361980041248e+00
2.207317361980041248e+00
2.217442670979949515e+00
2.217442670979949515e+00
2.217442670979949515e+00
2.129689992980742907e+00
2.129689992980742907e+00
2.129689992980742907e+00
2.147690542313913653e+00
2.147690542313913653e+00
2.147690542313913653e+00
2.147690542313913653e+00
2.410948576311533031e+00
2.410948576311533031e+00
2.410948576311533031e+00
2.344009033478804849e+00
2.344009033478804849e+00
2.344009033478804849e+00
2.344009033478804849e+00
2.317195715201269657e+00
2.317195715201269657e+00
2.317195715201269657e+00
2.320008301034577336e+00
2.320008301034577336e+00
2.320008301034577336e+00
2.298257637256996500e+00
2.298257637256996500e+00
2.298257637256996500e+00
2.298257637256996500e+00
2.282882168034912951e+00
2.282882168034912951e+00
2.282882168034912951e+00
2.306132877590258534e+00
2.306132877590258534e+00
2.306132877590258534e+00
2.371197363200781449e+00
2.371197363200781449e+00
2.371197363200781449e+00
2.371197363200781449e+00
2.272194341868343237e+00
2.272194341868343237e+00
2.272194341868343237e+00
2.234693197424237443e+00
2.234693197424237443e+00
2.234693197424237443e+00
2.201504684591204519e+00
2.201504684591204519e+00
2.201504684591204519e+00
2.201504684591204519e+00
2.200567155980101663e+00
2.200567155980101663e+00
2.200567155980101663e+00
2.094063905758842381e+00
2.094063905758842381e+00
2.094063905758842381e+00
2.094063905758842381e+00
2.231130588702047834e+00
2.231130588702047834e+00
2.231130588702047834e+00
2.410198553422650658e+00
2.410198553422650658e+00
2.410198553422650658e+00
2.329758598590044638e+00
2.329758598590044638e+00
2.329758598590044638e+00
2.329758598590044638e+00
2.311008026367992407e+00
2.311008026367992407e+00
2.311008026367992407e+00
2.332383678701132279e+00
2.332383678701132279e+00
2.332383678701132279e+00
2.326195989867855030e+00
2.326195989867855030e+00
2.326195989867855030e+00
2.326195989867855030e+00
2.326946012756737403e+00
2.326946012756737403e+00
2.326946012756737403e+00
2.376447523422955843e+00
2.376447523422955843e+00
2.376447523422955843e+00
2.373259926145207199e+00
2.373259926145207199e+00
2.373259926145207199e+00
2.373259926145207199e+00
2.288132328257088233e+00
2.288132328257088233e+00
2.288132328257088233e+00
2.242568437757499922e+00
2.242568437757499922e+00
2.242568437757499922e+00
2.226442945646534444e+00
2.226442945646534444e+00
2.226442945646534444e+00
2.226442945646534444e+00
2.195129490035706787e+00
2.195129490035706787e+00
2.195129490035706787e+00
2.097251503036591469e+00
2.097251503036591469e+00
2.097251503036591469e+00
2.345134067812128187e+00
2.345134067812128187e+00
2.345134067812128187e+00
2.345134067812128187e+00
2.390135441145054607e+00
2.390135441145054607e+00
2.390135441145054607e+00
2.318695760979033516e+00
2.318695760979033516e+00
2.318695760979033516e+00
2.309320474868007622e+00
2.309320474868007622e+00
2.309320474868007622e+00
2.309320474868007622e+00
2.305382854701376161e+00
2.305382854701376161e+00
2.305382854701376161e+00
2.288694845423749680e+00
2.288694845423749680e+00
2.288694845423749680e+00
2.288694845423749680e+00
2.296757591479232197e+00
2.296757591479232197e+00
2.296757591479232197e+00
2.354321848200934042e+00
2.354321848200934042e+00
2.354321848200934042e+00
2.308570451979125249e+00
2.308570451979125249e+00
2.308570451979125249e+00
2.308570451979125249e+00
2.247068575090792386e+00
2.247068575090792386e+00
2.247068575090792386e+00
2.197567064424573946e+00
2.197567064424573946e+00
2.197567064424573946e+00
2.197004547257912055e+00
2.197004547257912055e+00
2.197004547257912055e+00
2.197004547257912055e+00
2.124252327036347587e+00
2.124252327036347587e+00
2.124252327036347587e+00
2.086938688314462720e+00
2.086938688314462720e+00
2.086938688314462720e+00
2.382822717978454019e+00
2.382822717978454019e+00
2.382822717978454019e+00
2.382822717978454019e+00
2.344196539201025331e+00
2.344196539201025331e+00
2.298257637256996500e+00
2.298257637256996500e+00
2.298257637256996500e+00
2.298257637256996500e+00
2.307445417645802355e+00
2.307445417645802355e+00
2.307445417645802355e+00
2.309132969145787140e+00
2.309132969145787140e+00
2.309132969145787140e+00
2.309132969145787140e+00
2.306507889034699499e+00
2.306507889034699499e+00
2.306507889034699499e+00
2.323758415478988315e+00
2.323758415478988315e+00
2.323758415478988315e+00
2.400073244422742391e+00
2.400073244422742391e+00
2.400073244422742391e+00
2.400073244422742391e+00
2.302757774590289408e+00
2.302757774590289408e+00
2.302757774590289408e+00
2.259631458479567812e+00
2.259631458479567812e+00
2.259631458479567812e+00
2.213317545091097571e+00
2.213317545091097571e+00
2.213317545091097571e+00
2.213317545091097571e+00
2.216505142368846659e+00
2.216505142368846659e+00
2.216505142368846659e+00
2.106439283425397324e+00
2.106439283425397324e+00
2.106439283425397324e+00
2.188941801202429094e+00
2.188941801202429094e+00
2.188941801202429094e+00
2.188941801202429094e+00
2.412448622089296890e+00
2.412448622089296890e+00
2.412448622089296890e+00
2.333133701590014208e+00
2.333133701590014208e+00
2.333133701590014208e+00
2.302382763145847999e+00
2.302382763145847999e+00
2.302382763145847999e+00
2.302382763145847999e+00
2.322258369701224012e+00
2.322258369701224012e+00
2.322258369701224012e+00
2.312133060701315301e+00
2.312133060701315301e+00
2.312133060701315301e+00
2.296382580034791232e+00
2.296382580034791232e+00
2.296382580034791232e+00
2.296382580034791232e+00
2.316070680867946319e+00
2.316070680867946319e+00
2.316070680867946319e+00
2.345509079256569152e+00
2.345509079256569152e+00
2.345509079256569152e+00
2.265631641590625023e+00
2.265631641590625023e+00
2.265631641590625023e+00
2.265631641590625023e+00
2.234130680257575996e+00
2.234130680257575996e+00
2.234130680257575996e+00
2.217067659535508550e+00
2.217067659535508550e+00
2.217067659535508550e+00
2.217067659535508550e+00
2.193816949980162967e+00
2.193816949980162967e+00
2.193816949980162967e+00
2.078500930814539238e+00
2.078500930814539238e+00
2.078500930814539238e+00
2.277256996368297592e+00
2.277256996368297592e+00
2.277256996368297592e+00
2.277256996368297592e+00
2.383947752311777357e+00
2.383947752311777357e+00
2.383947752311777357e+00
2.304445326090273749e+00
2.304445326090273749e+00
2.304445326090273749e+00
2.288132328257088233e+00
2.288132328257088233e+00
2.288132328257088233e+00
2.288132328257088233e+00
2.309320474868007622e+00
2.309320474868007622e+00
2.309320474868007622e+00
2.301820245979186552e+00
2.301820245979186552e+00
2.301820245979186552e+00
2.302945280312509890e+00
2.302945280312509890e+00
2.302945280312509890e+00
2.302945280312509890e+00
2.359384502700888397e+00
2.359384502700888397e+00
2.359384502700888397e+00
2.347946653645436310e+00
2.347946653645436310e+00
2.347946653645436310e+00
2.278382030701620931e+00
2.278382030701620931e+00
2.278382030701620931e+00
2.226067934202093479e+00
2.226067934202093479e+00
2.226067934202093479e+00
2.226067934202093479e+00
2.227192968535416817e+00
2.227192968535416817e+00
2.227192968535416817e+00
2.173378826258125951e+00
2.173378826258125951e+00
2.173378826258125951e+00
2.087876216925565576e+00
2.087876216925565576e+00
2.087876216925565576e+00
2.087876216925565576e+00
2.376447523422955843e+00
2.376447523422955843e+00
2.376447523422955843e+00
2.371384868923001932e+00
2.371384868923001932e+00
2.371384868923001932e+00
2.308195440534684284e+00
2.308195440534684284e+00
2.308195440534684284e+00
2.308195440534684284e+00
2.317195715201269657e+00
2.317195715201269657e+00
2.317195715201269657e+00
2.326571001312295994e+00
2.326571001312295994e+00
2.326571001312295994e+00
2.310445509201330516e+00
2.310445509201330516e+00
2.310445509201330516e+00
2.310445509201330516e+00
2.317195715201269657e+00
2.317195715201269657e+00
2.317195715201269657e+00
2.381135166478469234e+00
2.381135166478469234e+00
2.381135166478469234e+00
2.305195348979155678e+00
2.305195348979155678e+00
2.305195348979155678e+00
2.305195348979155678e+00
2.258693929868464956e+00
2.258693929868464956e+00
2.258693929868464956e+00
2.212005005035553751e+00
2.212005005035553751e+00
2.212005005035553751e+00
2.212005005035553751e+00
2.221192785424360050e+00
2.221192785424360050e+00
2.221192785424360050e+00
2.125939878536332373e+00
2.125939878536332373e+00
2.125939878536332373e+00
2.146753013702810797e+00
2.146753013702810797e+00
2.146753013702810797e+00
2.146753013702810797e+00
2.410573564867091623e+00
2.410573564867091623e+00
2.410573564867091623e+00
2.341946470534379099e+00
2.341946470534379099e+00
2.341946470534379099e+00
2.293569994201483109e+00
2.293569994201483109e+00
2.293569994201483109e+00
2.293569994201483109e+00
2.302757774590289408e+00
2.302757774590289408e+00
2.302757774590289408e+00
2.286819788201544412e+00
2.286819788201544412e+00
2.286819788201544412e+00
2.266381664479506952e+00
2.266381664479506952e+00
2.266381664479506952e+00
2.266381664479506952e+00
2.295632557145908859e+00
2.295632557145908859e+00
2.295632557145908859e+00
2.371197363200781449e+00
2.371197363200781449e+00
2.371197363200781449e+00
2.294132511368144556e+00
2.294132511368144556e+00
2.294132511368144556e+00
2.294132511368144556e+00
2.272756859035004684e+00
2.272756859035004684e+00
2.272756859035004684e+00
2.238443311868648422e+00
2.238443311868648422e+00
2.238443311868648422e+00
2.238443311868648422e+00
2.229443037202063049e+00
2.229443037202063049e+00
2.229443037202063049e+00
2.114127018036439321e+00
2.114127018036439321e+00
2.114127018036439321e+00
2.249506149479659545e+00
2.249506149479659545e+00
2.249506149479659545e+00
2.249506149479659545e+00
2.409448530533769173e+00
2.409448530533769173e+00
2.409448530533769173e+00
2.324883449812311209e+00
2.324883449812311209e+00
2.324883449812311209e+00
2.296757591479232197e+00
2.296757591479232197e+00
2.296757591479232197e+00
2.296757591479232197e+00
2.315320657979064389e+00
2.315320657979064389e+00
2.315320657979064389e+00
2.303507797479171337e+00
2.303507797479171337e+00
2.303507797479171337e+00
2.296007568590349823e+00
2.296007568590349823e+00
2.296007568590349823e+00
2.296007568590349823e+00
2.346821619312112972e+00
2.346821619312112972e+00
2.346821619312112972e+00
2.345696584978789634e+00
2.345696584978789634e+00
2.345696584978789634e+00
2.264319101535081202e+00
2.264319101535081202e+00
2.264319101535081202e+00
2.264319101535081202e+00
2.221942808313242423e+00
2.221942808313242423e+00
2.221942808313242423e+00
2.211629993591112786e+00
2.211629993591112786e+00
2.211629993591112786e+00
2.176753929258095077e+00
2.176753929258095077e+00
2.176753929258095077e+00
2.176753929258095077e+00
2.077938413647877791e+00
2.077938413647877791e+00
2.077938413647877791e+00
2.327133518478957885e+00
2.327133518478957885e+00
2.327133518478957885e+00
2.365197180089724238e+00
2.365197180089724238e+00
2.365197180089724238e+00
2.365197180089724238e+00
2.308382946256904766e+00
2.308382946256904766e+00
2.308382946256904766e+00
2.312883083590197675e+00
2.312883083590197675e+00
2.312883083590197675e+00
2.314758140812402942e+00
2.314758140812402942e+00
2.314758140812402942e+00
2.314758140812402942e+00
2.292444959868159771e+00
2.292444959868159771e+00
2.292444959868159771e+00
2.303132786034730373e+00
2.303132786034730373e+00
2.303132786034730373e+00
2.371197363200781449e+00
2.371197363200781449e+00
2.371197363200781449e+00
2.371197363200781449e+00
2.320758323923459709e+00
2.320758323923459709e+00
2.320758323923459709e+00
2.267694204535050773e+00
2.267694204535050773e+00
2.267694204535050773e+00
2.228693014313181120e+00
2.228693014313181120e+00
2.228693014313181120e+00
2.228693014313181120e+00
2.226630451368755370e+00
2.226630451368755370e+00
2.226630451368755370e+00
2.145627979369487459e+00
2.145627979369487459e+00
2.145627979369487459e+00
2.113939512314218838e+00
2.113939512314218838e+00
2.113939512314218838e+00
2.113939512314218838e+00
2.404760887478255782e+00
2.404760887478255782e+00
2.404760887478255782e+00
2.356571916867580274e+00
2.356571916867580274e+00
2.356571916867580274e+00
2.301632740256966070e+00
2.301632740256966070e+00
2.301632740256966070e+00
2.301632740256966070e+00
2.314008117923521013e+00
2.314008117923521013e+00
2.314008117923521013e+00
2.301070223090304623e+00
2.301070223090304623e+00
2.301070223090304623e+00
2.301070223090304623e+00
2.287944822534867306e+00
2.287944822534867306e+00
2.287944822534867306e+00
2.301257728812525105e+00
2.301257728812525105e+00
2.301257728812525105e+00
2.386010315256203107e+00
2.386010315256203107e+00
2.386010315256203107e+00
2.386010315256203107e+00
2.293945005645924073e+00
2.293945005645924073e+00
2.293945005645924073e+00
2.246693563646351421e+00
2.246693563646351421e+00
2.246693563646351421e+00
2.202629718924527857e+00
2.202629718924527857e+00
2.202629718924527857e+00
2.202629718924527857e+00
2.208629902035584625e+00
2.208629902035584625e+00
2.208629902035584625e+00
2.098001525925473842e+00
2.098001525925473842e+00
2.098001525925473842e+00
2.197379558702353020e+00
2.197379558702353020e+00
2.197379558702353020e+00
2.197379558702353020e+00
2.425761528366954689e+00
2.425761528366954689e+00
2.425761528366954689e+00
2.348321665089877275e+00
2.348321665089877275e+00
2.348321665089877275e+00
2.316633198034607766e+00
2.316633198034607766e+00
2.316633198034607766e+00
2.316633198034607766e+00
2.327133518478957885e+00
2.327133518478957885e+00
2.327133518478957885e+00
2.312133060701315301e+00
2.312133060701315301e+00
2.312133060701315301e+00
2.295445051423688376e+00
2.295445051423688376e+00
2.295445051423688376e+00
2.295445051423688376e+00
2.332571184423352761e+00
2.332571184423352761e+00
2.332571184423352761e+00
2.366697225867488541e+00
2.366697225867488541e+00
2.366697225867488541e+00
2.275194433423871843e+00
2.275194433423871843e+00
2.275194433423871843e+00
2.275194433423871843e+00
2.230943082979827352e+00
2.230943082979827352e+00
2.230943082979827352e+00
2.200567155980101663e+00
2.200567155980101663e+00
2.200567155980101663e+00
2.175816400646992221e+00
2.175816400646992221e+00
2.175816400646992221e+00
2.175816400646992221e+00
2.082813562425611220e+00
2.082813562425611220e+00
2.082813562425611220e+00
2.293945005645924073e+00
2.293945005645924073e+00
2.293945005645924073e+00
2.396698141422773265e+00
2.396698141422773265e+00
2.396698141422773265e+00
2.396698141422773265e+00
2.330133610034486047e+00
2.330133610034486047e+00
2.330133610034486047e+00
2.316633198034607766e+00
2.316633198034607766e+00
2.316633198034607766e+00
2.317758232367931104e+00
2.317758232367931104e+00
2.317758232367931104e+00
2.317758232367931104e+00
2.297132602923673161e+00
2.297132602923673161e+00
2.297132602923673161e+00
2.308570451979125249e+00
2.308570451979125249e+00
2.308570451979125249e+00
2.367447248756370914e+00
2.367447248756370914e+00
2.367447248756370914e+00
2.367447248756370914e+00
2.338383861812189490e+00
2.338383861812189490e+00
2.338383861812189490e+00
2.266194158757286470e+00
2.266194158757286470e+00
2.266194158757286470e+00
2.215005096591082356e+00
2.215005096591082356e+00
2.215005096591082356e+00
2.215005096591082356e+00
2.204879787591174090e+00
2.204879787591174090e+00
2.204879787591174090e+00
2.155565782647175688e+00
2.155565782647175688e+00
2.155565782647175688e+00
2.089563768425550361e+00
2.089563768425550361e+00
2.089563768425550361e+00
2.089563768425550361e+00
2.388822901089510786e+00
2.388822901089510786e+00
2.388822901089510786e+00
2.375134983367412023e+00
2.375134983367412023e+00
2.375134983367412023e+00
2.320945829645680192e+00
2.320945829645680192e+00
2.320945829645680192e+00
2.320945829645680192e+00
2.327133518478957885e+00
2.327133518478957885e+00
2.327133518478957885e+00
2.323758415478988315e+00
2.323758415478988315e+00
2.323758415478988315e+00
2.323758415478988315e+00
2.308007934812463802e+00
2.308007934812463802e+00
2.308007934812463802e+00
2.317383220923490139e+00
2.317383220923490139e+00
2.317383220923490139e+00
2.387885372478407930e+00
2.387885372478407930e+00
2.387885372478407930e+00
2.387885372478407930e+00
2.297132602923673161e+00
2.297132602923673161e+00
2.297132602923673161e+00
2.242755943479720404e+00
2.242755943479720404e+00
2.242755943479720404e+00
2.203942258980071234e+00
2.203942258980071234e+00
2.203942258980071234e+00
2.203942258980071234e+00
2.218942716757713818e+00
2.218942716757713818e+00
2.218942716757713818e+00
2.121252235480818982e+00
2.121252235480818982e+00
2.121252235480818982e+00
2.143190404980620745e+00
2.143190404980620745e+00
2.143190404980620745e+00
2.143190404980620745e+00
2.397635670033875677e+00
2.397635670033875677e+00
2.397635670033875677e+00
2.334258735923337547e+00
2.334258735923337547e+00
2.334258735923337547e+00
2.300320200201422249e+00
2.300320200201422249e+00
2.300320200201422249e+00
2.300320200201422249e+00
2.318133243812372069e+00
2.318133243812372069e+00
2.318133243812372069e+00
2.303132786034730373e+00
2.303132786034730373e+00
2.303132786034730373e+00
2.291319925534837321e+00
2.291319925534837321e+00
2.291319925534837321e+00
2.291319925534837321e+00
2.323945921201208797e+00
2.323945921201208797e+00
2.323945921201208797e+00
2.381135166478469234e+00
2.381135166478469234e+00
2.381135166478469234e+00
2.381135166478469234e+00
2.277632007812738557e+00
2.277632007812738557e+00
2.277632007812738557e+00
2.238443311868648422e+00
2.238443311868648422e+00
2.238443311868648422e+00
2.217442670979949515e+00
2.217442670979949515e+00
2.217442670979949515e+00
2.217442670979949515e+00
2.215380108035523765e+00
2.215380108035523765e+00
2.215380108035523765e+00
2.101751640369884377e+00
2.101751640369884377e+00
2.101751640369884377e+00
2.243505966368602778e+00
2.243505966368602778e+00
2.243505966368602778e+00
2.243505966368602778e+00
2.399510727256080500e+00
2.399510727256080500e+00
2.399510727256080500e+00
2.316070680867946319e+00
2.316070680867946319e+00
2.316070680867946319e+00
2.290382396923734465e+00
2.290382396923734465e+00
2.290382396923734465e+00
2.290382396923734465e+00
2.309320474868007622e+00
2.309320474868007622e+00
2.309320474868007622e+00
2.310070497756889552e+00
2.310070497756889552e+00
2.310070497756889552e+00
2.314945646534623425e+00
2.314945646534623425e+00
2.314945646534623425e+00
2.314945646534623425e+00
2.363697134311959935e+00
2.363697134311959935e+00
2.363697134311959935e+00
2.359947019867549844e+00
2.359947019867549844e+00
2.359947019867549844e+00
2.271819330423901828e+00
2.271819330423901828e+00
2.271819330423901828e+00
2.271819330423901828e+00
2.227380474257637299e+00
2.227380474257637299e+00
2.227380474257637299e+00
2.227380474257637299e+00
2.227380474257637299e+00
2.227380474257637299e+00
2.192879421369060555e+00
2.192879421369060555e+00
2.192879421369060555e+00
2.192879421369060555e+00
2.084501113925596005e+00
2.084501113925596005e+00
2.084501113925596005e+00
2.341196447645496725e+00
2.341196447645496725e+00
2.341196447645496725e+00
2.341196447645496725e+00
2.359947019867549844e+00
2.359947019867549844e+00
2.359947019867549844e+00
2.284194708090456771e+00
2.284194708090456771e+00
2.284194708090456771e+00
2.295070039979247412e+00
2.295070039979247412e+00
2.295070039979247412e+00
2.295070039979247412e+00
2.319258278145695407e+00
2.319258278145695407e+00
2.319258278145695407e+00
2.315320657979064389e+00
2.315320657979064389e+00
2.315320657979064389e+00
2.320758323923459709e+00
2.320758323923459709e+00
2.320758323923459709e+00
2.320758323923459709e+00
2.384135258033997840e+00
2.384135258033997840e+00
2.384135258033997840e+00
2.316070680867946319e+00
2.316070680867946319e+00
2.316070680867946319e+00
2.257006378368480615e+00
2.257006378368480615e+00
2.257006378368480615e+00
2.257006378368480615e+00
2.212567522202215642e+00
2.212567522202215642e+00
2.212567522202215642e+00
2.215192602313302839e+00
2.215192602313302839e+00
2.215192602313302839e+00
2.140752830591753586e+00
2.140752830591753586e+00
2.140752830591753586e+00
2.140752830591753586e+00
2.112814477980895500e+00
2.112814477980895500e+00
2.112814477980895500e+00
2.400260750144962874e+00
2.400260750144962874e+00
2.400260750144962874e+00
2.346071596423230599e+00
2.346071596423230599e+00
2.346071596423230599e+00
2.346071596423230599e+00
2.295632557145908859e+00
2.295632557145908859e+00
2.295632557145908859e+00
2.316445692312387283e+00
2.316445692312387283e+00
2.316445692312387283e+00
2.312320566423536228e+00
2.312320566423536228e+00
2.312320566423536228e+00
2.312320566423536228e+00
2.293007477034821662e+00
2.293007477034821662e+00
2.293007477034821662e+00
2.309320474868007622e+00
2.309320474868007622e+00
2.309320474868007622e+00
2.390697958311716054e+00
2.390697958311716054e+00
2.390697958311716054e+00
2.390697958311716054e+00
2.299757683034760802e+00
2.299757683034760802e+00
2.299757683034760802e+00
2.254756309701834383e+00
2.254756309701834383e+00
2.254756309701834383e+00
2.205629810480056463e+00
2.205629810480056463e+00
2.205629810480056463e+00
2.205629810480056463e+00
2.205254799035615054e+00
2.205254799035615054e+00
2.205254799035615054e+00
2.101564134647663895e+00
2.101564134647663895e+00
2.101564134647663895e+00
2.191754387035737217e+00
2.191754387035737217e+00
2.191754387035737217e+00
2.191754387035737217e+00
2.402885830256050514e+00
2.402885830256050514e+00
2.402885830256050514e+00
2.326195989867855030e+00
2.326195989867855030e+00
2.326195989867855030e+00
2.299195165868098911e+00
2.299195165868098911e+00
2.299195165868098911e+00
2.299195165868098911e+00
2.320758323923459709e+00
2.320758323923459709e+00
2.320758323923459709e+00
2.310633014923550999e+00
2.310633014923550999e+00
2.310633014923550999e+00
2.310633014923550999e+00
2.304820337534714714e+00
2.304820337534714714e+00
2.304820337534714714e+00
2.337258827478866152e+00
2.337258827478866152e+00
2.337258827478866152e+00
2.360509537034211291e+00
2.360509537034211291e+00
2.360509537034211291e+00
2.360509537034211291e+00
2.271819330423901828e+00
2.271819330423901828e+00
2.271819330423901828e+00
2.239193334757530351e+00
2.239193334757530351e+00
2.239193334757530351e+00
2.215192602313302839e+00
2.215192602313302839e+00
2.215192602313302839e+00
2.215192602313302839e+00
2.180691549424726094e+00
2.180691549424726094e+00
2.180691549424726094e+00
2.083751091036713632e+00
2.083751091036713632e+00
2.083751091036713632e+00
2.315133152256843907e+00
2.315133152256843907e+00
2.315133152256843907e+00
2.315133152256843907e+00
2.418636310922574584e+00
2.418636310922574584e+00
2.418636310922574584e+00
2.322070863979003530e+00
2.322070863979003530e+00
2.322070863979003530e+00
2.298257637256996500e+00
2.298257637256996500e+00
2.298257637256996500e+00
2.305945371868038052e+00
2.305945371868038052e+00
2.305945371868038052e+00
2.305945371868038052e+00
2.287757316812646824e+00
2.287757316812646824e+00
2.287757316812646824e+00
2.297320108645893644e+00
2.297320108645893644e+00
2.297320108645893644e+00
2.297320108645893644e+00
2.358446974089785542e+00
2.358446974089785542e+00
2.358446974089785542e+00
2.325258461256752618e+00
2.325258461256752618e+00
2.325258461256752618e+00
2.265444135868404540e+00
2.265444135868404540e+00
2.265444135868404540e+00
2.221755302591021497e+00
2.221755302591021497e+00
2.221755302591021497e+00
2.208629902035584625e+00
2.208629902035584625e+00
2.208629902035584625e+00
2.208629902035584625e+00
2.146002990813928868e+00
2.146002990813928868e+00
2.146002990813928868e+00
2.080000976592303541e+00
2.080000976592303541e+00
2.080000976592303541e+00
2.382072695089572090e+00
2.382072695089572090e+00
2.382072695089572090e+00
2.382072695089572090e+00
2.360509537034211291e+00
2.360509537034211291e+00
2.360509537034211291e+00
2.295445051423688376e+00
2.295445051423688376e+00
2.295445051423688376e+00
2.296757591479232197e+00
2.296757591479232197e+00
2.296757591479232197e+00
2.296757591479232197e+00
2.297132602923673161e+00
2.297132602923673161e+00
2.297132602923673161e+00
2.282882168034912951e+00
2.282882168034912951e+00
2.282882168034912951e+00
2.282882168034912951e+00
2.305757866145817125e+00
2.305757866145817125e+00
2.305757866145817125e+00
2.392760521256141804e+00
2.392760521256141804e+00
2.392760521256141804e+00
2.327133518478957885e+00
2.327133518478957885e+00
2.327133518478957885e+00
2.327133518478957885e+00
2.285319742423780109e+00
2.285319742423780109e+00
2.285319742423780109e+00
2.235630726035340299e+00
2.235630726035340299e+00
2.235630726035340299e+00
2.229630542924283532e+00
2.229630542924283532e+00
2.229630542924283532e+00
2.229630542924283532e+00
2.117314615314187964e+00
2.117314615314187964e+00
2.117314615314187964e+00
2.152378185369426600e+00
2.152378185369426600e+00
2.152378185369426600e+00
2.397260658589434712e+00
2.397260658589434712e+00
2.397260658589434712e+00
2.397260658589434712e+00
2.327696035645618888e+00
2.327696035645618888e+00
2.327696035645618888e+00
2.287569811090426342e+00
2.287569811090426342e+00
2.287569811090426342e+00
2.318508255256813033e+00
2.318508255256813033e+00
2.318508255256813033e+00
2.323195898312326424e+00
2.323195898312326424e+00
2.323195898312326424e+00
2.306882900479140464e+00
2.306882900479140464e+00
2.306882900479140464e+00
2.306882900479140464e+00
2.327321024201178368e+00
2.327321024201178368e+00
2.327321024201178368e+00
2.375322489089632505e+00
2.375322489089632505e+00
2.375322489089632505e+00
2.281382122257148648e+00
2.281382122257148648e+00
2.281382122257148648e+00
2.281382122257148648e+00
2.250631183812982439e+00
2.250631183812982439e+00
2.250631183812982439e+00
2.226255439924313961e+00
2.226255439924313961e+00
2.226255439924313961e+00
2.218005188146610962e+00
2.218005188146610962e+00
2.218005188146610962e+00
2.218005188146610962e+00
2.102876674703207716e+00
2.102876674703207716e+00
2.102876674703207716e+00
2.240505874813074172e+00
2.240505874813074172e+00
2.240505874813074172e+00
2.240505874813074172e+00
2.381510177922910199e+00
2.381510177922910199e+00
2.381510177922910199e+00
2.303882808923612302e+00
2.303882808923612302e+00
2.303882808923612302e+00
2.285694753868221074e+00
2.285694753868221074e+00
2.285694753868221074e+00
2.285694753868221074e+00
2.302945280312509890e+00
2.302945280312509890e+00
2.302945280312509890e+00
2.291507431257057803e+00
2.291507431257057803e+00
2.291507431257057803e+00
2.295070039979247412e+00
2.295070039979247412e+00
2.295070039979247412e+00
2.295070039979247412e+00
2.360134525589770327e+00
2.360134525589770327e+00
2.360134525589770327e+00
2.366884731589709023e+00
2.366884731589709023e+00
2.366884731589709023e+00
2.289069856868190644e+00
2.289069856868190644e+00
2.289069856868190644e+00
2.289069856868190644e+00
2.233943174535355514e+00
2.233943174535355514e+00
2.233943174535355514e+00
2.195879512924588717e+00
2.195879512924588717e+00
2.195879512924588717e+00
2.144502945036164565e+00
2.144502945036164565e+00
2.144502945036164565e+00
2.057875301370280852e+00
2.057875301370280852e+00
2.335383770256660885e+00
2.335383770256660885e+00
2.362009582811975594e+00
2.362009582811975594e+00
2.305945371868038052e+00
2.305945371868038052e+00
2.329008575701162709e+00
2.329008575701162709e+00
2.344196539201025331e+00
2.344196539201025331e+00
2.326008484145634547e+00
2.326008484145634547e+00
2.326008484145634547e+00
2.333508713034455617e+00
2.333508713034455617e+00
2.388260383922848895e+00
2.388260383922848895e+00
2.323383404034546906e+00
2.323383404034546906e+00
2.266569170201727434e+00
2.266569170201727434e+00
2.205817316202276945e+00
2.205817316202276945e+00
2.187066743980223826e+00
2.187066743980223826e+00
2.108126834925382109e+00
2.108126834925382109e+00
2.098189031647694325e+00
2.098189031647694325e+00
2.401010773033844803e+00
2.401010773033844803e+00
2.401010773033844803e+00
2.347384136478774419e+00
2.347384136478774419e+00
2.299570177312540320e+00
2.299570177312540320e+00
2.320758323923459709e+00
2.320758323923459709e+00
2.317758232367931104e+00
2.317758232367931104e+00
2.303320291756950855e+00
2.303320291756950855e+00
2.312695577867977192e+00
2.312695577867977192e+00
2.379635120700704931e+00
2.379635120700704931e+00
2.274256904812768987e+00
2.274256904812768987e+00
2.232818140202032620e+00
2.232818140202032620e+00
2.232818140202032620e+00
2.200192144535660699e+00
2.200192144535660699e+00
2.199067110202337361e+00
2.199067110202337361e+00
2.081501022370067400e+00
2.081501022370067400e+00
2.176191412091433186e+00
2.176191412091433186e+00
2.386197820978423145e+00
2.386197820978423145e+00
2.329196081423383191e+00
2.329196081423383191e+00
2.316633198034607766e+00
2.316633198034607766e+00
2.328633564256721744e+00
2.328633564256721744e+00
2.328633564256721744e+00
2.313070589312418157e+00
2.313070589312418157e+00
2.303507797479171337e+00
2.303507797479171337e+00
2.331821161534470832e+00
2.331821161534470832e+00
2.348134159367656792e+00
2.348134159367656792e+00
2.252506241035188150e+00
2.252506241035188150e+00
2.219505233924375265e+00
2.219505233924375265e+00
2.206567339091158875e+00
2.206567339091158875e+00
2.210692464980010374e+00
2.210692464980010374e+00
2.140565324869533104e+00
2.140565324869533104e+00
2.140565324869533104e+00
2.374572466200750576e+00
2.374572466200750576e+00
2.439261940366832526e+00
2.439261940366832526e+00
2.335008758812219920e+00
2.335008758812219920e+00
2.297320108645893644e+00
2.297320108645893644e+00
2.287007293923764895e+00
2.287007293923764895e+00
2.260006469924008776e+00
2.260006469924008776e+00
2.273319376201666131e+00
2.273319376201666131e+00
2.351696768089846401e+00
2.351696768089846401e+00
2.351696768089846401e+00
2.331446150090029423e+00
2.331446150090029423e+00
2.259256447035126847e+00
2.259256447035126847e+00
2.211442487868892304e+00
2.211442487868892304e+00
2.197942075869014911e+00
2.197942075869014911e+00
2.110376903592028786e+00
2.110376903592028786e+00
2.046437452314828764e+00
2.046437452314828764e+00
2.349821710867641578e+00
2.349821710867641578e+00
2.327133518478957885e+00
2.327133518478957885e+00
2.327133518478957885e+00
2.305195348979155678e+00
2.305195348979155678e+00
2.330696127201147494e+00
2.330696127201147494e+00
2.356009399700918827e+00
2.356009399700918827e+00
2.341383953367717208e+00
2.341383953367717208e+00
2.317945738090151586e+00
2.317945738090151586e+00
2.390135441145054607e+00
2.390135441145054607e+00
2.283444685201574842e+00
2.283444685201574842e+00
2.216692648091067142e+00
2.216692648091067142e+00
2.166253608813745402e+00
2.166253608813745402e+00
2.166253608813745402e+00
2.177878963591417971e+00
2.177878963591417971e+00
2.092001342814417075e+00
2.092001342814417075e+00
2.160065919980468152e+00
2.160065919980468152e+00
2.422948942533646566e+00
2.422948942533646566e+00
2.365009674367503756e+00
2.365009674367503756e+00
2.319070772423474924e+00
2.319070772423474924e+00
2.333321207312235135e+00
2.333321207312235135e+00
2.321320841090121156e+00
2.321320841090121156e+00
2.321320841090121156e+00
2.311945554979094819e+00
2.311945554979094819e+00
2.381135166478469234e+00
2.381135166478469234e+00
2.464575212866603859e+00
2.464575212866603859e+00
2.348696676534318240e+00
2.348696676534318240e+00
2.267131687368389326e+00
2.267131687368389326e+00
2.208254890591143660e+00
2.208254890591143660e+00
2.167003631702627775e+00
2.167003631702627775e+00
2.041374797814874853e+00
2.041374797814874853e+00
2.041374797814874853e+00
2.201879696035645484e+00
2.201879696035645484e+00
2.374572466200750576e+00
2.374572466200750576e+00
2.332758690145573244e+00
2.332758690145573244e+00
2.329758598590044638e+00
2.329758598590044638e+00
2.338008850367748082e+00
2.338008850367748082e+00
2.335571275978881367e+00
2.335571275978881367e+00
2.351134250923184954e+00
2.351134250923184954e+00
2.401010773033844803e+00
2.401010773033844803e+00
2.386385326700643628e+00
2.386385326700643628e+00
2.386385326700643628e+00
2.294320017090365038e+00
2.294320017090365038e+00
2.232818140202032620e+00
2.232818140202032620e+00
2.208254890591143660e+00
2.208254890591143660e+00
2.177316446424756524e+00
2.177316446424756524e+00
2.079250953703421168e+00
2.079250953703421168e+00
2.362384594256416559e+00
2.362384594256416559e+00
2.392385509811700839e+00
2.392385509811700839e+00
2.334258735923337547e+00
2.334258735923337547e+00
2.334258735923337547e+00
2.339321390423291458e+00
2.339321390423291458e+00
2.328633564256721744e+00
2.328633564256721744e+00
2.312508072145756710e+00
2.312508072145756710e+00
2.307632923368022837e+00
2.307632923368022837e+00
2.346259102145451525e+00
2.346259102145451525e+00
2.272194341868343237e+00
2.272194341868343237e+00
2.217067659535508550e+00
2.217067659535508550e+00
2.169441206091494490e+00
2.169441206091494490e+00
2.169441206091494490e+00
2.176003906369212704e+00
2.176003906369212704e+00
2.100251594592120075e+00
2.100251594592120075e+00
2.066688070314646186e+00
2.066688070314646186e+00
2.347384136478774419e+00
2.347384136478774419e+00
2.284007202368236289e+00
2.284007202368236289e+00
2.208254890591143660e+00
2.208254890591143660e+00
2.231318094424268317e+00
2.231318094424268317e+00
2.253631275368511044e+00
2.253631275368511044e+00
2.240880886257515137e+00
2.240880886257515137e+00
2.240880886257515137e+00
2.232630634479812137e+00
2.232630634479812137e+00
2.295257545701467894e+00
2.295257545701467894e+00
2.160253425702688634e+00
2.160253425702688634e+00
2.124252327036347587e+00
2.124252327036347587e+00
2.140565324869533104e+00
2.140565324869533104e+00
2.198879604480116878e+00
2.198879604480116878e+00
2.115627063814203623e+00
2.115627063814203623e+00
2.243880977813043742e+00
2.243880977813043742e+00
2.243880977813043742e+00
2.504326425977354997e+00
2.504326425977354997e+00
2.482763267921994643e+00
2.482763267921994643e+00
2.456512466811120898e+00
2.456512466811120898e+00
2.461575121311075254e+00
2.461575121311075254e+00
2.455387432477798004e+00
2.455387432477798004e+00
2.506576494644001674e+00
2.506576494644001674e+00
2.482200750755333196e+00
2.482200750755333196e+00
2.395385601367229444e+00
2.395385601367229444e+00
2.395385601367229444e+00
2.284944730979339145e+00
2.284944730979339145e+00
2.252506241035188150e+00
2.252506241035188150e+00
2.225505417035432032e+00
2.225505417035432032e+00
2.164941068758201581e+00
2.164941068758201581e+00
2.031061983092746104e+00
2.031061983092746104e+00
2.228693014313181120e+00
2.228693014313181120e+00
2.319258278145695407e+00
2.319258278145695407e+00
2.283819696646015807e+00
2.283819696646015807e+00
2.283819696646015807e+00
2.282694662312692468e+00
2.282694662312692468e+00
2.316258186590166801e+00
2.316258186590166801e+00
2.336321298867763296e+00
2.336321298867763296e+00
2.362759605700857524e+00
2.362759605700857524e+00
2.407948484756004870e+00
2.407948484756004870e+00
2.379447614978484449e+00
2.379447614978484449e+00
2.313070589312418157e+00
2.313070589312418157e+00
2.274069399090548504e+00
2.274069399090548504e+00
2.274069399090548504e+00
2.240505874813074172e+00
2.240505874813074172e+00
2.142252876369517889e+00
2.142252876369517889e+00
2.049625049592577852e+00
2.049625049592577852e+00
2.331446150090029423e+00
2.331446150090029423e+00
2.312320566423536228e+00
2.312320566423536228e+00
2.290757408368175430e+00
2.290757408368175430e+00
2.302382763145847999e+00
2.302382763145847999e+00
2.301257728812525105e+00
2.301257728812525105e+00
2.301257728812525105e+00
2.291132419812616394e+00
2.291132419812616394e+00
2.332196172978911797e+00
2.332196172978911797e+00
2.424261482589190386e+00
2.424261482589190386e+00
2.338383861812189490e+00
2.338383861812189490e+00
2.279882076479384789e+00
2.279882076479384789e+00
2.207317361980041248e+00
2.207317361980041248e+00
2.222880336924344391e+00
2.222880336924344391e+00
2.122002258369701355e+00
2.122002258369701355e+00
2.168503677480392078e+00
2.168503677480392078e+00
2.168503677480392078e+00
2.401198278756065729e+00
2.401198278756065729e+00
2.329196081423383191e+00
2.329196081423383191e+00
2.294507522812585520e+00
2.294507522812585520e+00
2.288694845423749680e+00
2.288694845423749680e+00
2.274256904812768987e+00
2.274256904812768987e+00
2.295070039979247412e+00
2.295070039979247412e+00
2.316070680867946319e+00
2.316070680867946319e+00
2.347196630756553937e+00
2.347196630756553937e+00
2.260756492812891150e+00
2.260756492812891150e+00
2.260756492812891150e+00
2.245756035035248566e+00
2.245756035035248566e+00
2.199067110202337361e+00
2.199067110202337361e+00
2.164191045869319652e+00
2.164191045869319652e+00
2.051500106814783120e+00
2.051500106814783120e+00
2.260381481368449741e+00
2.260381481368449741e+00
2.433824274422437206e+00
2.433824274422437206e+00
2.394635578478347071e+00
2.394635578478347071e+00
2.381135166478469234e+00
2.381135166478469234e+00
2.381135166478469234e+00
2.367634754478591397e+00
2.367634754478591397e+00
2.309132969145787140e+00
2.309132969145787140e+00
2.269006744590594149e+00
2.269006744590594149e+00
2.288132328257088233e+00
2.288132328257088233e+00
2.256631366924039650e+00
2.256631366924039650e+00
2.156128299813837135e+00
2.156128299813837135e+00
2.113564500869777874e+00
2.113564500869777874e+00
2.139065279091769245e+00
2.139065279091769245e+00
2.128377452925199087e+00
2.128377452925199087e+00
2.128377452925199087e+00
2.055250221259193655e+00
2.055250221259193655e+00
2.375322489089632505e+00
2.375322489089632505e+00
2.412261116367076408e+00
2.412261116367076408e+00
2.315320657979064389e+00
2.315320657979064389e+00
2.302382763145847999e+00
2.302382763145847999e+00
2.323945921201208797e+00
2.323945921201208797e+00
2.313633106479079604e+00
2.313633106479079604e+00
2.302382763145847999e+00
2.302382763145847999e+00
2.302382763145847999e+00
2.335196264534440402e+00
2.335196264534440402e+00
2.238255806146427940e+00
2.238255806146427940e+00
2.153878231147190458e+00
2.153878231147190458e+00
2.131940061647389140e+00
2.131940061647389140e+00
2.188566789757988129e+00
2.188566789757988129e+00
2.185941709646900932e+00
2.185941709646900932e+00
2.274631916257209951e+00
2.274631916257209951e+00
2.548202764976958523e+00
2.548202764976958523e+00
2.548202764976958523e+00
2.479950682088686964e+00
2.479950682088686964e+00
2.398010681478316641e+00
2.398010681478316641e+00
2.359196996978667915e+00
2.359196996978667915e+00
2.311008026367992407e+00
2.311008026367992407e+00
2.290007385479293500e+00
2.290007385479293500e+00
2.295632557145908859e+00
2.295632557145908859e+00
2.380760155034028269e+00
2.380760155034028269e+00
2.298632648701437464e+00
2.298632648701437464e+00
2.298632648701437464e+00
2.256256355479598685e+00
2.256256355479598685e+00
2.216130130924405695e+00
2.216130130924405695e+00
2.234880703146458369e+00
2.234880703146458369e+00
2.084688619647816488e+00
2.084688619647816488e+00
2.158940885647145258e+00
2.158940885647145258e+00
2.358446974089785542e+00
2.358446974089785542e+00
2.324320932645649762e+00
2.324320932645649762e+00
2.286819788201544412e+00
2.286819788201544412e+00
2.286069765312662039e+00
2.286069765312662039e+00
2.286069765312662039e+00
2.309507980590228104e+00
2.309507980590228104e+00
2.341383953367717208e+00
2.341383953367717208e+00
2.391447981200597983e+00
2.391447981200597983e+00
2.425011505478072316e+00
2.425011505478072316e+00
2.298820154423657947e+00
2.298820154423657947e+00
2.221192785424360050e+00
2.221192785424360050e+00
2.184816675313578038e+00
2.184816675313578038e+00
2.158003357036042402e+00
2.158003357036042402e+00
2.158003357036042402e+00
2.092563859981078966e+00
2.092563859981078966e+00
2.355821893978697901e+00
2.355821893978697901e+00
2.391447981200597983e+00
2.391447981200597983e+00
2.275194433423871843e+00
2.275194433423871843e+00
2.230943082979827352e+00
2.230943082979827352e+00
2.244255989257484707e+00
2.244255989257484707e+00
2.282882168034912951e+00
2.282882168034912951e+00
2.330696127201147494e+00
2.330696127201147494e+00
2.330696127201147494e+00
2.399698232978301426e+00
2.399698232978301426e+00
2.325633472701193583e+00
2.325633472701193583e+00
2.240505874813074172e+00
2.240505874813074172e+00
2.202442213202307375e+00
2.202442213202307375e+00
2.221567796868801015e+00
2.221567796868801015e+00
2.143940427869502674e+00
2.143940427869502674e+00
2.102126651814325342e+00
2.102126651814325342e+00
2.468325327311013950e+00
2.468325327311013950e+00
2.468325327311013950e+00
2.457637501144443792e+00
2.457637501144443792e+00
2.403260841700491479e+00
2.403260841700491479e+00
2.384697775200659287e+00
2.384697775200659287e+00
2.354696859645375007e+00
2.354696859645375007e+00
2.298445142979216982e+00
2.298445142979216982e+00
2.275569444868312807e+00
2.275569444868312807e+00
2.292444959868159771e+00
2.292444959868159771e+00
2.179379009369182274e+00
2.179379009369182274e+00
2.187816766869105756e+00
2.187816766869105756e+00
2.187816766869105756e+00
2.141502853480635959e+00
2.141502853480635959e+00
2.110751915036469750e+00
2.110751915036469750e+00
2.013998962370677770e+00
2.013998962370677770e+00
2.107751823480941145e+00
2.107751823480941145e+00
2.360884548478652700e+00
2.360884548478652700e+00
2.278757042146061895e+00
2.278757042146061895e+00
2.234505691702016961e+00
2.234505691702016961e+00
2.297695120090334608e+00
2.297695120090334608e+00
2.297695120090334608e+00
2.286444776757103448e+00
2.286444776757103448e+00
2.286257271034882521e+00
2.286257271034882521e+00
2.313445600756859122e+00
2.313445600756859122e+00
2.315320657979064389e+00
2.315320657979064389e+00
2.116189580980865070e+00
2.116189580980865070e+00
2.054125186925870761e+00
2.054125186925870761e+00
2.064062990203558545e+00
2.064062990203558545e+00
2.093876400036621899e+00
2.093876400036621899e+00
2.093876400036621899e+00
2.092563859981078966e+00
2.092563859981078966e+00
2.317008209479048730e+00
2.317008209479048730e+00
2.460450086977751916e+00
2.460450086977751916e+00
2.438324411755729670e+00
2.438324411755729670e+00
2.428199102755821404e+00
2.428199102755821404e+00
2.412636127811517817e+00
2.412636127811517817e+00
2.412448622089296890e+00
2.412448622089296890e+00
2.452012329477828434e+00
2.452012329477828434e+00
2.452012329477828434e+00
2.515576769310586602e+00
2.515576769310586602e+00
2.422573931089205601e+00
2.422573931089205601e+00
2.216505142368846659e+00
2.216505142368846659e+00
2.097814020203253360e+00
2.097814020203253360e+00
2.137565233314004942e+00
2.137565233314004942e+00
2.146190496536149350e+00
2.146190496536149350e+00
2.106626789147617806e+00
2.106626789147617806e+00
2.433074251533554833e+00
2.433074251533554833e+00
2.433074251533554833e+00
2.494201116977446731e+00
2.494201116977446731e+00
2.444699606311227846e+00
2.444699606311227846e+00
2.507514023255104085e+00
2.507514023255104085e+00
2.533202307199316383e+00
2.533202307199316383e+00
2.472825464644306859e+00
2.472825464644306859e+00
2.429699148533585706e+00
2.429699148533585706e+00
2.455199926755577522e+00
2.455199926755577522e+00
2.304445326090273749e+00
2.304445326090273749e+00
2.304445326090273749e+00
2.174691366313669327e+00
2.174691366313669327e+00
2.039312234870449103e+00
2.039312234870449103e+00
2.019999145481734981e+00
2.019999145481734981e+00
1.938996673482467070e+00
1.938996673482467070e+00
1.971810174871059473e+00
1.971810174871059473e+00
2.316258186590166801e+00
2.316258186590166801e+00
2.283819696646015807e+00
2.283819696646015807e+00
2.245943540757469048e+00
2.245943540757469048e+00
2.245943540757469048e+00
2.281382122257148648e+00
2.281382122257148648e+00
2.274444410534989469e+00
2.274444410534989469e+00
2.244631000701926116e+00
2.244631000701926116e+00
2.220630268257698603e+00
2.220630268257698603e+00
2.209379924924466998e+00
2.209379924924466998e+00
2.106626789147617806e+00
2.106626789147617806e+00
2.101564134647663895e+00
2.101564134647663895e+00
1.986623126926480909e+00
1.986623126926480909e+00
1.908433240760521121e+00
1.908433240760521121e+00
1.908433240760521121e+00
1.788992095706045893e+00
1.788992095706045893e+00
2.000311044648579006e+00
2.000311044648579006e+00
2.368009765923032361e+00
2.368009765923032361e+00
2.343634022034363884e+00
2.343634022034363884e+00
2.343259010589922919e+00
2.343259010589922919e+00
2.483700796533097499e+00
2.483700796533097499e+00
2.629580248420667399e+00
2.629580248420667399e+00
2.595266701254311137e+00
2.595266701254311137e+00
2.595266701254311137e+00
2.570515945921201251e+00
2.570515945921201251e+00
2.562640705587938772e+00
2.562640705587938772e+00
2.393885555589465142e+00
2.393885555589465142e+00
2.203192236091189304e+00
2.203192236091189304e+00
1.930558915982543589e+00
1.930558915982543589e+00
1.728052735984374477e+00
1.728052735984374477e+00
1.344416028321176793e+00
1.344416028321176793e+00
1.305602343821527622e+00
1.305602343821527622e+00
1.249163121433149337e+00
1.249163121433149337e+00
1.249163121433149337e+00
1.151472640156254945e+00
1.151472640156254945e+00
1.220287240211188173e+00
1.220287240211188173e+00
1.406292916653950620e+00
1.406292916653950620e+00
1.707239600817896052e+00
1.707239600817896052e+00
1.896620380260628069e+00
1.896620380260628069e+00
2.200754661702322146e+00
2.200754661702322146e+00
2.503763908810693550e+00
2.503763908810693550e+00
2.559265602587969646e+00
2.559265602587969646e+00
2.559265602587969646e+00
2.384322763756218322e+00
2.384322763756218322e+00
2.405323404644917229e+00
2.405323404644917229e+00
2.341383953367717208e+00
2.341383953367717208e+00
2.276881984923856628e+00
2.276881984923856628e+00
2.440199468977935382e+00
2.440199468977935382e+00
2.283257179479354360e+00
2.283257179479354360e+00
2.324695944090090727e+00
2.324695944090090727e+00
2.622080019531845885e+00
2.622080019531845885e+00
2.622080019531845885e+00
2.932026978362376912e+00
2.932026978362376912e+00
3.182534623249000827e+00
3.182534623249000827e+00
3.406603961302529626e+00
3.406603961302529626e+00
3.646798791467024792e+00
3.646798791467024792e+00
3.613047761467329977e+00
3.613047761467329977e+00
3.639111056855983239e+00
3.639111056855983239e+00
3.452355357524338864e+00
3.452355357524338864e+00
3.182534623249000827e+00
3.182534623249000827e+00
3.182534623249000827e+00
2.661268715475936020e+00
2.661268715475936020e+00
2.368197271645252844e+00
2.368197271645252844e+00
2.393510544145024177e+00
2.393510544145024177e+00
2.116002075258644588e+00
2.116002075258644588e+00
1.878057313760796099e+00
1.878057313760796099e+00
1.911245826593829245e+00
1.911245826593829245e+00
2.095751457258827610e+00
2.095751457258827610e+00
2.306507889034699499e+00
2.306507889034699499e+00
2.306507889034699499e+00
2.380197637867366822e+00
2.380197637867366822e+00
2.341758964812158617e+00
2.341758964812158617e+00
2.177316446424756524e+00
2.177316446424756524e+00
1.967310037537766565e+00
1.967310037537766565e+00
1.828930814539017957e+00
1.828930814539017957e+00
1.437606372264778720e+00
1.437606372264778720e+00
9.180280159916990312e-01
9.180280159916990312e-01
1.044031861323893029e+00
1.044031861323893029e+00
1.044031861323893029e+00
1.348541154210028514e+00
1.348541154210028514e+00
1.555734977263710572e+00
1.555734977263710572e+00
1.927371318704794501e+00
1.927371318704794501e+00
2.564328257087923557e+00
2.564328257087923557e+00
2.967465559862056512e+00
2.967465559862056512e+00
3.256411877803888189e+00
3.256411877803888189e+00
3.332351695303201744e+00
3.332351695303201744e+00
3.037780205694753821e+00
3.037780205694753821e+00
3.037780205694753821e+00
2.581578783532212373e+00
2.581578783532212373e+00
2.214630085146641392e+00
2.214630085146641392e+00
2.139627796258431136e+00
2.139627796258431136e+00
2.026561845759453195e+00
2.026561845759453195e+00
1.877494796594134430e+00
1.877494796594134430e+00
2.223067842646564873e+00
2.223067842646564873e+00
2.387697866756187448e+00
2.387697866756187448e+00
2.387697866756187448e+00
2.552327890865810023e+00
2.552327890865810023e+00
2.660893704031495055e+00
2.660893704031495055e+00
2.380572649311807787e+00
2.380572649311807787e+00
2.115439558091983141e+00
2.115439558091983141e+00
1.967872554704428234e+00
1.967872554704428234e+00
2.004061159092989985e+00
2.004061159092989985e+00
2.013248939481795396e+00
2.013248939481795396e+00
2.128377452925199087e+00
2.128377452925199087e+00
2.309695486312448587e+00
2.309695486312448587e+00
2.309695486312448587e+00
2.568453382976775501e+00
2.568453382976775501e+00
2.513514206366161297e+00
2.513514206366161297e+00
2.430449171422468080e+00
2.430449171422468080e+00
2.607267067476424671e+00
2.607267067476424671e+00
2.409636036255989211e+00
2.409636036255989211e+00
2.282319650868251504e+00
2.282319650868251504e+00
2.382260200811792572e+00
2.382260200811792572e+00
2.497201208532975336e+00
2.497201208532975336e+00
2.497201208532975336e+00
2.511076631977294138e+00
2.511076631977294138e+00
2.392010498367259874e+00
2.392010498367259874e+00
2.328633564256721744e+00
2.328633564256721744e+00
1.967872554704428234e+00
1.967872554704428234e+00
1.740240607928708716e+00
1.740240607928708716e+00
1.759741203039643542e+00
1.759741203039643542e+00
1.907870723593859896e+00
1.907870723593859896e+00
2.001998596148564236e+00
2.001998596148564236e+00
2.001998596148564236e+00
2.260943998535111632e+00
2.260943998535111632e+00
2.540515030365916971e+00
2.540515030365916971e+00
2.525702078310495757e+00
2.525702078310495757e+00
2.526639606921598169e+00
2.526639606921598169e+00
2.464575212866603859e+00
2.464575212866603859e+00
2.407948484756004870e+00
2.407948484756004870e+00
2.418073793755913137e+00
2.418073793755913137e+00
2.618329905087435794e+00
2.618329905087435794e+00
2.642893154698324754e+00
2.642893154698324754e+00
2.642893154698324754e+00
2.497576219977416301e+00
2.497576219977416301e+00
2.378697592089602519e+00
2.378697592089602519e+00
2.276319467757194737e+00
2.276319467757194737e+00
2.172441297647023095e+00
2.172441297647023095e+00
1.982498001037629409e+00
1.982498001037629409e+00
2.229818048646504014e+00
2.229818048646504014e+00
2.348696676534318240e+00
2.348696676534318240e+00
2.282882168034912951e+00
2.282882168034912951e+00
2.282882168034912951e+00
2.230005554368724940e+00
2.171691274758141166e+00
2.171691274758141166e+00
2.171691274758141166e+00
1.968997589037751350e+00
1.968997589037751350e+00
1.833430951872310644e+00
1.833430951872310644e+00
1.686238959929196923e+00
1.686238959929196923e+00
1.739490585039826565e+00
1.739490585039826565e+00
1.994873378704184130e+00
1.994873378704184130e+00
2.283819696646015807e+00
2.283819696646015807e+00
2.459512558366649504e+00
2.459512558366649504e+00
2.575953611865596571e+00
2.575953611865596571e+00
2.575953611865596571e+00
2.674956633198034783e+00
2.674956633198034783e+00
2.982091006195257687e+00
2.982091006195257687e+00
2.623392559587389705e+00
2.623392559587389705e+00
2.251756218146305777e+00
2.251756218146305777e+00
1.970310129093295171e+00
1.970310129093295171e+00
1.563797723319193089e+00
1.563797723319193089e+00
1.518233832819605222e+00
1.518233832819605222e+00
1.581423261207922648e+00
1.581423261207922648e+00
1.581423261207922648e+00
1.872807153538621261e+00
1.872807153538621261e+00
2.108501846369823074e+00
2.108501846369823074e+00
2.434949308755760100e+00
2.434949308755760100e+00
2.692394665364543638e+00
2.692394665364543638e+00
2.916839014862514290e+00
2.916839014862514290e+00
2.917026520584734772e+00
2.917026520584734772e+00
2.892463270973845368e+00
2.892463270973845368e+00
2.929214392529068789e+00
2.929214392529068789e+00
2.929214392529068789e+00
2.514826746421705117e+00
2.514826746421705117e+00
2.252693746757408633e+00
2.252693746757408633e+00
1.883119968260750232e+00
1.883119968260750232e+00
1.301289712210455640e+00
1.301289712210455640e+00
1.149222571489608491e+00
1.149222571489608491e+00
1.407980468153935405e+00
1.407980468153935405e+00
1.665988341929380168e+00
1.665988341929380168e+00
1.966560014648884636e+00
1.966560014648884636e+00
1.966560014648884636e+00
2.368384777367473326e+00
2.368384777367473326e+00
2.909338785973693220e+00
2.909338785973693220e+00
3.168471694082461099e+00
3.168471694082461099e+00
2.964465468306527907e+00
2.964465468306527907e+00
2.879525376140628978e+00
2.879525376140628978e+00
2.626580156865138793e+00
2.626580156865138793e+00
2.393885555589465142e+00
2.393885555589465142e+00
2.215755119479964730e+00
2.215755119479964730e+00
2.215755119479964730e+00
2.155003265480513797e+00
2.155003265480513797e+00
2.306882900479140464e+00
2.306882900479140464e+00
2.398573198644978088e+00
2.398573198644978088e+00
2.292257454145939732e+00
2.292257454145939732e+00
2.364634662923062791e+00
2.364634662923062791e+00
2.097251503036591469e+00
2.097251503036591469e+00
1.869619556260872173e+00
1.869619556260872173e+00
1.767241431928464834e+00
1.767241431928464834e+00
1.831743400372325858e+00
1.831743400372325858e+00
1.831743400372325858e+00
1.916870998260445047e+00
1.916870998260445047e+00
2.536577410199285953e+00
2.536577410199285953e+00
2.739458601641895807e+00
2.739458601641895807e+00
2.826836268196661450e+00
2.826836268196661450e+00
2.804148075807977758e+00
2.804148075807977758e+00
2.815773430585650328e+00
2.815773430585650328e+00
2.712457777642140133e+00
2.712457777642140133e+00
2.380010132145145896e+00
2.380010132145145896e+00
2.380010132145145896e+00
2.052812646870326940e+00
2.052812646870326940e+00
1.619299417096469185e+00
1.619299417096469185e+00
1.386042298654133864e+00
1.386042298654133864e+00
1.536984405041657897e+00
1.536984405041657897e+00
1.867932004760887388e+00
1.867932004760887388e+00
2.135502670369579192e+00
2.135502670369579192e+00
2.615704824976348153e+00
2.615704824976348153e+00
3.245161534470656584e+00
3.245161534470656584e+00
3.245161534470656584e+00
3.497731742301706248e+00
3.497731742301706248e+00
3.269912289803766026e+00
3.269912289803766026e+00
2.991466292306284025e+00
2.991466292306284025e+00
2.730270821253089952e+00
2.730270821253089952e+00
2.214630085146641392e+00
2.214630085146641392e+00
1.813555345316934853e+00
1.813555345316934853e+00
1.617799371318704882e+00
1.617799371318704882e+00
1.486545365764335935e+00
1.486545365764335935e+00
1.693739188818018215e+00
1.693739188818018215e+00
1.693739188818018215e+00
1.946496902371288140e+00
1.946496902371288140e+00
2.116377086703085553e+00
2.116377086703085553e+00
1.971810174871059473e+00
1.971810174871059473e+00
1.929058870204779286e+00
1.929058870204779286e+00
2.017186559648426858e+00
2.017186559648426858e+00
2.112439466536454535e+00
2.112439466536454535e+00
2.392573015533921321e+00
2.392573015533921321e+00
2.891150730918301992e+00
2.891150730918301992e+00
3.119532700582903662e+00
3.119532700582903662e+00
2.974965788750877138e+00
2.974965788750877138e+00
2.730833338419751399e+00
2.730833338419751399e+00
2.730833338419751399e+00
2.414136173589282119e+00
2.414136173589282119e+00
2.216505142368846659e+00
2.216505142368846659e+00
2.232443128757591655e+00
2.232443128757591655e+00
2.022624225592822178e+00
2.022624225592822178e+00
1.945371868037965024e+00
1.945371868037965024e+00
1.728427747428815664e+00
1.728427747428815664e+00
2.035937131870479533e+00
2.035937131870479533e+00
2.282694662312692468e+00
2.282694662312692468e+00
2.282694662312692468e+00
2.144502945036164565e+00
2.144502945036164565e+00
1.761991271706289774e+00
1.761991271706289774e+00
1.474920010986663366e+00
1.474920010986663366e+00
1.441543992431409738e+00
1.441543992431409738e+00
1.882932462538529750e+00
1.882932462538529750e+00
2.614017273476363368e+00
2.614017273476363368e+00
3.294288033692434503e+00
3.294288033692434503e+00
3.652986480300302041e+00
3.652986480300302041e+00
3.652986480300302041e+00
3.527357646412549119e+00
3.527357646412549119e+00
3.169409222693563954e+00
3.169409222693563954e+00
2.805648121585742061e+00
2.805648121585742061e+00
2.497388714255195818e+00
2.497388714255195818e+00
2.429886654255806189e+00
2.429886654255806189e+00
2.320195806756797818e+00
2.320195806756797818e+00
2.222692831202123909e+00
2.222692831202123909e+00
2.233755668813135031e+00
2.233755668813135031e+00
2.233755668813135031e+00
2.221005279702139568e+00
2.221005279702139568e+00
2.328258552812280335e+00
2.328258552812280335e+00
2.379635120700704931e+00
2.379635120700704931e+00
2.363322122867518971e+00
2.363322122867518971e+00
2.231505600146489243e+00
2.231505600146489243e+00
2.141877864925076924e+00
2.141877864925076924e+00
1.878994842371898732e+00
1.878994842371898732e+00
1.546922208319345682e+00
1.546922208319345682e+00
1.546922208319345682e+00
1.412480605487228091e+00
1.412480605487228091e+00
1.462544633320108867e+00
1.462544633320108867e+00
1.575235572374645177e+00
1.575235572374645177e+00
1.633924863429670138e+00
1.633924863429670138e+00
2.150503128147221332e+00
2.150503128147221332e+00
2.658456129642628341e+00
2.658456129642628341e+00
2.731770867030854255e+00
2.731770867030854255e+00
2.731770867030854255e+00
2.661456221198156946e+00
2.661456221198156946e+00
2.715832880642109259e+00
2.715832880642109259e+00
2.633705374309518454e+00
2.633705374309518454e+00
2.335008758812219920e+00
2.335008758812219920e+00
2.197567064424573946e+00
2.197567064424573946e+00
1.876932279427472761e+00
1.876932279427472761e+00
1.710989715262306587e+00
1.710989715262306587e+00
1.817492965483565870e+00
1.817492965483565870e+00
2.185004181035798521e+00
2.185004181035798521e+00
2.185004181035798521e+00
2.564703268532364966e+00
2.564703268532364966e+00
2.962215399639881674e+00
2.962215399639881674e+00
2.962215399639881674e+00
2.962215399639881674e+00
2.854774620807519980e+00
2.854774620807519980e+00
2.607642078920865636e+00
2.607642078920865636e+00
2.335946287423322332e+00
2.335946287423322332e+00
2.302195257423627517e+00
2.302195257423627517e+00
2.238068300424207457e+00
2.238068300424207457e+00
2.059937864314706601e+00
2.059937864314706601e+00
2.059937864314706601e+00
2.035562120426038124e+00
2.035562120426038124e+00
2.042687337870418673e+00
2.042687337870418673e+00
1.851431501205481167e+00
1.851431501205481167e+00
1.742303170873134688e+00
1.742303170873134688e+00
2.059562852870265637e+00
2.059562852870265637e+00
1.899057954649495006e+00
1.899057954649495006e+00
1.995623401593066282e+00
1.995623401593066282e+00
2.509951597643971244e+00
2.509951597643971244e+00
2.509951597643971244e+00
3.006091738639485200e+00
3.006091738639485200e+00
2.819711050752281345e+00
2.819711050752281345e+00
2.543515121921445576e+00
2.543515121921445576e+00
2.612517227698599065e+00
2.612517227698599065e+00
2.753146519363994127e+00
2.753146519363994127e+00
2.832273934141056326e+00
2.832273934141056326e+00
2.932214484084597395e+00
2.932214484084597395e+00
2.821961119418927577e+00
2.821961119418927577e+00
2.365384685811944721e+00
2.365384685811944721e+00
2.365384685811944721e+00
2.101001617481002448e+00
2.101001617481002448e+00
2.068188116092410045e+00
2.068188116092410045e+00
1.751490951261940321e+00
1.751490951261940321e+00
1.760303720206305211e+00
1.760303720206305211e+00
2.110751915036469750e+00
2.110751915036469750e+00
2.290194891201513983e+00
2.290194891201513983e+00
2.547640247810297076e+00
2.547640247810297076e+00
2.726333201086458935e+00
2.726333201086458935e+00
2.726520706808679417e+00
2.726520706808679417e+00
2.726520706808679417e+00
2.448449720755638381e+00
2.448449720755638381e+00
1.862869350260933254e+00
1.862869350260933254e+00
1.273913876766258779e+00
1.273913876766258779e+00
1.266038636432996523e+00
1.266038636432996523e+00
1.298852137821588704e+00
1.298852137821588704e+00
1.539609485152745094e+00
1.539609485152745094e+00
2.150128116702780368e+00
2.150128116702780368e+00
2.762709311197240947e+00
2.762709311197240947e+00
2.762709311197240947e+00
2.831336405529954359e+00
2.831336405529954359e+00
2.590766563921018228e+00
2.590766563921018228e+00
2.488763451033051854e+00
2.488763451033051854e+00
2.383010223700674501e+00
2.383010223700674501e+00
2.190254341257972914e+00
2.190254341257972914e+00
2.070250679036835795e+00
2.070250679036835795e+00
2.061437910092470904e+00
2.061437910092470904e+00
2.184816675313578038e+00
2.184816675313578038e+00
2.184816675313578038e+00
2.388072878200628413e+00
2.388072878200628413e+00
2.657518601031525485e+00
2.657518601031525485e+00
2.925089266640217733e+00
2.925089266640217733e+00
3.311726065858943802e+00
3.311726065858943802e+00
3.233723685415204496e+00
3.233723685415204496e+00
3.021842219306008825e+00
3.021842219306008825e+00
2.722395580919827918e+00
2.722395580919827918e+00
2.722395580919827918e+00
2.420323862422559369e+00
2.420323862422559369e+00
2.275194433423871843e+00
2.275194433423871843e+00
2.213505050813318054e+00
2.213505050813318054e+00
2.172441297647023095e+00
2.172441297647023095e+00
1.991498275704214560e+00
1.991498275704214560e+00
1.840368663594470044e+00
1.840368663594470044e+00
1.597923764763328869e+00
1.597923764763328869e+00
1.401417767876216969e+00
1.401417767876216969e+00
1.401417767876216969e+00
1.144909939878536509e+00
1.144909939878536509e+00
1.136097170934171618e+00
1.136097170934171618e+00
1.859494247260963906e+00
1.859494247260963906e+00
2.530014709921567295e+00
2.530014709921567295e+00
3.047718008972441606e+00
3.047718008972441606e+00
3.072281258583331010e+00
3.072281258583331010e+00
2.707582628864406260e+00
2.707582628864406260e+00
2.353384319589831186e+00
2.353384319589831186e+00
2.353384319589831186e+00
2.286069765312662039e+00
2.286069765312662039e+00
2.235443220313119816e+00
2.235443220313119816e+00
2.160815942869350526e+00
2.160815942869350526e+00
2.333321207312235135e+00
2.333321207312235135e+00
2.436261848811303921e+00
2.436261848811303921e+00
2.394635578478347071e+00
2.394635578478347071e+00
2.100814111758781966e+00
2.100814111758781966e+00
2.012498916592913467e+00
2.012498916592913467e+00
2.035749626148258606e+00
2.035749626148258606e+00
2.035749626148258606e+00
1.795742301705984811e+00
1.795742301705984811e+00
1.719989989928891960e+00
1.719989989928891960e+00
1.955122165593432548e+00
1.955122165593432548e+00
2.209754936368907963e+00
2.209754936368907963e+00
2.377010040589617734e+00
2.377010040589617734e+00
2.619829950865200097e+00
2.619829950865200097e+00
2.835086519974364450e+00
2.835086519974364450e+00
2.905213660084841276e+00
2.905213660084841276e+00
2.905213660084841276e+00
3.018842127750481108e+00
3.018842127750481108e+00
2.980403454695272902e+00
2.980403454695272902e+00
2.934464552751243627e+00
2.934464552751243627e+00
2.608579607531968492e+00
2.608579607531968492e+00
2.562828211310159254e+00
2.562828211310159254e+00
2.438136906033509188e+00
2.438136906033509188e+00
2.233943174535355514e+00
2.233943174535355514e+00
2.131190038758506766e+00
2.131190038758506766e+00
2.131190038758506766e+00
2.011561387981810611e+00
2.011561387981810611e+00
1.678738731040376075e+00
1.678738731040376075e+00
1.687739005706961226e+00
1.687739005706961226e+00
1.927558824427014983e+00
1.927558824427014983e+00
1.999748527481917781e+00
1.999748527481917781e+00
1.961872371593371245e+00
1.961872371593371245e+00
2.029374431592760875e+00
2.029374431592760875e+00
2.158190862758262885e+00
2.158190862758262885e+00
2.142815393536179780e+00
2.142815393536179780e+00
2.142815393536179780e+00
2.211254982146671821e+00
2.211254982146671821e+00
2.860774803918576747e+00
2.860774803918576747e+00
3.129282998138370964e+00
3.129282998138370964e+00
2.817273476363414630e+00
2.817273476363414630e+00
2.477325601977599767e+00
2.477325601977599767e+00
2.318883266701254442e+00
2.318883266701254442e+00
2.126127384258552855e+00
2.126127384258552855e+00
1.997123447370830363e+00
1.997123447370830363e+00
1.923246192815943001e+00
1.923246192815943001e+00
1.752428479873042955e+00
1.752428479873042955e+00
1.752428479873042955e+00
1.850118961149937347e+00
1.850118961149937347e+00
2.055062715536973172e+00
2.055062715536973172e+00
2.223630359813226764e+00
2.223630359813226764e+00
2.418073793755913137e+00
2.418073793755913137e+00
2.700644917142247081e+00
2.700644917142247081e+00
2.921526657918027237e+00
2.921526657918027237e+00
2.632955351420636525e+00
2.632955351420636525e+00
2.485950865199743731e+00
2.485950865199743731e+00
2.485950865199743731e+00
2.483700796533097499e+00
2.483700796533097499e+00
2.429699148533585706e+00
2.429699148533585706e+00
2.393135532700583212e+00
2.393135532700583212e+00
2.485575853755302767e+00
2.485575853755302767e+00
2.466637775811029609e+00
2.466637775811029609e+00
2.248381115146336207e+00
2.248381115146336207e+00
2.154253242591631867e+00
2.154253242591631867e+00
2.090313791314432290e+00
2.090313791314432290e+00
2.090313791314432290e+00
2.046812463759269729e+00
2.046812463759269729e+00
1.857994201483199603e+00
1.857994201483199603e+00
2.018499099703970678e+00
2.018499099703970678e+00
2.133440107425153442e+00
2.133440107425153442e+00
2.093688894314401416e+00
2.093688894314401416e+00
2.076063356425672080e+00
2.076063356425672080e+00
2.096688985869930022e+00
2.096688985869930022e+00
2.236380748924222672e+00
2.236380748924222672e+00
2.236380748924222672e+00
2.306320383312479017e+00
2.306320383312479017e+00
2.245381023590808045e+00
2.245381023590808045e+00
2.202067201757865966e+00
2.202067201757865966e+00
2.224192876979888212e+00
2.224192876979888212e+00
2.227005462813196335e+00
2.227005462813196335e+00
2.086376171147801273e+00
2.086376171147801273e+00
2.088251228370006540e+00
2.088251228370006540e+00
2.141315347758415477e+00
2.141315347758415477e+00
2.141315347758415477e+00
2.446574663533433114e+00
2.446574663533433114e+00
2.596391735587634031e+00
2.596391735587634031e+00
2.657331095309305002e+00
2.657331095309305002e+00
2.687332010864589726e+00
2.687332010864589726e+00
2.764771874141666697e+00
2.764771874141666697e+00
2.446949674977874079e+00
2.446949674977874079e+00
2.160815942869350526e+00
2.160815942869350526e+00
2.100814111758781966e+00
2.100814111758781966e+00
2.035374614703817642e+00
2.035374614703817642e+00
2.035374614703817642e+00
2.145065462202826012e+00
2.145065462202826012e+00
2.386385326700643628e+00
2.386385326700643628e+00
2.608954618976409012e+00
2.608954618976409012e+00
2.493826105533005766e+00
2.493826105533005766e+00
2.260943998535111632e+00
2.260943998535111632e+00
2.321883358256782603e+00
2.321883358256782603e+00
2.039687246314890068e+00
2.039687246314890068e+00
1.865494430372020673e+00
1.865494430372020673e+00
1.950059511093478193e+00
1.950059511093478193e+00
1.950059511093478193e+00
2.153690725424969976e+00
2.153690725424969976e+00
2.426699056978057101e+00
2.426699056978057101e+00
2.684331919309061121e+00
2.684331919309061121e+00
2.637455488753929433e+00
2.637455488753929433e+00
2.476575579088717394e+00
2.476575579088717394e+00
2.443387066255684470e+00
2.443387066255684470e+00
2.361072054200873183e+00
2.361072054200873183e+00
2.291319925534837321e+00
2.291319925534837321e+00
2.291319925534837321e+00
2.121814752647480873e+00
2.121814752647480873e+00
1.973497726371044036e+00
1.973497726371044036e+00
1.881807428205206412e+00
1.881807428205206412e+00
1.720552507095553629e+00
1.720552507095553629e+00
1.734615436262092913e+00
1.734615436262092913e+00
1.883869991149632384e+00
1.883869991149632384e+00
2.248006103701895242e+00
2.248006103701895242e+00
2.731583361308633773e+00
2.731583361308633773e+00
2.731583361308633773e+00
3.044155400250251553e+00
3.044155400250251553e+00
2.910463820307016558e+00
2.910463820307016558e+00
2.555515488143559111e+00
2.555515488143559111e+00
2.347946653645436310e+00
2.347946653645436310e+00
2.145252967925046494e+00
2.145252967925046494e+00
1.869807061983092877e+00
1.869807061983092877e+00
1.540172002319406763e+00
1.540172002319406763e+00
1.829118320261238440e+00
1.829118320261238440e+00
2.221567796868801015e+00
2.221567796868801015e+00
2.284382213812677254e+00
2.284382213812677254e+00
2.284382213812677254e+00
2.413198644978179264e+00
2.413198644978179264e+00
2.740396130252998219e+00
2.740396130252998219e+00
3.031967528305917536e+00
3.031967528305917536e+00
2.947402447584460017e+00
2.947402447584460017e+00
2.795335306863612868e+00
2.795335306863612868e+00
2.609142124698629495e+00
2.609142124698629495e+00
2.444512100589007364e+00
2.444512100589007364e+00
2.186879238258003344e+00
2.186879238258003344e+00
1.854619098483230255e+00
1.854619098483230255e+00
1.854619098483230255e+00
1.738740562150944413e+00
1.738740562150944413e+00
1.723927610095522978e+00
1.723927610095522978e+00
2.103439191869869163e+00
2.103439191869869163e+00
2.199817133091219734e+00
2.199817133091219734e+00
2.338008850367748082e+00
2.338008850367748082e+00
2.513139194921720332e+00
2.513139194921720332e+00
2.411511093478194478e+00
2.411511093478194478e+00
2.278569536423841413e+00
2.278569536423841413e+00
2.278569536423841413e+00
2.294882534257026929e+00
2.294882534257026929e+00
2.317195715201269657e+00
2.317195715201269657e+00
1.977810357982116241e+00
1.977810357982116241e+00
1.822368114261299521e+00
1.822368114261299521e+00
1.868494521927549057e+00
1.868494521927549057e+00
1.966747520371105118e+00
1.966747520371105118e+00
1.998435987426374183e+00
1.998435987426374183e+00
2.344571550645466296e+00
2.344571550645466296e+00
2.344571550645466296e+00
2.935402081362346483e+00
2.935402081362346483e+00
2.895275856807153492e+00
2.895275856807153492e+00
2.622455030976286849e+00
2.622455030976286849e+00
2.445449629200109776e+00
2.445449629200109776e+00
2.348696676534318240e+00
2.348696676534318240e+00
2.292819971312600735e+00
2.292819971312600735e+00
2.315508163701284872e+00
2.315508163701284872e+00
2.441324503311258276e+00
2.441324503311258276e+00
2.491013519699698087e+00
2.491013519699698087e+00
2.539952513199255080e+00
2.539952513199255080e+00
2.456512466811120898e+00
2.456512466811120898e+00
2.456512466811120898e+00
2.338571367534409973e+00
2.338571367534409973e+00
1.965622486037782002e+00
1.965622486037782002e+00
1.991873287148655747e+00
1.991873287148655747e+00
2.108501846369823074e+00
2.108501846369823074e+00
1.951372051149021791e+00
1.951372051149021791e+00
1.774554155095065200e+00
1.774554155095065200e+00
1.843743766594439615e+00
1.843743766594439615e+00
2.128189947202978605e+00
2.128189947202978605e+00
2.380760155034028269e+00
2.380760155034028269e+00
2.380760155034028269e+00
2.588891506698812961e+00
2.588891506698812961e+00
2.734583452864162378e+00
2.734583452864162378e+00
2.655831049531541144e+00
2.655831049531541144e+00
2.394260567033906106e+00
2.394260567033906106e+00
2.215755119479964730e+00
2.215755119479964730e+00
2.075125827814569668e+00
2.075125827814569668e+00
1.914620929593798593e+00
1.914620929593798593e+00
2.221942808313242423e+00
2.221942808313242423e+00
2.221942808313242423e+00
2.308570451979125249e+00
2.308570451979125249e+00
2.320008301034577336e+00
2.320008301034577336e+00
2.491951048310800498e+00
2.491951048310800498e+00
2.578203680532242803e+00
2.578203680532242803e+00
2.535077364421521651e+00
2.535077364421521651e+00
2.443012054811243061e+00
2.443012054811243061e+00
2.463450178533280521e+00
2.463450178533280521e+00
2.393698049867244659e+00
2.393698049867244659e+00
2.296757591479232197e+00
2.296757591479232197e+00
2.296757591479232197e+00
2.155378276924954761e+00
2.155378276924954761e+00
2.047562486648152102e+00
2.047562486648152102e+00
1.987935666982024729e+00
1.987935666982024729e+00
2.004998687704092397e+00
2.004998687704092397e+00
2.197379558702353020e+00
2.197379558702353020e+00
2.011373882259590129e+00
2.011373882259590129e+00
1.932996490371410303e+00
1.932996490371410303e+00
1.938809167760246588e+00
1.938809167760246588e+00
1.938809167760246588e+00
1.995060884426404613e+00
1.995060884426404613e+00
2.132502578814050587e+00
2.132502578814050587e+00
2.406448438978240567e+00
2.406448438978240567e+00
2.739833613086336772e+00
2.739833613086336772e+00
2.727083223975340864e+00
2.727083223975340864e+00
2.673831598864711445e+00
2.673831598864711445e+00
2.571078463087863142e+00
2.571078463087863142e+00
2.441136997589037794e+00
2.441136997589037794e+00
2.213130039368877089e+00
2.213130039368877089e+00
2.213130039368877089e+00
2.238255806146427940e+00
2.238255806146427940e+00
2.400448255867183356e+00
2.400448255867183356e+00
2.230193060090945423e+00
2.230193060090945423e+00
2.112251960814234053e+00
2.112251960814234053e+00
2.127439924314096675e+00
2.127439924314096675e+00
2.187629261146885273e+00
2.187629261146885273e+00
2.156690816980498582e+00
2.156690816980498582e+00
2.133440107425153442e+00
2.133440107425153442e+00
2.133440107425153442e+00
2.184254158146916147e+00
2.184254158146916147e+00
2.203192236091189304e+00
2.203192236091189304e+00
2.279694570757164307e+00
2.279694570757164307e+00
2.310820520645771925e+00
2.310820520645771925e+00
2.343071504867702437e+00
2.343071504867702437e+00
2.273506881923887057e+00
2.273506881923887057e+00
2.534139835810419239e+00
2.534139835810419239e+00
2.455949949644459451e+00
2.455949949644459451e+00
2.455949949644459451e+00
2.304820337534714714e+00
2.304820337534714714e+00
2.235068208868678852e+00
2.235068208868678852e+00
2.154253242591631867e+00
2.154253242591631867e+00
2.159315897091586223e+00
2.159315897091586223e+00
2.314758140812402942e+00
2.314758140812402942e+00
2.443762077700125435e+00
2.443762077700125435e+00
2.365384685811944721e+00
2.365384685811944721e+00
2.269944273201696561e+00
2.269944273201696561e+00
2.269944273201696561e+00
2.296570085757011714e+00
2.296570085757011714e+00
2.394448072756126589e+00
2.394448072756126589e+00
2.389572923978392716e+00
2.389572923978392716e+00
2.267319193090609808e+00
2.267319193090609808e+00
2.445449629200109776e+00
2.445449629200109776e+00
2.282507156590471986e+00
2.282507156590471986e+00
2.123877315591906623e+00
2.123877315591906623e+00
2.104001709036531054e+00
2.104001709036531054e+00
2.104001709036531054e+00
2.103626697592089645e+00
2.103626697592089645e+00
2.058812829981383707e+00
2.058812829981383707e+00
2.229443037202063049e+00
2.229443037202063049e+00
2.464200201422162451e+00
2.464200201422162451e+00
2.426886562700277583e+00
2.426886562700277583e+00
2.372884914700766235e+00
2.372884914700766235e+00
2.327133518478957885e+00
2.327133518478957885e+00
2.327133518478957885e+00
2.290569902645954947e+00
2.290569902645954947e+00
2.099501571703238145e+00
2.099501571703238145e+00
2.054875209814752690e+00
2.054875209814752690e+00
2.210879970702230857e+00
2.210879970702230857e+00
2.129314981536301499e+00
2.129314981536301499e+00
2.146002990813928868e+00
2.146002990813928868e+00
2.285694753868221074e+00
2.285694753868221074e+00
2.434386791589098653e+00
2.434386791589098653e+00
2.559828119754631537e+00
2.559828119754631537e+00
2.601829401532029351e+00
2.601829401532029351e+00
2.601829401532029351e+00
2.615517319254127671e+00
2.615517319254127671e+00
2.458950041199987613e+00
2.458950041199987613e+00
2.298257637256996500e+00
2.298257637256996500e+00
2.164753563035981099e+00
2.164753563035981099e+00
2.042312326425977265e+00
2.042312326425977265e+00
1.827993285927915323e+00
1.827993285927915323e+00
1.935246559038056535e+00
1.935246559038056535e+00
2.136627704702902530e+00
2.136627704702902530e+00
2.243693472090823260e+00
2.243693472090823260e+00
2.243693472090823260e+00
2.323195898312326424e+00
2.323195898312326424e+00
2.373259926145207199e+00
2.373259926145207199e+00
2.422198919644764192e+00
2.422198919644764192e+00
2.493263588366343875e+00
2.493263588366343875e+00
2.644018189031648092e+00
2.644018189031648092e+00
2.630705282753990293e+00
2.630705282753990293e+00
2.513139194921720332e+00
2.513139194921720332e+00
2.375322489089632505e+00
2.375322489089632505e+00
2.375322489089632505e+00
2.264694112979522167e+00
2.264694112979522167e+00
2.144127933591723156e+00
2.144127933591723156e+00
1.955309671315652809e+00
1.955309671315652809e+00
2.189129306924649576e+00
2.189129306924649576e+00
2.207504867702261730e+00
2.207504867702261730e+00
2.125002349925229961e+00
2.125002349925229961e+00
2.181441572313608468e+00
2.181441572313608468e+00
2.239193334757530351e+00
2.239193334757530351e+00
2.239193334757530351e+00
2.269756767479476078e+00
2.269756767479476078e+00
2.321320841090121156e+00
2.321320841090121156e+00
2.398948210089419053e+00
2.398948210089419053e+00
2.328258552812280335e+00
2.328258552812280335e+00
2.243693472090823260e+00
2.243693472090823260e+00
2.209379924924466998e+00
2.209379924924466998e+00
2.172816309091464060e+00
2.172816309091464060e+00
2.014186468092898252e+00
2.014186468092898252e+00
2.021124179815057875e+00
2.021124179815057875e+00
2.021124179815057875e+00
2.327883541367839371e+00
2.327883541367839371e+00
2.250068666646320992e+00
2.250068666646320992e+00
2.165316080202642990e+00
2.165316080202642990e+00
2.249131138035218136e+00
2.249131138035218136e+00
2.377760063478499664e+00
2.377760063478499664e+00
2.466450270088809127e+00
2.466450270088809127e+00
2.497951231421857266e+00
2.497951231421857266e+00
2.617767387920773903e+00
2.617767387920773903e+00
2.617767387920773903e+00
2.520264412366099993e+00
2.520264412366099993e+00
2.389947935422834124e+00
2.389947935422834124e+00
2.281007110812707683e+00
2.281007110812707683e+00
2.249506149479659545e+00
2.249506149479659545e+00
2.121627246925260390e+00
2.121627246925260390e+00
2.211442487868892304e+00
2.211442487868892304e+00
2.383947752311777357e+00
2.383947752311777357e+00
2.278944547868282378e+00
2.278944547868282378e+00
2.278944547868282378e+00
2.280819605090487201e+00
2.280819605090487201e+00
2.349821710867641578e+00
2.349821710867641578e+00
2.344571550645466296e+00
2.344571550645466296e+00
2.257943906979583026e+00
2.257943906979583026e+00
2.137377727591784460e+00
2.137377727591784460e+00
1.997685964537492032e+00
1.997685964537492032e+00
1.880119876705221627e+00
1.880119876705221627e+00
1.860619281594287022e+00
1.860619281594287022e+00
1.860619281594287022e+00
1.918746055482650315e+00
1.918746055482650315e+00
2.044374889370403459e+00
2.044374889370403459e+00
2.084876125370036970e+00
2.084876125370036970e+00
2.515014252143925599e+00
2.515014252143925599e+00
2.759334208197271820e+00
2.759334208197271820e+00
2.769272011474959605e+00
2.769272011474959605e+00
2.719958006530961203e+00
2.719958006530961203e+00
2.612517227698599065e+00
2.612517227698599065e+00
2.612517227698599065e+00
2.478263130588702179e+00
2.478263130588702179e+00
2.410198553422650658e+00
2.410198553422650658e+00
2.429699148533585706e+00
2.429699148533585706e+00
2.339133884701071420e+00
2.339133884701071420e+00
2.167191137424848257e+00
2.167191137424848257e+00
2.038374706259346247e+00
2.038374706259346247e+00
2.010436353648488161e+00
2.010436353648488161e+00
1.987935666982024729e+00
1.987935666982024729e+00
1.987935666982024729e+00
1.990935758537552891e+00
1.990935758537552891e+00
2.371384868923001932e+00
2.371384868923001932e+00
2.377947569200720146e+00
2.377947569200720146e+00
2.411698599200414961e+00
2.411698599200414961e+00
2.550265327921384717e+00
2.550265327921384717e+00
2.554952970976897664e+00
2.554952970976897664e+00
2.400635761589403838e+00
2.400635761589403838e+00
2.269381756035035114e+00
2.269381756035035114e+00
2.282319650868251504e+00
2.282319650868251504e+00
2.149940610980559885e+00
2.149940610980559885e+00
2.117127109591967482e+00
2.117127109591967482e+00
2.117127109591967482e+00
2.116564592425305591e+00
2.116564592425305591e+00
2.147690542313913653e+00
2.147690542313913653e+00
2.060500381481368493e+00
2.060500381481368493e+00
2.159878414258247670e+00
2.159878414258247670e+00
2.407948484756004870e+00
2.407948484756004870e+00
2.343634022034363884e+00
2.343634022034363884e+00
2.336133793145542814e+00
2.336133793145542814e+00
2.378322580645161111e+00
2.378322580645161111e+00
2.378322580645161111e+00
2.389947935422834124e+00
2.389947935422834124e+00
2.380572649311807787e+00
2.380572649311807787e+00
2.371197363200781449e+00
2.371197363200781449e+00
2.347946653645436310e+00
2.347946653645436310e+00
2.121252235480818982e+00
2.121252235480818982e+00
1.983248023926511561e+00
1.983248023926511561e+00
1.899995483260597640e+00
1.899995483260597640e+00
1.938809167760246588e+00
1.938809167760246588e+00
1.938809167760246588e+00
1.891182714316232749e+00
1.891182714316232749e+00
2.185566698202459968e+00
2.185566698202459968e+00
2.460637592699972398e+00
2.460637592699972398e+00
2.563015717032380181e+00
2.563015717032380181e+00
2.642705648976104271e+00
2.642705648976104271e+00
2.673831598864711445e+00
2.673831598864711445e+00
2.612892239143040030e+00
2.612892239143040030e+00
2.502451368755150174e+00
2.502451368755150174e+00
2.502451368755150174e+00
2.454262398144474666e+00
2.454262398144474666e+00
2.356384411145359792e+00
2.356384411145359792e+00
2.231693105868709726e+00
2.231693105868709726e+00
2.172441297647023095e+00
2.172441297647023095e+00
2.123502304147465658e+00
2.123502304147465658e+00
2.077750907925656865e+00
2.077750907925656865e+00
2.019999145481734981e+00
2.019999145481734981e+00
2.312133060701315301e+00
2.312133060701315301e+00
2.324133426923429280e+00
2.324133426923429280e+00
2.324133426923429280e+00
2.240693380535294654e+00
2.240693380535294654e+00
2.221380291146580532e+00
2.221380291146580532e+00
2.155190771202734279e+00
2.155190771202734279e+00
2.087126194036683202e+00
2.087126194036683202e+00
2.153503219702749494e+00
2.153503219702749494e+00
2.266569170201727434e+00
2.266569170201727434e+00
2.272569353312784202e+00
2.272569353312784202e+00
2.300695211645863214e+00
2.300695211645863214e+00
2.328633564256721744e+00
2.328633564256721744e+00
2.328633564256721744e+00
2.406823450422681532e+00
2.406823450422681532e+00
2.358446974089785542e+00
2.358446974089785542e+00
2.314008117923521013e+00
2.314008117923521013e+00
2.521951963866084778e+00
2.521951963866084778e+00
2.388822901089510786e+00
2.388822901089510786e+00
2.287194799645985377e+00
2.287194799645985377e+00
2.254943815424054865e+00
2.254943815424054865e+00
2.214255073702200427e+00
2.214255073702200427e+00
2.214255073702200427e+00
2.120877224036378017e+00
2.120877224036378017e+00
2.101564134647663895e+00
2.101564134647663895e+00
2.221942808313242423e+00
2.221942808313242423e+00
2.170566240424817828e+00
2.170566240424817828e+00
2.151253151036103706e+00
2.151253151036103706e+00
2.199817133091219734e+00
2.199817133091219734e+00
2.297695120090334608e+00
2.297695120090334608e+00
2.226817957090975852e+00
2.226817957090975852e+00
2.226817957090975852e+00
2.368009765923032361e+00
2.368009765923032361e+00
2.563015717032380181e+00
2.563015717032380181e+00
2.420886379589221260e+00
2.420886379589221260e+00
2.358634479812006024e+00
2.358634479812006024e+00
2.331633655812249906e+00
2.331633655812249906e+00
2.257193884090700653e+00
2.257193884090700653e+00
2.188566789757988129e+00
2.188566789757988129e+00
2.233943174535355514e+00
2.233943174535355514e+00
2.273131870479445649e+00
2.273131870479445649e+00
2.273131870479445649e+00
2.200942167424543072e+00
2.200942167424543072e+00
2.215005096591082356e+00
2.215005096591082356e+00
2.281382122257148648e+00
2.281382122257148648e+00
2.346821619312112972e+00
2.346821619312112972e+00
2.260193975646229259e+00
2.260193975646229259e+00
2.510889126255073656e+00
2.510889126255073656e+00
2.525139561143833866e+00
2.525139561143833866e+00
2.394073061311685624e+00
2.394073061311685624e+00
2.394073061311685624e+00
2.299007660145878429e+00
2.299007660145878429e+00
2.231693105868709726e+00
2.231693105868709726e+00
2.154440748313852350e+00
2.154440748313852350e+00
2.167753654591509704e+00
2.167753654591509704e+00
2.278569536423841413e+00
2.278569536423841413e+00
2.285319742423780109e+00
2.285319742423780109e+00
2.311945554979094819e+00
2.311945554979094819e+00
2.345134067812128187e+00
2.345134067812128187e+00
2.367634754478591397e+00
2.367634754478591397e+00
2.367634754478591397e+00
2.268444227423932702e+00
2.268444227423932702e+00
2.147315530869472244e+00
2.147315530869472244e+00
2.410948576311533031e+00
2.410948576311533031e+00
2.261319009979552597e+00
2.261319009979552597e+00
2.090126285592211808e+00
2.090126285592211808e+00
2.073625782036805365e+00
2.073625782036805365e+00
2.089751274147770843e+00
2.089751274147770843e+00
2.113376995147556947e+00
2.113376995147556947e+00
2.113376995147556947e+00
2.179941526535844165e+00
2.179941526535844165e+00
2.320570818201239227e+00
2.320570818201239227e+00
2.327321024201178368e+00
2.327321024201178368e+00
2.365197180089724238e+00
2.365197180089724238e+00
2.334821253089998994e+00
2.334821253089998994e+00
2.320758323923459709e+00
2.320758323923459709e+00
2.195129490035706787e+00
2.195129490035706787e+00
2.262444044312875935e+00
2.262444044312875935e+00
2.262444044312875935e+00
2.519139378032776655e+00
2.519139378032776655e+00
2.424448988311410869e+00
2.424448988311410869e+00
2.362197088534196077e+00
2.362197088534196077e+00
2.350946745200964472e+00
2.350946745200964472e+00
2.320008301034577336e+00
2.320008301034577336e+00
2.341946470534379099e+00
2.341946470534379099e+00
2.362009582811975594e+00
2.362009582811975594e+00
2.333508713034455617e+00
2.333508713034455617e+00
2.140377819147312621e+00
2.140377819147312621e+00
2.140377819147312621e+00
2.070250679036835795e+00
2.070250679036835795e+00
2.039687246314890068e+00
2.039687246314890068e+00
2.020561662648396428e+00
2.020561662648396428e+00
1.944809350871303355e+00
1.944809350871303355e+00
2.162691000091555793e+00
2.162691000091555793e+00
2.401010773033844803e+00
2.401010773033844803e+00
2.437011871700186294e+00
2.437011871700186294e+00
2.407010956144902014e+00
2.407010956144902014e+00
2.407010956144902014e+00
2.405510910367137711e+00
2.405510910367137711e+00
2.346446607867672007e+00
2.346446607867672007e+00
2.323195898312326424e+00
2.323195898312326424e+00
2.348884182256538722e+00
2.348884182256538722e+00
2.375697500534073914e+00
2.375697500534073914e+00
2.396885647144993747e+00
2.396885647144993747e+00
2.388635395367290304e+00
2.388635395367290304e+00
2.331258644367808941e+00
2.331258644367808941e+00
2.253818781090731527e+00
2.253818781090731527e+00
2.253818781090731527e+00
2.112626972258675018e+00
2.112626972258675018e+00
2.334633747367778511e+00
2.334633747367778511e+00
2.277444502090518075e+00
2.277444502090518075e+00
2.159503402813806705e+00
2.159503402813806705e+00
2.161378460036011973e+00
2.161378460036011973e+00
2.188941801202429094e+00
2.188941801202429094e+00
2.201692190313425002e+00
2.201692190313425002e+00
2.266194158757286470e+00
2.266194158757286470e+00
2.266194158757286470e+00
2.410011047700430176e+00
2.410011047700430176e+00
2.408511001922666317e+00
2.408511001922666317e+00
2.422198919644764192e+00
2.422198919644764192e+00
2.371947386089663379e+00
2.371947386089663379e+00
2.339321390423291458e+00
2.339321390423291458e+00
2.212755027924436124e+00
2.212755027924436124e+00
2.185191686758019003e+00
2.185191686758019003e+00
2.453324869533372254e+00
2.453324869533372254e+00
2.453324869533372254e+00
2.359947019867549844e+00
2.359947019867549844e+00
2.281944639423810539e+00
2.281944639423810539e+00
2.296570085757011714e+00
2.296570085757011714e+00
2.280444593646046680e+00
2.280444593646046680e+00
2.246506057924130939e+00
2.246506057924130939e+00
2.249693655201880027e+00
2.249693655201880027e+00
2.330883632923367976e+00
2.330883632923367976e+00
2.214817590868861874e+00
2.214817590868861874e+00
2.214817590868861874e+00
2.167566148869289222e+00
2.167566148869289222e+00
2.098751548814355772e+00
2.098751548814355772e+00
2.062750450148014725e+00
2.062750450148014725e+00
1.937684133426923250e+00
1.937684133426923250e+00
2.077375896481215900e+00
2.077375896481215900e+00
2.293757499923703591e+00
2.293757499923703591e+00
2.250256172368541474e+00
2.250256172368541474e+00
2.289819879757073018e+00
2.289819879757073018e+00
2.413761162144840711e+00
2.413761162144840711e+00
2.413761162144840711e+00
2.489888485366374749e+00
2.489888485366374749e+00
2.520451918088320475e+00
2.520451918088320475e+00
2.526264595477157204e+00
2.526264595477157204e+00
2.483513290810876573e+00
2.483513290810876573e+00
2.344571550645466296e+00
2.344571550645466296e+00
2.274256904812768987e+00
2.274256904812768987e+00
2.230193060090945423e+00
2.230193060090945423e+00
2.173941343424787398e+00
2.173941343424787398e+00
2.173941343424787398e+00
2.083751091036713632e+00
2.083751091036713632e+00
2.307257911923581428e+00
2.307257911923581428e+00
2.329196081423383191e+00
2.329196081423383191e+00
2.214067567979979945e+00
2.214067567979979945e+00
2.151815668202764709e+00
2.151815668202764709e+00
2.164941068758201581e+00
2.164941068758201581e+00
2.176003906369212704e+00
2.176003906369212704e+00
2.197004547257912055e+00
2.197004547257912055e+00
2.197004547257912055e+00
2.261319009979552597e+00
2.261319009979552597e+00
2.202254707480086449e+00
2.202254707480086449e+00
2.166628620258186366e+00
2.166628620258186366e+00
2.196817041535691573e+00
2.196817041535691573e+00
2.201692190313425002e+00
2.201692190313425002e+00
2.125377361369670925e+00
2.125377361369670925e+00
2.102689168980987233e+00
2.102689168980987233e+00
2.480325693533127485e+00
2.480325693533127485e+00
2.480325693533127485e+00
2.524764549699392902e+00
2.524764549699392902e+00
2.515014252143925599e+00
2.515014252143925599e+00
2.494763634144108178e+00
2.494763634144108178e+00
2.422573931089205601e+00
2.422573931089205601e+00
2.344759056367687222e+00
2.344759056367687222e+00
2.313445600756859122e+00
2.313445600756859122e+00
2.371947386089663379e+00
2.371947386089663379e+00
2.261881527146214044e+00
2.261881527146214044e+00
2.224567888424329176e+00
2.224567888424329176e+00
2.224567888424329176e+00
2.159315897091586223e+00
2.159315897091586223e+00
2.169628711813714972e+00
2.169628711813714972e+00
2.103439191869869163e+00
2.103439191869869163e+00
2.228880520035401602e+00
2.228880520035401602e+00
2.486513382366405178e+00
2.486513382366405178e+00
2.406448438978240567e+00
2.406448438978240567e+00
2.345321573534348669e+00
2.345321573534348669e+00
2.345321573534348669e+00
2.352071779534287366e+00
2.352071779534287366e+00
2.321133335367900674e+00
2.321133335367900674e+00
2.296757591479232197e+00
2.296757591479232197e+00
2.330133610034486047e+00
2.330133610034486047e+00
2.359196996978667915e+00
2.359196996978667915e+00
2.220817773979919085e+00
2.220817773979919085e+00
2.145440473647266977e+00
2.145440473647266977e+00
2.115064546647541732e+00
2.115064546647541732e+00
2.120127201147496088e+00
2.120127201147496088e+00
2.120127201147496088e+00
2.021874202703940249e+00
2.021874202703940249e+00
2.220442762535478121e+00
2.220442762535478121e+00
2.377385052034058699e+00
2.377385052034058699e+00
2.332758690145573244e+00
2.332758690145573244e+00
2.368759788811914291e+00
2.368759788811914291e+00
2.412261116367076408e+00
2.412261116367076408e+00
2.396323129978331856e+00
2.396323129978331856e+00
2.396323129978331856e+00
2.366509720145268059e+00
2.366509720145268059e+00
2.391447981200597983e+00
2.391447981200597983e+00
2.360134525589770327e+00
2.360134525589770327e+00
2.282132145146031021e+00
2.282132145146031021e+00
2.213317545091097571e+00
2.213317545091097571e+00
2.176003906369212704e+00
2.176003906369212704e+00
2.138502761925107798e+00
2.138502761925107798e+00
2.064062990203558545e+00
2.064062990203558545e+00
2.064062990203558545e+00
2.343821527756584366e+00
2.343821527756584366e+00
2.348134159367656792e+00
2.348134159367656792e+00
2.274069399090548504e+00
2.274069399090548504e+00
2.294507522812585520e+00
2.294507522812585520e+00
2.319820795312356854e+00
2.319820795312356854e+00
2.279694570757164307e+00
2.279694570757164307e+00
2.294695028534806447e+00
2.294695028534806447e+00
2.380197637867366822e+00
2.380197637867366822e+00
2.380197637867366822e+00
2.317945738090151586e+00
2.317945738090151586e+00
2.273881893368328022e+00
2.273881893368328022e+00
2.226442945646534444e+00
2.226442945646534444e+00
2.211254982146671821e+00
2.211254982146671821e+00
2.110189397869807859e+00
2.110189397869807859e+00
2.099126560258797181e+00
2.099126560258797181e+00
2.357509445478682686e+00
2.357509445478682686e+00
2.279132053590502860e+00
2.279132053590502860e+00
2.279132053590502860e+00
2.240505874813074172e+00
2.240505874813074172e+00
2.264506607257301685e+00
2.264506607257301685e+00
2.269006744590594149e+00
2.269006744590594149e+00
2.272006836146122755e+00
2.272006836146122755e+00
2.319633289590136371e+00
2.319633289590136371e+00
2.417136265144810281e+00
2.417136265144810281e+00
2.340446424756614796e+00
2.340446424756614796e+00
2.308195440534684284e+00
2.308195440534684284e+00
2.252881252479629115e+00
2.252881252479629115e+00
2.252881252479629115e+00
2.231318094424268317e+00
2.231318094424268317e+00
2.116752098147526517e+00
2.116752098147526517e+00
2.230380565813165905e+00
2.230380565813165905e+00
2.419011322367015993e+00
2.419011322367015993e+00
2.361072054200873183e+00
2.361072054200873183e+00
2.338571367534409973e+00
2.338571367534409973e+00
2.329008575701162709e+00
2.329008575701162709e+00
2.295632557145908859e+00
2.295632557145908859e+00
2.295632557145908859e+00
2.269756767479476078e+00
2.269756767479476078e+00
2.283444685201574842e+00
2.283444685201574842e+00
2.253068758201849597e+00
2.253068758201849597e+00
2.148253059480575100e+00
2.148253059480575100e+00
2.123689809869686140e+00
2.123689809869686140e+00
2.121439741203039464e+00
2.121439741203039464e+00
2.113564500869777874e+00
2.113564500869777874e+00
2.060125370036927084e+00
2.060125370036927084e+00
2.326383495590075512e+00
2.326383495590075512e+00
2.326383495590075512e+00
2.404010864589373409e+00
2.404010864589373409e+00
2.341758964812158617e+00
2.341758964812158617e+00
2.352446790978728330e+00
2.352446790978728330e+00
2.361822077089755112e+00
2.361822077089755112e+00
2.349634205145421095e+00
2.349634205145421095e+00
2.329196081423383191e+00
2.329196081423383191e+00
2.378322580645161111e+00
2.378322580645161111e+00
2.360509537034211291e+00
2.360509537034211291e+00
2.360509537034211291e+00
2.338758873256630455e+00
2.338758873256630455e+00
2.330133610034486047e+00
2.330133610034486047e+00
2.315883175145725836e+00
2.315883175145725836e+00
2.213692556535538980e+00
2.213692556535538980e+00
2.146940519425031280e+00
2.146940519425031280e+00
2.424823999755851833e+00
2.424823999755851833e+00
2.373634937589648164e+00
2.373634937589648164e+00
2.316820703756828248e+00
2.316820703756828248e+00
2.303882808923612302e+00
2.303882808923612302e+00
2.299007660145878429e+00
2.299007660145878429e+00
2.264881618701742649e+00
2.264881618701742649e+00
2.264881618701742649e+00
2.257943906979583026e+00
2.257943906979583026e+00
2.334821253089998994e+00
2.334821253089998994e+00
2.259256447035126847e+00
2.259256447035126847e+00
2.229255531479842567e+00
2.229255531479842567e+00
2.192691915646840073e+00
2.192691915646840073e+00
2.211442487868892304e+00
2.211442487868892304e+00
2.125189855647450443e+00
2.125189855647450443e+00
2.191379375591296252e+00
2.191379375591296252e+00
2.426886562700277583e+00
2.426886562700277583e+00
2.426886562700277583e+00
2.362947111423078006e+00
2.362947111423078006e+00
2.323008392590105942e+00
2.323008392590105942e+00
2.331071138645588459e+00
2.331071138645588459e+00
2.314945646534623425e+00
2.314945646534623425e+00
2.292632465590380253e+00
2.292632465590380253e+00
2.320758323923459709e+00
2.320758323923459709e+00
2.354696859645375007e+00
2.354696859645375007e+00
2.248006103701895242e+00
2.248006103701895242e+00
2.248006103701895242e+00
2.212942533646656607e+00
2.212942533646656607e+00
2.185379192480239485e+00
2.185379192480239485e+00
2.172253791924802613e+00
2.172253791924802613e+00
2.069875667592394830e+00
2.069875667592394830e+00
2.245943540757469048e+00
2.245943540757469048e+00
2.368197271645252844e+00
2.368197271645252844e+00
2.317945738090151586e+00
2.317945738090151586e+00
2.303132786034730373e+00
2.303132786034730373e+00
2.303132786034730373e+00
2.312883083590197675e+00
2.312883083590197675e+00
2.292819971312600735e+00
2.292819971312600735e+00
2.312320566423536228e+00
2.312320566423536228e+00
2.382260200811792572e+00
2.382260200811792572e+00
2.369697317423017147e+00
2.369697317423017147e+00
2.285882259590441556e+00
2.285882259590441556e+00
2.224755394146549659e+00
2.224755394146549659e+00
2.209379924924466998e+00
2.209379924924466998e+00
2.209379924924466998e+00
2.159690908536027187e+00
2.159690908536027187e+00
2.056562761314737475e+00
2.056562761314737475e+00
2.351696768089846401e+00
2.351696768089846401e+00
2.360884548478652700e+00
2.360884548478652700e+00
2.296757591479232197e+00
2.296757591479232197e+00
2.302945280312509890e+00
2.302945280312509890e+00
2.325820978423414065e+00
2.325820978423414065e+00
2.324508438367870244e+00
2.324508438367870244e+00
2.324508438367870244e+00
2.329008575701162709e+00
2.329008575701162709e+00
2.405885921811578676e+00
2.405885921811578676e+00
2.329008575701162709e+00
2.329008575701162709e+00
2.271256813257240381e+00
2.271256813257240381e+00
2.229443037202063049e+00
2.229443037202063049e+00
2.229255531479842567e+00
2.229255531479842567e+00
2.128752464369640052e+00
2.128752464369640052e+00
2.119189672536393232e+00
2.119189672536393232e+00
2.379072603534043484e+00
2.379072603534043484e+00
2.379072603534043484e+00
2.321320841090121156e+00
2.321320841090121156e+00
2.281944639423810539e+00
2.281944639423810539e+00
2.302945280312509890e+00
2.302945280312509890e+00
2.308757957701345731e+00
2.308757957701345731e+00
2.293945005645924073e+00
2.293945005645924073e+00
2.309320474868007622e+00
2.309320474868007622e+00
2.369509811700796664e+00
2.369509811700796664e+00
2.271631824701681346e+00
2.271631824701681346e+00
2.271631824701681346e+00
2.242005920590838475e+00
2.242005920590838475e+00
2.208817407757805107e+00
2.208817407757805107e+00
2.215005096591082356e+00
2.215005096591082356e+00
2.107001800592058771e+00
2.107001800592058771e+00
2.222505325479903426e+00
2.222505325479903426e+00
2.407385967589342979e+00
2.407385967589342979e+00
2.342321481978820064e+00
2.342321481978820064e+00
2.328258552812280335e+00
2.328258552812280335e+00
2.328258552812280335e+00
2.339321390423291458e+00
2.339321390423291458e+00
2.311945554979094819e+00
2.311945554979094819e+00
2.300132694479201767e+00
2.300132694479201767e+00
2.361634571367534630e+00
2.361634571367534630e+00
2.372322397534104788e+00
2.372322397534104788e+00
2.272006836146122755e+00
2.272006836146122755e+00
2.221755302591021497e+00
2.221755302591021497e+00
2.194941984313486305e+00
2.194941984313486305e+00
2.158190862758262885e+00
2.158190862758262885e+00
2.062937955870235207e+00
2.062937955870235207e+00
2.062937955870235207e+00
2.308757957701345731e+00
2.308757957701345731e+00
2.380197637867366822e+00
2.380197637867366822e+00
2.320383312479018745e+00
2.320383312479018745e+00
2.312883083590197675e+00
2.312883083590197675e+00
2.319258278145695407e+00
2.319258278145695407e+00
2.305570360423596643e+00
2.305570360423596643e+00
2.315695669423505798e+00
2.315695669423505798e+00
2.380947660756248752e+00
2.380947660756248752e+00
2.325820978423414065e+00
2.325820978423414065e+00
2.248943632312997654e+00
2.248943632312997654e+00
2.213130039368877089e+00
2.213130039368877089e+00
2.213130039368877089e+00
2.218755211035493335e+00
2.218755211035493335e+00
2.156503311258278099e+00
2.156503311258278099e+00
2.108126834925382109e+00
2.108126834925382109e+00
2.397073152867214230e+00
2.397073152867214230e+00
2.349634205145421095e+00
2.349634205145421095e+00
2.293007477034821662e+00
2.293007477034821662e+00
2.307820429090243319e+00
2.307820429090243319e+00
2.313258095034638639e+00
2.313258095034638639e+00
2.313258095034638639e+00
2.308945463423566213e+00
2.308945463423566213e+00
2.330321115756706529e+00
2.330321115756706529e+00
2.404198370311593891e+00
2.404198370311593891e+00
2.294882534257026929e+00
2.294882534257026929e+00
2.243505966368602778e+00
2.243505966368602778e+00
2.199067110202337361e+00
2.199067110202337361e+00
2.203192236091189304e+00
2.203192236091189304e+00
2.098751548814355772e+00
2.098751548814355772e+00
2.098751548814355772e+00
2.170191228980376863e+00
2.170191228980376863e+00
2.407573473311563461e+00
2.407573473311563461e+00
2.333508713034455617e+00
2.333508713034455617e+00
2.295070039979247412e+00
2.295070039979247412e+00
2.315695669423505798e+00
2.315695669423505798e+00
2.310445509201330516e+00
2.310445509201330516e+00
2.295820062868129341e+00
2.295820062868129341e+00
2.324133426923429280e+00
2.324133426923429280e+00
2.324133426923429280e+00
2.367072237311929506e+00
2.367072237311929506e+00
2.275756950590533290e+00
2.275756950590533290e+00
2.238255806146427940e+00
2.238255806146427940e+00
2.215005096591082356e+00
2.215005096591082356e+00
2.191004364146854844e+00
2.191004364146854844e+00
2.079250953703421168e+00
2.079250953703421168e+00
2.264319101535081202e+00
2.264319101535081202e+00
2.397073152867214230e+00
2.397073152867214230e+00
2.331071138645588459e+00
2.331071138645588459e+00
2.331071138645588459e+00
2.317570726645710621e+00
2.317570726645710621e+00
2.334071230201117064e+00
2.334071230201117064e+00
2.336133793145542814e+00
2.336133793145542814e+00
2.326946012756737403e+00
2.326946012756737403e+00
2.364259651478621826e+00
2.364259651478621826e+00
2.334821253089998994e+00
2.334821253089998994e+00
2.252506241035188150e+00
2.252506241035188150e+00
2.211254982146671821e+00
2.211254982146671821e+00
2.211254982146671821e+00
2.215005096591082356e+00
2.215005096591082356e+00
2.183879146702475182e+00
2.183879146702475182e+00
2.096126468703268575e+00
2.096126468703268575e+00
2.364447157200842309e+00
2.364447157200842309e+00
2.345134067812128187e+00
2.345134067812128187e+00
2.280069582201605716e+00
2.280069582201605716e+00
2.299195165868098911e+00
2.299195165868098911e+00
2.301070223090304623e+00
2.301070223090304623e+00
2.301070223090304623e+00
2.284944730979339145e+00
2.284944730979339145e+00
2.294695028534806447e+00
2.294695028534806447e+00
2.365009674367503756e+00
2.365009674367503756e+00
2.309882992034669069e+00
2.309882992034669069e+00
2.258693929868464956e+00
2.258693929868464956e+00
2.215192602313302839e+00
2.215192602313302839e+00
2.222880336924344391e+00
2.222880336924344391e+00
2.143190404980620745e+00
2.143190404980620745e+00
2.143190404980620745e+00
2.150128116702780368e+00
2.150128116702780368e+00
2.414511185033723084e+00
2.414511185033723084e+00
2.351509262367625919e+00
2.351509262367625919e+00
2.305570360423596643e+00
2.305570360423596643e+00
2.323383404034546906e+00
2.323383404034546906e+00
2.311945554979094819e+00
2.311945554979094819e+00
2.294132511368144556e+00
2.294132511368144556e+00
2.328633564256721744e+00
2.328633564256721744e+00
2.328633564256721744e+00
2.404573381756035300e+00
2.404573381756035300e+00
2.301632740256966070e+00
2.301632740256966070e+00
2.265819147312845505e+00
2.265819147312845505e+00
2.229818048646504014e+00
2.229818048646504014e+00
2.210317453535568966e+00
2.210317453535568966e+00
2.089376262703329878e+00
2.089376262703329878e+00
2.211817499313333268e+00
2.211817499313333268e+00
2.382635212256233537e+00
2.382635212256233537e+00
2.304257820368053267e+00
2.304257820368053267e+00
2.304257820368053267e+00
2.284007202368236289e+00
2.284007202368236289e+00
2.305195348979155678e+00
2.305195348979155678e+00
2.308570451979125249e+00
2.308570451979125249e+00
2.314758140812402942e+00
2.314758140812402942e+00
2.362197088534196077e+00
2.362197088534196077e+00
2.358634479812006024e+00
2.358634479812006024e+00
2.268631733146153184e+00
2.268631733146153184e+00
2.230193060090945423e+00
2.230193060090945423e+00
2.220817773979919085e+00
2.220817773979919085e+00
2.191379375591296252e+00
2.191379375591296252e+00
2.191379375591296252e+00
2.095001434369945237e+00
2.095001434369945237e+00
2.333883724478896582e+00
2.333883724478896582e+00
2.385260292367321178e+00
2.385260292367321178e+00
2.320195806756797818e+00
2.320195806756797818e+00
2.320195806756797818e+00
2.320195806756797818e+00
2.325445966978973100e+00
2.325445966978973100e+00
2.303507797479171337e+00
2.303507797479171337e+00
2.305757866145817125e+00
2.305757866145817125e+00
2.370072328867458111e+00
2.370072328867458111e+00
2.370072328867458111e+00
2.327321024201178368e+00
2.327321024201178368e+00
2.256818872646260132e+00
2.256818872646260132e+00
2.205067293313394572e+00
2.205067293313394572e+00
2.200004638813440216e+00
2.200004638813440216e+00
2.148065553758354618e+00
2.148065553758354618e+00
2.112626972258675018e+00
2.112626972258675018e+00
2.397073152867214230e+00
2.397073152867214230e+00
2.352634296700948813e+00
2.352634296700948813e+00
2.352634296700948813e+00
2.300320200201422249e+00
2.300320200201422249e+00
2.318508255256813033e+00
2.318508255256813033e+00
2.320758323923459709e+00
2.320758323923459709e+00
2.300320200201422249e+00
2.300320200201422249e+00
2.310820520645771925e+00
2.310820520645771925e+00
2.392198004089480357e+00
2.392198004089480357e+00
2.314195623645741495e+00
2.314195623645741495e+00
2.314195623645741495e+00
2.276881984923856628e+00
2.276881984923856628e+00
2.224380382702108694e+00
2.224380382702108694e+00
2.220442762535478121e+00
2.220442762535478121e+00
2.114877040925321250e+00
2.114877040925321250e+00
2.184629169591357556e+00
2.184629169591357556e+00
2.396135624256111374e+00
2.396135624256111374e+00
2.319445783867915889e+00
2.319445783867915889e+00
2.298257637256996500e+00
2.298257637256996500e+00
2.298257637256996500e+00
2.320008301034577336e+00
2.320008301034577336e+00
2.298445142979216982e+00
2.298445142979216982e+00
2.282132145146031021e+00
2.282132145146031021e+00
2.315508163701284872e+00
2.315508163701284872e+00
2.355821893978697901e+00
2.355821893978697901e+00
2.261506515701773079e+00
2.261506515701773079e+00
2.226630451368755370e+00
2.226630451368755370e+00
2.211442487868892304e+00
2.211442487868892304e+00
2.199067110202337361e+00
2.199067110202337361e+00
2.118439649647511303e+00
2.118439649647511303e+00
2.118439649647511303e+00
2.316445692312387283e+00
2.316445692312387283e+00
2.419011322367015993e+00
2.419011322367015993e+00
2.337071321756645670e+00
2.337071321756645670e+00
2.314383129367961978e+00
2.314383129367961978e+00
2.321320841090121156e+00
2.321320841090121156e+00
2.302945280312509890e+00
2.302945280312509890e+00
2.298070131534776017e+00
2.298070131534776017e+00
2.352071779534287366e+00
2.352071779534287366e+00
2.352071779534287366e+00
2.333696218756676100e+00
2.333696218756676100e+00
2.261131504257332114e+00
2.261131504257332114e+00
2.212567522202215642e+00
2.212567522202215642e+00
2.198692098757896396e+00
2.198692098757896396e+00
2.157253334147160473e+00
2.157253334147160473e+00
2.089938779869991325e+00
2.089938779869991325e+00
2.378135074922940628e+00
2.378135074922940628e+00
2.373822443311869090e+00
2.373822443311869090e+00
2.373822443311869090e+00
2.319070772423474924e+00
2.319070772423474924e+00
2.335946287423322332e+00
2.335946287423322332e+00
2.348321665089877275e+00
2.348321665089877275e+00
2.338196356089969008e+00
2.338196356089969008e+00
2.342883999145481511e+00
2.342883999145481511e+00
2.398198187200537124e+00
2.398198187200537124e+00
2.317945738090151586e+00
2.317945738090151586e+00
2.257006378368480615e+00
2.257006378368480615e+00
2.202067201757865966e+00
2.202067201757865966e+00
2.202067201757865966e+00
2.208442396313364142e+00
2.208442396313364142e+00
2.109439374980925930e+00
2.109439374980925930e+00
2.126314889980773337e+00
2.126314889980773337e+00
2.398010681478316641e+00
2.398010681478316641e+00
2.332758690145573244e+00
2.332758690145573244e+00
2.286819788201544412e+00
2.286819788201544412e+00
2.311383037812433372e+00
2.311383037812433372e+00
2.314570635090182460e+00
2.314570635090182460e+00
2.305195348979155678e+00
2.305195348979155678e+00
2.305195348979155678e+00
2.331071138645588459e+00
2.331071138645588459e+00
2.387135349589526001e+00
2.387135349589526001e+00
2.278382030701620931e+00
2.278382030701620931e+00
2.242568437757499922e+00
2.242568437757499922e+00
2.209004913480026033e+00
2.209004913480026033e+00
2.208817407757805107e+00
2.208817407757805107e+00
2.111501937925351680e+00
2.111501937925351680e+00
2.236380748924222672e+00
2.236380748924222672e+00
2.402323313089388623e+00
2.402323313089388623e+00
2.402323313089388623e+00
2.330883632923367976e+00
2.330883632923367976e+00
2.305382854701376161e+00
2.305382854701376161e+00
2.316633198034607766e+00
2.316633198034607766e+00
