2.134565141758476781e+00
2.134565141758476781e+00
2.134565141758476781e+00
2.134565141758476781e+00
2.111314432203131197e+00
2.111314432203131197e+00
2.111314432203131197e+00
2.505263954588457853e+00
2.505263954588457853e+00
2.505263954588457853e+00
2.329008575701162709e+00
2.329008575701162709e+00
2.329008575701162709e+00
2.247818597979674760e+00
2.247818597979674760e+00
2.247818597979674760e+00
2.247818597979674760e+00
2.245193517868587563e+00
2.245193517868587563e+00
2.245193517868587563e+00
2.227192968535416817e+00
2.227192968535416817e+00
2.227192968535416817e+00
2.227192968535416817e+00
2.238068300424207457e+00
2.238068300424207457e+00
2.238068300424207457e+00
2.267506698812830290e+00
2.267506698812830290e+00
2.267506698812830290e+00
2.412073610644855925e+00
2.412073610644855925e+00
2.412073610644855925e+00
2.412073610644855925e+00
2.273694387646107540e+00
2.273694387646107540e+00
2.273694387646107540e+00
2.256631366924039650e+00
2.256631366924039650e+00
2.256631366924039650e+00
2.251756218146305777e+00
2.251756218146305777e+00
2.251756218146305777e+00
2.251756218146305777e+00
2.269944273201696561e+00
2.269944273201696561e+00
2.269944273201696561e+00
2.113001983703115982e+00
2.113001983703115982e+00
2.113001983703115982e+00
2.233005645924253102e+00
2.233005645924253102e+00
2.233005645924253102e+00
2.233005645924253102e+00
2.513326700643940814e+00
2.513326700643940814e+00
2.513326700643940814e+00
2.294695028534806447e+00
2.294695028534806447e+00
2.294695028534806447e+00
2.267506698812830290e+00
2.267506698812830290e+00
2.267506698812830290e+00
2.267506698812830290e+00
2.260006469924008776e+00
2.260006469924008776e+00
2.260006469924008776e+00
2.246693563646351421e+00
2.246693563646351421e+00
2.246693563646351421e+00
2.260756492812891150e+00
2.260756492812891150e+00
2.260756492812891150e+00
2.260756492812891150e+00
2.294132511368144556e+00
2.294132511368144556e+00
2.294132511368144556e+00
2.386385326700643628e+00
2.386385326700643628e+00
2.386385326700643628e+00
2.246693563646351421e+00
2.246693563646351421e+00
2.246693563646351421e+00
2.246693563646351421e+00
2.221755302591021497e+00
2.221755302591021497e+00
2.221755302591021497e+00
2.237693288979766049e+00
2.237693288979766049e+00
2.212192510757774677e+00
2.212192510757774677e+00
2.212192510757774677e+00
2.084688619647816488e+00
2.084688619647816488e+00
2.084688619647816488e+00
2.084688619647816488e+00
2.325258461256752618e+00
2.325258461256752618e+00
2.325258461256752618e+00
2.439074434644612044e+00
2.439074434644612044e+00
2.439074434644612044e+00
2.277069490646077110e+00
2.277069490646077110e+00
2.277069490646077110e+00
2.277069490646077110e+00
2.262819055757316900e+00
2.262819055757316900e+00
2.262819055757316900e+00
2.242568437757499922e+00
2.242568437757499922e+00
2.242568437757499922e+00
2.253068758201849597e+00
2.253068758201849597e+00
2.253068758201849597e+00
2.253068758201849597e+00
2.273694387646107540e+00
2.273694387646107540e+00
2.273694387646107540e+00
2.347759147923215384e+00
2.347759147923215384e+00
2.347759147923215384e+00
2.345321573534348669e+00
2.345321573534348669e+00
2.345321573534348669e+00
2.345321573534348669e+00
2.261694021423993561e+00
2.261694021423993561e+00
2.261694021423993561e+00
2.251568712424085295e+00
2.251568712424085295e+00
2.251568712424085295e+00
2.263756584368419311e+00
2.263756584368419311e+00
2.263756584368419311e+00
2.177316446424756524e+00
2.177316446424756524e+00
2.177316446424756524e+00
2.103251686147648680e+00
2.103251686147648680e+00
2.103251686147648680e+00
2.103251686147648680e+00
2.469075350199895880e+00
2.469075350199895880e+00
2.469075350199895880e+00
2.376447523422955843e+00
2.376447523422955843e+00
2.376447523422955843e+00
2.265819147312845505e+00
2.265819147312845505e+00
2.265819147312845505e+00
2.265819147312845505e+00
2.260756492812891150e+00
2.260756492812891150e+00
2.260756492812891150e+00
2.230755577257606870e+00
2.230755577257606870e+00
2.230755577257606870e+00
2.230755577257606870e+00
2.231693105868709726e+00
2.231693105868709726e+00
2.231693105868709726e+00
2.249693655201880027e+00
2.249693655201880027e+00
2.249693655201880027e+00
2.378322580645161111e+00
2.378322580645161111e+00
2.378322580645161111e+00
2.297507614368114126e+00
2.297507614368114126e+00
2.297507614368114126e+00
2.264319101535081202e+00
2.264319101535081202e+00
2.264319101535081202e+00
2.264319101535081202e+00
2.237130771813104602e+00
2.237130771813104602e+00
2.237130771813104602e+00
2.269944273201696561e+00
2.269944273201696561e+00
2.269944273201696561e+00
2.146940519425031280e+00
2.146940519425031280e+00
2.146940519425031280e+00
2.146940519425031280e+00
2.149003082369457029e+00
2.149003082369457029e+00
2.149003082369457029e+00
2.524577043977172419e+00
2.524577043977172419e+00
2.524577043977172419e+00
2.320008301034577336e+00
2.320008301034577336e+00
2.320008301034577336e+00
2.320008301034577336e+00
2.262069032868434526e+00
2.262069032868434526e+00
2.262069032868434526e+00
2.250068666646320992e+00
2.250068666646320992e+00
2.250068666646320992e+00
2.250068666646320992e+00
2.229068025757622085e+00
2.229068025757622085e+00
2.229068025757622085e+00
2.233755668813135031e+00
2.233755668813135031e+00
2.233755668813135031e+00
2.252506241035188150e+00
2.252506241035188150e+00
2.252506241035188150e+00
2.252506241035188150e+00
2.405135898922696747e+00
2.405135898922696747e+00
2.405135898922696747e+00
2.273694387646107540e+00
2.273694387646107540e+00
2.273694387646107540e+00
2.253256263924070080e+00
2.253256263924070080e+00
2.253256263924070080e+00
2.253256263924070080e+00
2.249131138035218136e+00
2.249131138035218136e+00
2.249131138035218136e+00
2.256631366924039650e+00
2.256631366924039650e+00
2.256631366924039650e+00
2.108689352092044000e+00
2.108689352092044000e+00
2.108689352092044000e+00
2.108689352092044000e+00
2.263944090090640238e+00
2.263944090090640238e+00
2.263944090090640238e+00
2.480888210699789376e+00
2.480888210699789376e+00
2.480888210699789376e+00
2.273694387646107540e+00
2.273694387646107540e+00
2.273694387646107540e+00
2.273694387646107540e+00
2.245568529313028083e+00
2.245568529313028083e+00
2.245568529313028083e+00
2.234130680257575996e+00
2.234130680257575996e+00
2.234130680257575996e+00
2.234130680257575996e+00
2.232630634479812137e+00
2.232630634479812137e+00
2.232630634479812137e+00
2.253631275368511044e+00
2.253631275368511044e+00
2.253631275368511044e+00
2.305945371868038052e+00
2.305945371868038052e+00
2.305945371868038052e+00
2.305945371868038052e+00
2.360322031311990809e+00
2.360322031311990809e+00
2.360322031311990809e+00
2.251568712424085295e+00
2.251568712424085295e+00
2.251568712424085295e+00
2.229630542924283532e+00
2.229630542924283532e+00
2.229630542924283532e+00
2.229630542924283532e+00
2.258881435590685438e+00
2.258881435590685438e+00
2.258881435590685438e+00
2.215755119479964730e+00
2.215755119479964730e+00
2.215755119479964730e+00
2.114127018036439321e+00
2.114127018036439321e+00
2.114127018036439321e+00
2.400635761589403838e+00
2.400635761589403838e+00
2.400635761589403838e+00
2.400635761589403838e+00
2.433824274422437206e+00
2.433824274422437206e+00
2.433824274422437206e+00
2.284757225257118218e+00
2.284757225257118218e+00
2.284757225257118218e+00
2.273506881923887057e+00
2.273506881923887057e+00
2.273506881923887057e+00
2.273506881923887057e+00
2.242193426313058957e+00
2.242193426313058957e+00
2.242193426313058957e+00
2.236755760368663637e+00
2.236755760368663637e+00
2.236755760368663637e+00
2.236755760368663637e+00
2.260006469924008776e+00
2.260006469924008776e+00
2.260006469924008776e+00
2.359759514145329362e+00
2.359759514145329362e+00
2.359759514145329362e+00
2.324133426923429280e+00
2.324133426923429280e+00
2.324133426923429280e+00
2.324133426923429280e+00
2.249131138035218136e+00
2.249131138035218136e+00
2.249131138035218136e+00
2.230943082979827352e+00
2.230943082979827352e+00
2.230943082979827352e+00
2.257381389812921579e+00
2.257381389812921579e+00
2.257381389812921579e+00
2.257381389812921579e+00
2.160065919980468152e+00
2.160065919980468152e+00
2.160065919980468152e+00
2.118627155369731785e+00
2.118627155369731785e+00
2.118627155369731785e+00
2.501513840144047762e+00
2.501513840144047762e+00
2.501513840144047762e+00
2.501513840144047762e+00
2.343259010589922919e+00
2.343259010589922919e+00
2.343259010589922919e+00
2.251006195257423848e+00
2.251006195257423848e+00
2.251006195257423848e+00
2.249506149479659545e+00
2.249506149479659545e+00
2.249506149479659545e+00
2.249506149479659545e+00
2.229630542924283532e+00
2.229630542924283532e+00
2.229630542924283532e+00
2.231318094424268317e+00
2.231318094424268317e+00
2.231318094424268317e+00
2.231318094424268317e+00
2.269381756035035114e+00
2.269381756035035114e+00
2.269381756035035114e+00
2.418823816644795066e+00
2.418823816644795066e+00
2.418823816644795066e+00
2.301070223090304623e+00
2.301070223090304623e+00
2.301070223090304623e+00
2.301070223090304623e+00
2.256818872646260132e+00
2.256818872646260132e+00
2.256818872646260132e+00
2.239568346201971760e+00
2.239568346201971760e+00
2.239568346201971760e+00
2.258693929868464956e+00
2.258693929868464956e+00
2.258693929868464956e+00
2.258693929868464956e+00
2.111126926480910715e+00
2.111126926480910715e+00
2.111126926480910715e+00
2.189129306924649576e+00
2.189129306924649576e+00
2.189129306924649576e+00
2.519514389477218064e+00
2.519514389477218064e+00
2.519514389477218064e+00
2.519514389477218064e+00
2.306695394756919981e+00
2.306695394756919981e+00
2.306695394756919981e+00
2.263381572923978347e+00
2.263381572923978347e+00
2.263381572923978347e+00
2.263381572923978347e+00
2.253818781090731527e+00
2.253818781090731527e+00
2.253818781090731527e+00
2.229630542924283532e+00
2.229630542924283532e+00
2.229630542924283532e+00
2.246318552201910457e+00
2.246318552201910457e+00
2.246318552201910457e+00
2.246318552201910457e+00
2.269194250312814631e+00
2.269194250312814631e+00
2.269194250312814631e+00
2.387697866756187448e+00
2.387697866756187448e+00
2.387697866756187448e+00
2.254193792535172935e+00
2.254193792535172935e+00
2.254193792535172935e+00
2.254193792535172935e+00
2.243130954924161813e+00
2.243130954924161813e+00
2.243130954924161813e+00
2.252693746757408633e+00
2.252693746757408633e+00
2.252693746757408633e+00
2.235443220313119816e+00
2.235443220313119816e+00
2.235443220313119816e+00
2.235443220313119816e+00
2.117689626758628929e+00
2.117689626758628929e+00
2.117689626758628929e+00
2.315133152256843907e+00
2.315133152256843907e+00
2.315133152256843907e+00
2.475263039033173573e+00
2.475263039033173573e+00
2.475263039033173573e+00
2.475263039033173573e+00
2.283069673757133433e+00
2.283069673757133433e+00
2.283069673757133433e+00
2.261319009979552597e+00
2.261319009979552597e+00
2.261319009979552597e+00
2.249131138035218136e+00
2.249131138035218136e+00
2.249131138035218136e+00
2.249131138035218136e+00
2.243318460646382295e+00
2.243318460646382295e+00
2.243318460646382295e+00
2.267131687368389326e+00
2.267131687368389326e+00
2.267131687368389326e+00
2.325258461256752618e+00
2.325258461256752618e+00
2.325258461256752618e+00
2.325258461256752618e+00
2.353196813867610704e+00
2.353196813867610704e+00
2.353196813867610704e+00
2.248943632312997654e+00
2.248943632312997654e+00
2.248943632312997654e+00
2.234693197424237443e+00
2.234693197424237443e+00
2.234693197424237443e+00
2.234693197424237443e+00
2.249131138035218136e+00
2.249131138035218136e+00
2.249131138035218136e+00
2.185941709646900932e+00
2.185941709646900932e+00
2.185941709646900932e+00
2.099689077425458628e+00
2.099689077425458628e+00
2.099689077425458628e+00
2.099689077425458628e+00
2.429136631366924259e+00
2.429136631366924259e+00
2.429136631366924259e+00
2.386760338145085036e+00
2.386760338145085036e+00
2.386760338145085036e+00
2.242193426313058957e+00
2.242193426313058957e+00
2.242193426313058957e+00
2.242193426313058957e+00
2.234880703146458369e+00
2.234880703146458369e+00
2.234880703146458369e+00
2.214630085146641392e+00
2.214630085146641392e+00
2.214630085146641392e+00
2.225317911313211550e+00
2.225317911313211550e+00
2.225317911313211550e+00
2.225317911313211550e+00
2.251193700979644330e+00
2.251193700979644330e+00
2.251193700979644330e+00
2.372509903256325270e+00
2.372509903256325270e+00
2.372509903256325270e+00
2.372509903256325270e+00
2.309132969145787140e+00
2.309132969145787140e+00
2.309132969145787140e+00
2.250631183812982439e+00
2.250631183812982439e+00
2.250631183812982439e+00
2.248381115146336207e+00
2.248381115146336207e+00
2.248381115146336207e+00
2.248381115146336207e+00
2.289257362590411127e+00
2.289257362590411127e+00
2.289257362590411127e+00
2.159690908536027187e+00
2.159690908536027187e+00
2.159690908536027187e+00
2.140940336313974068e+00
2.140940336313974068e+00
2.140940336313974068e+00
2.140940336313974068e+00
2.535827387310404024e+00
2.535827387310404024e+00
2.535827387310404024e+00
2.350946745200964472e+00
2.350946745200964472e+00
2.350946745200964472e+00
2.272381847590563719e+00
2.272381847590563719e+00
2.272381847590563719e+00
2.272381847590563719e+00
2.261694021423993561e+00
2.261694021423993561e+00
2.261694021423993561e+00
2.242005920590838475e+00
2.242005920590838475e+00
2.242005920590838475e+00
2.246131046479689974e+00
2.246131046479689974e+00
2.246131046479689974e+00
2.246131046479689974e+00
2.263006561479537382e+00
2.263006561479537382e+00
2.263006561479537382e+00
2.405323404644917229e+00
2.405323404644917229e+00
2.405323404644917229e+00
2.272006836146122755e+00
2.272006836146122755e+00
2.272006836146122755e+00
2.272006836146122755e+00
2.241443403424177028e+00
2.241443403424177028e+00
2.241443403424177028e+00
2.246131046479689974e+00
2.246131046479689974e+00
2.246131046479689974e+00
2.259068941312906365e+00
2.259068941312906365e+00
2.259068941312906365e+00
2.259068941312906365e+00
2.107564317758720662e+00
2.107564317758720662e+00
2.107564317758720662e+00
2.235068208868678852e+00
2.235068208868678852e+00
2.235068208868678852e+00
2.493451094088564801e+00
2.493451094088564801e+00
2.493451094088564801e+00
2.493451094088564801e+00
2.275006927701650916e+00
2.275006927701650916e+00
2.275006927701650916e+00
2.246693563646351421e+00
2.246693563646351421e+00
2.246693563646351421e+00
2.243880977813043742e+00
2.243880977813043742e+00
2.243880977813043742e+00
2.243880977813043742e+00
2.228505508590960638e+00
2.228505508590960638e+00
2.228505508590960638e+00
2.255506332590716312e+00
2.255506332590716312e+00
2.255506332590716312e+00
2.255506332590716312e+00
2.295070039979247412e+00
2.295070039979247412e+00
2.295070039979247412e+00
2.384697775200659287e+00
2.384697775200659287e+00
2.384697775200659287e+00
2.252318735312967224e+00
2.252318735312967224e+00
2.252318735312967224e+00
2.252318735312967224e+00
2.232630634479812137e+00
2.232630634479812137e+00
2.232630634479812137e+00
2.246693563646351421e+00
2.246693563646351421e+00
2.246693563646351421e+00
2.231318094424268317e+00
2.231318094424268317e+00
2.231318094424268317e+00
2.231318094424268317e+00
2.137002716147343495e+00
2.137002716147343495e+00
2.137002716147343495e+00
2.360884548478652700e+00
2.360884548478652700e+00
2.360884548478652700e+00
2.439636951811273491e+00
2.439636951811273491e+00
2.439636951811273491e+00
2.439636951811273491e+00
2.269194250312814631e+00
2.269194250312814631e+00
2.269194250312814631e+00
2.250818689535202921e+00
2.250818689535202921e+00
2.250818689535202921e+00
2.226442945646534444e+00
2.226442945646534444e+00
2.226442945646534444e+00
2.226442945646534444e+00
2.232068117313150690e+00
2.232068117313150690e+00
2.232068117313150690e+00
2.262444044312875935e+00
2.262444044312875935e+00
2.262444044312875935e+00
2.262444044312875935e+00
2.342321481978820064e+00
2.342321481978820064e+00
2.342321481978820064e+00
2.341571459089938134e+00
2.341571459089938134e+00
2.341571459089938134e+00
2.258693929868464956e+00
2.258693929868464956e+00
2.258693929868464956e+00
2.258693929868464956e+00
2.259631458479567812e+00
2.259631458479567812e+00
2.259631458479567812e+00
2.285882259590441556e+00
2.285882259590441556e+00
2.285882259590441556e+00
2.185379192480239485e+00
2.185379192480239485e+00
2.185379192480239485e+00
2.185379192480239485e+00
2.107751823480941145e+00
2.107751823480941145e+00
2.107751823480941145e+00
2.472262947477644968e+00
2.472262947477644968e+00
2.472262947477644968e+00
2.365384685811944721e+00
2.365384685811944721e+00
2.365384685811944721e+00
2.365384685811944721e+00
2.251568712424085295e+00
2.251568712424085295e+00
2.251568712424085295e+00
2.246693563646351421e+00
2.246693563646351421e+00
2.246693563646351421e+00
2.230380565813165905e+00
2.230380565813165905e+00
2.230380565813165905e+00
2.230380565813165905e+00
2.232818140202032620e+00
2.232818140202032620e+00
2.232818140202032620e+00
2.259631458479567812e+00
2.259631458479567812e+00
2.259631458479567812e+00
2.386010315256203107e+00
2.386010315256203107e+00
2.386010315256203107e+00
2.386010315256203107e+00
2.287382305368205859e+00
2.287382305368205859e+00
2.287382305368205859e+00
2.237880794701986531e+00
2.237880794701986531e+00
2.237880794701986531e+00
2.232630634479812137e+00
2.232630634479812137e+00
2.232630634479812137e+00
2.232630634479812137e+00
2.256818872646260132e+00
2.256818872646260132e+00
2.256818872646260132e+00
2.116377086703085553e+00
2.116377086703085553e+00
2.116377086703085553e+00
2.144502945036164565e+00
2.144502945036164565e+00
2.144502945036164565e+00
2.144502945036164565e+00
2.509951597643971244e+00
2.509951597643971244e+00
2.509951597643971244e+00
2.301820245979186552e+00
2.301820245979186552e+00
2.301820245979186552e+00
2.254381298257393418e+00
2.254381298257393418e+00
2.254381298257393418e+00
2.254381298257393418e+00
2.260756492812891150e+00
2.260756492812891150e+00
2.260756492812891150e+00
2.247256080813012868e+00
2.247256080813012868e+00
2.247256080813012868e+00
2.253818781090731527e+00
2.253818781090731527e+00
2.253818781090731527e+00
2.253818781090731527e+00
2.264319101535081202e+00
2.264319101535081202e+00
2.264319101535081202e+00
2.397635670033875677e+00
2.397635670033875677e+00
2.397635670033875677e+00
2.282319650868251504e+00
2.282319650868251504e+00
2.282319650868251504e+00
2.282319650868251504e+00
2.278569536423841413e+00
2.278569536423841413e+00
2.278569536423841413e+00
2.266194158757286470e+00
2.266194158757286470e+00
2.266194158757286470e+00
2.259256447035126847e+00
2.259256447035126847e+00
2.259256447035126847e+00
2.259256447035126847e+00
2.120314706869716570e+00
2.120314706869716570e+00
2.120314706869716570e+00
2.286444776757103448e+00
2.286444776757103448e+00
2.286444776757103448e+00
2.286444776757103448e+00
2.495888668477431516e+00
2.495888668477431516e+00
2.495888668477431516e+00
2.297695120090334608e+00
2.297695120090334608e+00
2.297695120090334608e+00
2.265069124423963132e+00
2.265069124423963132e+00
2.265069124423963132e+00
2.248756126590777171e+00
2.248756126590777171e+00
2.248756126590777171e+00
2.248756126590777171e+00
2.233755668813135031e+00
2.233755668813135031e+00
2.233755668813135031e+00
2.257568895535142062e+00
2.257568895535142062e+00
2.257568895535142062e+00
2.257568895535142062e+00
2.307445417645802355e+00
2.307445417645802355e+00
2.307445417645802355e+00
2.362759605700857524e+00
2.362759605700857524e+00
2.362759605700857524e+00
2.254006286812952009e+00
2.254006286812952009e+00
2.254006286812952009e+00
2.254006286812952009e+00
2.225130405590991067e+00
2.225130405590991067e+00
2.225130405590991067e+00
2.236380748924222672e+00
2.236380748924222672e+00
2.236380748924222672e+00
2.181629078035828950e+00
2.181629078035828950e+00
2.181629078035828950e+00
2.181629078035828950e+00
2.097814020203253360e+00
2.097814020203253360e+00
2.097814020203253360e+00
2.397635670033875677e+00
2.397635670033875677e+00
2.397635670033875677e+00
2.407385967589342979e+00
2.407385967589342979e+00
2.407385967589342979e+00
2.407385967589342979e+00
2.246693563646351421e+00
2.246693563646351421e+00
2.246693563646351421e+00
2.240318369090853690e+00
2.240318369090853690e+00
2.240318369090853690e+00
2.230005554368724940e+00
2.230005554368724940e+00
2.230005554368724940e+00
2.235443220313119816e+00
2.235443220313119816e+00
2.235443220313119816e+00
2.235443220313119816e+00
2.253818781090731527e+00
2.253818781090731527e+00
2.253818781090731527e+00
2.354321848200934042e+00
2.354321848200934042e+00
2.354321848200934042e+00
2.326946012756737403e+00
2.326946012756737403e+00
2.326946012756737403e+00
2.326946012756737403e+00
2.259631458479567812e+00
2.259631458479567812e+00
2.259631458479567812e+00
2.250631183812982439e+00
2.250631183812982439e+00
2.250631183812982439e+00
2.250631183812982439e+00
2.275756950590533290e+00
2.275756950590533290e+00
2.275756950590533290e+00
2.158003357036042402e+00
2.158003357036042402e+00
2.158003357036042402e+00
2.107001800592058771e+00
2.107001800592058771e+00
2.107001800592058771e+00
2.502263863032929692e+00
2.502263863032929692e+00
2.502263863032929692e+00
2.502263863032929692e+00
2.365197180089724238e+00
2.365197180089724238e+00
2.365197180089724238e+00
2.272569353312784202e+00
2.272569353312784202e+00
2.272569353312784202e+00
2.262444044312875935e+00
2.262444044312875935e+00
2.262444044312875935e+00
2.262444044312875935e+00
2.244255989257484707e+00
2.244255989257484707e+00
2.244255989257484707e+00
2.245193517868587563e+00
2.245193517868587563e+00
2.245193517868587563e+00
2.245193517868587563e+00
2.273131870479445649e+00
2.273131870479445649e+00
2.273131870479445649e+00
2.405323404644917229e+00
2.405323404644917229e+00
2.405323404644917229e+00
2.272569353312784202e+00
2.272569353312784202e+00
2.272569353312784202e+00
2.272569353312784202e+00
2.245756035035248566e+00
2.245756035035248566e+00
2.245756035035248566e+00
2.241818414868617992e+00
2.241818414868617992e+00
2.241818414868617992e+00
2.272194341868343237e+00
2.272194341868343237e+00
2.272194341868343237e+00
2.272194341868343237e+00
2.120127201147496088e+00
2.120127201147496088e+00
2.120127201147496088e+00
2.196629535813471090e+00
2.196629535813471090e+00
2.196629535813471090e+00
2.505638966032898818e+00
2.505638966032898818e+00
2.505638966032898818e+00
2.505638966032898818e+00
2.299195165868098911e+00
2.299195165868098911e+00
2.299195165868098911e+00
2.257006378368480615e+00
2.257006378368480615e+00
2.257006378368480615e+00
2.257006378368480615e+00
2.258318918424023991e+00
2.258318918424023991e+00
2.258318918424023991e+00
2.241630909146397510e+00
2.241630909146397510e+00
2.241630909146397510e+00
2.258318918424023991e+00
2.258318918424023991e+00
2.258318918424023991e+00
2.258318918424023991e+00
2.287944822534867306e+00
2.287944822534867306e+00
2.287944822534867306e+00
2.392198004089480357e+00
2.392198004089480357e+00
2.392198004089480357e+00
2.245756035035248566e+00
2.245756035035248566e+00
2.245756035035248566e+00
2.245756035035248566e+00
2.225317911313211550e+00
2.225317911313211550e+00
2.225317911313211550e+00
2.238630817590868904e+00
2.238630817590868904e+00
2.238630817590868904e+00
2.221192785424360050e+00
2.221192785424360050e+00
2.221192785424360050e+00
2.221192785424360050e+00
2.092563859981078966e+00
2.092563859981078966e+00
2.092563859981078966e+00
2.298070131534776017e+00
2.298070131534776017e+00
2.298070131534776017e+00
2.298070131534776017e+00
2.449199743644520311e+00
2.449199743644520311e+00
2.449199743644520311e+00
2.277819513534959039e+00
2.277819513534959039e+00
2.277819513534959039e+00
2.267131687368389326e+00
2.267131687368389326e+00
2.267131687368389326e+00
2.267131687368389326e+00
2.255318826868495830e+00
2.255318826868495830e+00
2.255318826868495830e+00
2.250631183812982439e+00
2.250631183812982439e+00
2.250631183812982439e+00
2.265631641590625023e+00
2.265631641590625023e+00
2.265631641590625023e+00
2.330321115756706529e+00
2.330321115756706529e+00
2.330321115756706529e+00
2.347196630756553937e+00
2.347196630756553937e+00
2.347196630756553937e+00
2.257381389812921579e+00
2.257381389812921579e+00
2.257381389812921579e+00
2.257381389812921579e+00
2.250068666646320992e+00
2.250068666646320992e+00
2.250068666646320992e+00
2.264694112979522167e+00
2.264694112979522167e+00
2.264694112979522167e+00
2.264694112979522167e+00
2.195879512924588717e+00
2.195879512924588717e+00
2.195879512924588717e+00
2.109814386425366894e+00
2.109814386425366894e+00
2.109814386425366894e+00
2.451262306588946061e+00
2.451262306588946061e+00
2.451262306588946061e+00
2.451262306588946061e+00
2.398573198644978088e+00
2.398573198644978088e+00
2.398573198644978088e+00
2.278944547868282378e+00
2.278944547868282378e+00
2.278944547868282378e+00
2.265256630146183614e+00
2.265256630146183614e+00
2.265256630146183614e+00
2.265256630146183614e+00
2.234318185979796478e+00
2.234318185979796478e+00
2.234318185979796478e+00
2.233005645924253102e+00
2.233005645924253102e+00
2.233005645924253102e+00
2.254193792535172935e+00
2.254193792535172935e+00
2.254193792535172935e+00
2.254193792535172935e+00
2.361634571367534630e+00
2.361634571367534630e+00
2.361634571367534630e+00
2.299195165868098911e+00
2.299195165868098911e+00
2.299195165868098911e+00
2.254943815424054865e+00
2.254943815424054865e+00
2.254943815424054865e+00
2.254943815424054865e+00
2.239943357646412725e+00
2.239943357646412725e+00
2.239943357646412725e+00
2.262069032868434526e+00
2.262069032868434526e+00
2.262069032868434526e+00
2.133815118869594407e+00
2.133815118869594407e+00
2.133815118869594407e+00
2.133815118869594407e+00
2.120689718314157535e+00
2.120689718314157535e+00
2.120689718314157535e+00
2.505076448866237371e+00
2.505076448866237371e+00
2.505076448866237371e+00
2.320570818201239227e+00
2.320570818201239227e+00
2.320570818201239227e+00
2.320570818201239227e+00
2.262819055757316900e+00
2.262819055757316900e+00
2.262819055757316900e+00
2.257568895535142062e+00
2.257568895535142062e+00
2.257568895535142062e+00
2.257568895535142062e+00
2.235443220313119816e+00
2.235443220313119816e+00
2.235443220313119816e+00
2.249693655201880027e+00
2.249693655201880027e+00
2.249693655201880027e+00
2.273506881923887057e+00
2.273506881923887057e+00
2.273506881923887057e+00
2.273506881923887057e+00
2.404760887478255782e+00
2.404760887478255782e+00
2.404760887478255782e+00
2.272569353312784202e+00
2.272569353312784202e+00
2.272569353312784202e+00
2.254193792535172935e+00
2.254193792535172935e+00
2.254193792535172935e+00
2.254193792535172935e+00
2.251568712424085295e+00
2.251568712424085295e+00
2.251568712424085295e+00
2.268819238868374111e+00
2.268819238868374111e+00
2.268819238868374111e+00
2.121439741203039464e+00
2.121439741203039464e+00
2.121439741203039464e+00
2.121439741203039464e+00
2.246131046479689974e+00
2.246131046479689974e+00
2.246131046479689974e+00
2.489138462477492819e+00
2.489138462477492819e+00
2.489138462477492819e+00
2.289069856868190644e+00
2.289069856868190644e+00
2.289069856868190644e+00
2.289069856868190644e+00
2.262069032868434526e+00
2.262069032868434526e+00
2.262069032868434526e+00
2.251193700979644330e+00
2.251193700979644330e+00
2.251193700979644330e+00
2.231880611590930208e+00
2.231880611590930208e+00
2.231880611590930208e+00
2.231880611590930208e+00
2.251568712424085295e+00
2.251568712424085295e+00
2.251568712424085295e+00
2.300132694479201767e+00
2.300132694479201767e+00
2.300132694479201767e+00
2.380947660756248752e+00
2.380947660756248752e+00
2.380947660756248752e+00
2.380947660756248752e+00
2.252881252479629115e+00
2.252881252479629115e+00
2.252881252479629115e+00
2.231693105868709726e+00
2.231693105868709726e+00
2.231693105868709726e+00
2.231693105868709726e+00
2.243880977813043742e+00
2.243880977813043742e+00
2.243880977813043742e+00
2.204504776146733125e+00
2.204504776146733125e+00
2.204504776146733125e+00
2.101751640369884377e+00
2.101751640369884377e+00
2.101751640369884377e+00
2.101751640369884377e+00
2.364447157200842309e+00
2.364447157200842309e+00
2.364447157200842309e+00
2.440386974700155864e+00
2.440386974700155864e+00
2.440386974700155864e+00
2.280819605090487201e+00
2.280819605090487201e+00
2.280819605090487201e+00
2.280819605090487201e+00
2.264694112979522167e+00
2.264694112979522167e+00
2.264694112979522167e+00
2.234693197424237443e+00
2.234693197424237443e+00
2.234693197424237443e+00
2.217817682424390480e+00
2.217817682424390480e+00
2.217817682424390480e+00
2.217817682424390480e+00
2.250631183812982439e+00
2.250631183812982439e+00
2.250631183812982439e+00
2.343071504867702437e+00
2.343071504867702437e+00
2.343071504867702437e+00
2.332571184423352761e+00
2.332571184423352761e+00
2.332571184423352761e+00
2.332571184423352761e+00
2.257193884090700653e+00
2.257193884090700653e+00
2.257193884090700653e+00
2.245193517868587563e+00
2.245193517868587563e+00
2.245193517868587563e+00
2.265256630146183614e+00
2.265256630146183614e+00
2.265256630146183614e+00
2.265256630146183614e+00
2.175441389202551257e+00
2.175441389202551257e+00
2.175441389202551257e+00
2.118064638203069894e+00
2.118064638203069894e+00
2.118064638203069894e+00
2.498138737144077748e+00
2.498138737144077748e+00
2.498138737144077748e+00
2.498138737144077748e+00
2.371197363200781449e+00
2.371197363200781449e+00
2.371197363200781449e+00
2.266756675923947917e+00
2.266756675923947917e+00
2.266756675923947917e+00
2.264881618701742649e+00
2.264881618701742649e+00
2.264881618701742649e+00
2.264881618701742649e+00
2.245943540757469048e+00
2.245943540757469048e+00
2.245943540757469048e+00
2.238255806146427940e+00
2.238255806146427940e+00
2.238255806146427940e+00
2.238255806146427940e+00
2.260381481368449741e+00
2.260381481368449741e+00
2.260381481368449741e+00
2.385447798089541660e+00
2.385447798089541660e+00
2.385447798089541660e+00
2.285319742423780109e+00
2.285319742423780109e+00
2.285319742423780109e+00
2.285319742423780109e+00
2.248756126590777171e+00
2.248756126590777171e+00
2.248756126590777171e+00
2.235630726035340299e+00
2.235630726035340299e+00
2.235630726035340299e+00
2.274069399090548504e+00
2.274069399090548504e+00
2.274069399090548504e+00
2.274069399090548504e+00
2.125002349925229961e+00
2.125002349925229961e+00
2.125002349925229961e+00
2.165316080202642990e+00
2.165316080202642990e+00
2.165316080202642990e+00
2.526452101199377687e+00
2.526452101199377687e+00
2.526452101199377687e+00
2.526452101199377687e+00
2.326383495590075512e+00
2.326383495590075512e+00
2.326383495590075512e+00
2.276694479201635701e+00
2.276694479201635701e+00
2.276694479201635701e+00
2.267881710257271255e+00
2.267881710257271255e+00
2.267881710257271255e+00
2.267881710257271255e+00
2.244068483535264225e+00
2.244068483535264225e+00
2.244068483535264225e+00
2.263194067201757864e+00
2.263194067201757864e+00
2.263194067201757864e+00
2.269006744590594149e+00
2.269006744590594149e+00
2.269006744590594149e+00
2.269006744590594149e+00
2.389760429700613198e+00
2.389760429700613198e+00
2.389760429700613198e+00
2.254381298257393418e+00
2.254381298257393418e+00
2.254381298257393418e+00
2.254381298257393418e+00
2.236943266090884119e+00
2.236943266090884119e+00
2.236943266090884119e+00
2.238818323313089387e+00
2.238818323313089387e+00
2.238818323313089387e+00
2.244818506424146598e+00
2.244818506424146598e+00
2.244818506424146598e+00
2.244818506424146598e+00
2.099689077425458628e+00
2.099689077425458628e+00
2.099689077425458628e+00
2.270694296090578934e+00
2.270694296090578934e+00
2.270694296090578934e+00
2.474700521866512126e+00
2.474700521866512126e+00
2.474700521866512126e+00
2.474700521866512126e+00
2.293382488479262626e+00
2.293382488479262626e+00
2.293382488479262626e+00
2.271256813257240381e+00
2.271256813257240381e+00
2.271256813257240381e+00
2.249131138035218136e+00
2.249131138035218136e+00
2.249131138035218136e+00
2.249131138035218136e+00
2.227192968535416817e+00
2.227192968535416817e+00
2.227192968535416817e+00
2.259443952757347329e+00
2.259443952757347329e+00
2.259443952757347329e+00
2.317195715201269657e+00
2.317195715201269657e+00
2.317195715201269657e+00
2.317195715201269657e+00
2.356571916867580274e+00
2.356571916867580274e+00
2.356571916867580274e+00
2.247631092257453833e+00
2.247631092257453833e+00
2.247631092257453833e+00
2.239943357646412725e+00
2.239943357646412725e+00
2.239943357646412725e+00
2.239943357646412725e+00
2.261131504257332114e+00
2.261131504257332114e+00
2.261131504257332114e+00
2.194191961424603932e+00
2.194191961424603932e+00
2.194191961424603932e+00
2.095376445814386202e+00
2.095376445814386202e+00
2.095376445814386202e+00
2.095376445814386202e+00
2.391072969756157018e+00
2.391072969756157018e+00
2.391072969756157018e+00
2.407385967589342979e+00
2.407385967589342979e+00
2.407385967589342979e+00
2.407385967589342979e+00
2.265444135868404540e+00
2.265444135868404540e+00
2.265444135868404540e+00
2.260943998535111632e+00
2.260943998535111632e+00
2.260943998535111632e+00
2.239380840479750834e+00
2.239380840479750834e+00
2.239380840479750834e+00
2.239380840479750834e+00
2.227942991424298746e+00
2.227942991424298746e+00
2.227942991424298746e+00
2.256443861201819168e+00
2.256443861201819168e+00
2.256443861201819168e+00
2.367822260200811879e+00
2.367822260200811879e+00
2.367822260200811879e+00
2.367822260200811879e+00
2.315883175145725836e+00
2.315883175145725836e+00
2.315883175145725836e+00
2.257193884090700653e+00
2.257193884090700653e+00
2.257193884090700653e+00
2.250818689535202921e+00
2.250818689535202921e+00
2.250818689535202921e+00
2.250818689535202921e+00
2.267694204535050773e+00
2.267694204535050773e+00
2.267694204535050773e+00
2.133065095980712478e+00
2.133065095980712478e+00
2.133065095980712478e+00
2.097626514481032878e+00
2.097626514481032878e+00
2.097626514481032878e+00
2.097626514481032878e+00
2.500576311532944906e+00
2.500576311532944906e+00
2.500576311532944906e+00
2.338383861812189490e+00
2.338383861812189490e+00
2.338383861812189490e+00
2.254193792535172935e+00
2.254193792535172935e+00
2.254193792535172935e+00
2.254193792535172935e+00
2.253443769646290562e+00
2.253443769646290562e+00
2.253443769646290562e+00
2.234318185979796478e+00
2.234318185979796478e+00
2.234318185979796478e+00
2.240693380535294654e+00
2.240693380535294654e+00
2.240693380535294654e+00
2.240693380535294654e+00
2.270131778923917043e+00
2.270131778923917043e+00
2.270131778923917043e+00
2.405698416089358194e+00
2.405698416089358194e+00
2.405698416089358194e+00
2.284757225257118218e+00
2.284757225257118218e+00
2.284757225257118218e+00
2.284757225257118218e+00
2.249693655201880027e+00
2.249693655201880027e+00
2.249693655201880027e+00
2.240130863368633207e+00
2.240130863368633207e+00
2.240130863368633207e+00
2.262069032868434526e+00
2.262069032868434526e+00
2.262069032868434526e+00
2.262069032868434526e+00
2.118252143925290376e+00
2.118252143925290376e+00
2.118252143925290376e+00
2.222692831202123909e+00
2.222692831202123909e+00
2.222692831202123909e+00
2.222692831202123909e+00
2.521951963866084778e+00
2.521951963866084778e+00
2.521951963866084778e+00
2.310258003479110034e+00
2.310258003479110034e+00
2.310258003479110034e+00
2.265444135868404540e+00
2.265444135868404540e+00
2.265444135868404540e+00
2.265444135868404540e+00
2.248006103701895242e+00
2.248006103701895242e+00
2.248006103701895242e+00
2.237318277535325084e+00
2.237318277535325084e+00
2.237318277535325084e+00
2.266006653035065987e+00
2.266006653035065987e+00
2.266006653035065987e+00
2.266006653035065987e+00
2.305570360423596643e+00
2.305570360423596643e+00
2.305570360423596643e+00
2.398385692922757606e+00
2.398385692922757606e+00
2.398385692922757606e+00
2.259068941312906365e+00
2.259068941312906365e+00
2.259068941312906365e+00
2.259068941312906365e+00
2.236193243202001746e+00
2.236193243202001746e+00
2.236193243202001746e+00
2.237693288979766049e+00
2.237693288979766049e+00
2.237693288979766049e+00
2.220067751091036712e+00
2.220067751091036712e+00
2.220067751091036712e+00
2.220067751091036712e+00
2.102126651814325342e+00
2.102126651814325342e+00
2.102126651814325342e+00
2.323195898312326424e+00
2.323195898312326424e+00
2.323195898312326424e+00
2.446574663533433114e+00
2.446574663533433114e+00
2.446574663533433114e+00
2.446574663533433114e+00
2.268444227423932702e+00
2.268444227423932702e+00
2.268444227423932702e+00
2.249318643757439062e+00
2.249318643757439062e+00
2.249318643757439062e+00
2.234130680257575996e+00
2.234130680257575996e+00
2.234130680257575996e+00
2.234130680257575996e+00
2.233568163090914993e+00
2.233568163090914993e+00
2.233568163090914993e+00
2.260006469924008776e+00
2.260006469924008776e+00
2.260006469924008776e+00
2.260006469924008776e+00
2.340446424756614796e+00
2.340446424756614796e+00
2.340446424756614796e+00
2.348134159367656792e+00
2.348134159367656792e+00
2.348134159367656792e+00
2.249131138035218136e+00
2.249131138035218136e+00
2.249131138035218136e+00
2.249131138035218136e+00
2.231130588702047834e+00
2.231130588702047834e+00
2.231130588702047834e+00
2.257943906979583026e+00
2.257943906979583026e+00
2.257943906979583026e+00
2.192879421369060555e+00
2.192879421369060555e+00
2.192879421369060555e+00
2.192879421369060555e+00
2.120314706869716570e+00
2.120314706869716570e+00
2.120314706869716570e+00
2.450512283700064131e+00
2.450512283700064131e+00
2.450512283700064131e+00
2.380197637867366822e+00
2.380197637867366822e+00
2.380197637867366822e+00
2.380197637867366822e+00
2.257756401257362544e+00
2.257756401257362544e+00
2.257756401257362544e+00
2.258506424146244473e+00
2.258506424146244473e+00
2.258506424146244473e+00
2.238068300424207457e+00
2.238068300424207457e+00
2.238068300424207457e+00
2.238068300424207457e+00
2.241068391979735619e+00
2.241068391979735619e+00
2.241068391979735619e+00
2.264881618701742649e+00
2.264881618701742649e+00
2.264881618701742649e+00
2.264881618701742649e+00
2.372697408978545752e+00
2.372697408978545752e+00
2.372697408978545752e+00
2.292069948423719250e+00
2.292069948423719250e+00
2.292069948423719250e+00
2.240880886257515137e+00
2.240880886257515137e+00
2.240880886257515137e+00
2.240880886257515137e+00
2.225692922757652514e+00
2.225692922757652514e+00
2.225692922757652514e+00
2.247443586535233351e+00
2.247443586535233351e+00
2.247443586535233351e+00
2.123689809869686140e+00
2.123689809869686140e+00
2.123689809869686140e+00
2.142815393536179780e+00
2.142815393536179780e+00
2.142815393536179780e+00
2.142815393536179780e+00
2.535827387310404024e+00
2.535827387310404024e+00
2.535827387310404024e+00
2.347196630756553937e+00
2.347196630756553937e+00
2.347196630756553937e+00
2.285319742423780109e+00
2.285319742423780109e+00
2.285319742423780109e+00
2.285319742423780109e+00
2.284944730979339145e+00
2.284944730979339145e+00
2.284944730979339145e+00
2.256443861201819168e+00
2.256443861201819168e+00
2.256443861201819168e+00
2.257943906979583026e+00
2.257943906979583026e+00
2.257943906979583026e+00
2.257943906979583026e+00
2.256818872646260132e+00
2.256818872646260132e+00
2.256818872646260132e+00
2.388822901089510786e+00
2.388822901089510786e+00
2.388822901089510786e+00
2.388822901089510786e+00
2.259443952757347329e+00
2.259443952757347329e+00
2.259443952757347329e+00
2.231693105868709726e+00
2.231693105868709726e+00
2.231693105868709726e+00
2.230380565813165905e+00
2.230380565813165905e+00
2.230380565813165905e+00
2.230380565813165905e+00
2.251381206701864812e+00
2.251381206701864812e+00
2.251381206701864812e+00
2.102876674703207716e+00
2.102876674703207716e+00
2.102876674703207716e+00
2.256631366924039650e+00
2.256631366924039650e+00
2.256631366924039650e+00
2.256631366924039650e+00
2.501888851588488727e+00
2.501888851588488727e+00
2.501888851588488727e+00
2.294320017090365038e+00
2.294320017090365038e+00
2.294320017090365038e+00
2.257381389812921579e+00
2.257381389812921579e+00
2.257381389812921579e+00
2.257381389812921579e+00
2.242755943479720404e+00
2.242755943479720404e+00
2.242755943479720404e+00
2.233380657368694511e+00
2.233380657368694511e+00
2.233380657368694511e+00
2.262819055757316900e+00
2.262819055757316900e+00
2.262819055757316900e+00
2.262819055757316900e+00
2.309695486312448587e+00
2.309695486312448587e+00
2.309695486312448587e+00
2.376072511978514878e+00
2.376072511978514878e+00
2.376072511978514878e+00
2.254193792535172935e+00
2.254193792535172935e+00
2.254193792535172935e+00
2.254193792535172935e+00
2.225880428479872997e+00
2.225880428479872997e+00
2.225880428479872997e+00
2.243693472090823260e+00
2.243693472090823260e+00
2.243693472090823260e+00
2.243693472090823260e+00
2.192504409924619146e+00
2.192504409924619146e+00
2.192504409924619146e+00
2.089001251258888470e+00
2.089001251258888470e+00
2.089001251258888470e+00
2.356571916867580274e+00
2.356571916867580274e+00
2.356571916867580274e+00
2.428949125644703777e+00
2.428949125644703777e+00
2.428949125644703777e+00
2.428949125644703777e+00
2.279694570757164307e+00
2.279694570757164307e+00
2.279694570757164307e+00
2.267506698812830290e+00
2.267506698812830290e+00
2.267506698812830290e+00
2.256818872646260132e+00
2.256818872646260132e+00
2.256818872646260132e+00
2.256818872646260132e+00
2.246318552201910457e+00
2.246318552201910457e+00
2.246318552201910457e+00
2.266944181646168399e+00
2.266944181646168399e+00
2.266944181646168399e+00
2.372134891811884305e+00
2.372134891811884305e+00
2.372134891811884305e+00
2.372134891811884305e+00
2.343071504867702437e+00
2.343071504867702437e+00
2.343071504867702437e+00
2.254568803979613900e+00
2.254568803979613900e+00
2.254568803979613900e+00
2.237318277535325084e+00
2.237318277535325084e+00
2.237318277535325084e+00
2.237318277535325084e+00
2.260381481368449741e+00
2.260381481368449741e+00
2.260381481368449741e+00
2.173378826258125951e+00
2.173378826258125951e+00
2.121627246925260390e+00
2.121627246925260390e+00
2.493451094088564801e+00
2.493451094088564801e+00
2.493451094088564801e+00
2.356196905423139309e+00
2.356196905423139309e+00
2.257756401257362544e+00
2.257756401257362544e+00
2.257756401257362544e+00
2.257756401257362544e+00
2.244443494979705633e+00
2.244443494979705633e+00
2.252693746757408633e+00
2.252693746757408633e+00
2.266381664479506952e+00
2.266381664479506952e+00
2.399885738700521909e+00
2.399885738700521909e+00
2.278757042146061895e+00
2.278757042146061895e+00
2.278757042146061895e+00
2.238068300424207457e+00
2.238068300424207457e+00
2.228880520035401602e+00
2.228880520035401602e+00
2.262631550035096417e+00
2.262631550035096417e+00
2.111876949369793088e+00
2.111876949369793088e+00
2.162128482924894346e+00
2.162128482924894346e+00
2.515951780755027567e+00
2.515951780755027567e+00
2.310258003479110034e+00
2.310258003479110034e+00
2.246318552201910457e+00
2.246318552201910457e+00
2.246318552201910457e+00
2.239005829035309869e+00
2.239005829035309869e+00
2.230568071535386387e+00
2.230568071535386387e+00
2.249881160924100509e+00
2.249881160924100509e+00
2.263944090090640238e+00
2.263944090090640238e+00
2.390697958311716054e+00
2.390697958311716054e+00
2.258131412701803509e+00
2.258131412701803509e+00
2.248381115146336207e+00
2.248381115146336207e+00
2.265444135868404540e+00
2.265444135868404540e+00
2.265444135868404540e+00
2.256818872646260132e+00
2.256818872646260132e+00
2.107751823480941145e+00
2.107751823480941145e+00
2.289257362590411127e+00
2.289257362590411127e+00
2.475825556199835464e+00
2.475825556199835464e+00
2.283444685201574842e+00
2.283444685201574842e+00
2.265444135868404540e+00
2.265444135868404540e+00
2.253068758201849597e+00
2.253068758201849597e+00
2.236755760368663637e+00
2.236755760368663637e+00
2.257193884090700653e+00
2.257193884090700653e+00
2.324320932645649762e+00
2.324320932645649762e+00
2.361447065645314147e+00
2.361447065645314147e+00
2.256818872646260132e+00
2.256818872646260132e+00
2.235068208868678852e+00
2.235068208868678852e+00
2.235068208868678852e+00
2.269756767479476078e+00
2.269756767479476078e+00
2.206754844813379357e+00
2.206754844813379357e+00
2.110939420758690233e+00
2.110939420758690233e+00
2.409073519089327764e+00
2.409073519089327764e+00
2.406260933256020085e+00
2.406260933256020085e+00
2.268256721701712220e+00
2.268256721701712220e+00
2.261131504257332114e+00
2.261131504257332114e+00
2.233193151646474028e+00
2.233193151646474028e+00
2.233193151646474028e+00
2.243693472090823260e+00
2.243693472090823260e+00
2.266944181646168399e+00
2.266944181646168399e+00
2.371197363200781449e+00
2.371197363200781449e+00
2.313445600756859122e+00
2.313445600756859122e+00
2.237693288979766049e+00
2.237693288979766049e+00
2.226442945646534444e+00
2.226442945646534444e+00
2.255881344035157721e+00
2.255881344035157721e+00
2.255881344035157721e+00
2.153315713980529011e+00
2.153315713980529011e+00
2.124814844203009478e+00
2.124814844203009478e+00
2.512576677755058441e+00
2.512576677755058441e+00
2.341946470534379099e+00
2.341946470534379099e+00
2.248381115146336207e+00
2.248381115146336207e+00
2.255318826868495830e+00
2.255318826868495830e+00
2.246131046479689974e+00
2.246131046479689974e+00
2.248943632312997654e+00
2.248943632312997654e+00
2.248943632312997654e+00
2.263006561479537382e+00
2.263006561479537382e+00
2.410573564867091623e+00
2.410573564867091623e+00
2.278194524979400004e+00
2.278194524979400004e+00
2.253818781090731527e+00
2.253818781090731527e+00
2.244255989257484707e+00
2.244255989257484707e+00
2.262256538590655452e+00
2.262256538590655452e+00
2.101376628925443413e+00
2.101376628925443413e+00
2.194191961424603932e+00
2.194191961424603932e+00
2.194191961424603932e+00
2.492513565477461945e+00
2.492513565477461945e+00
2.299945188756981285e+00
2.299945188756981285e+00
2.268256721701712220e+00
2.268256721701712220e+00
2.248568620868556689e+00
2.248568620868556689e+00
2.242755943479720404e+00
2.242755943479720404e+00
2.261881527146214044e+00
2.261881527146214044e+00
2.282319650868251504e+00
2.282319650868251504e+00
2.395573107089449927e+00
2.395573107089449927e+00
2.269944273201696561e+00
2.269944273201696561e+00
2.269944273201696561e+00
2.248568620868556689e+00
2.248568620868556689e+00
2.254006286812952009e+00
2.254006286812952009e+00
2.222317819757682944e+00
2.222317819757682944e+00
2.113564500869777874e+00
2.113564500869777874e+00
2.331071138645588459e+00
2.331071138645588459e+00
2.437761894589068223e+00
2.437761894589068223e+00
2.252131229590746742e+00
2.252131229590746742e+00
2.230380565813165905e+00
2.230380565813165905e+00
2.227192968535416817e+00
2.227192968535416817e+00
2.227192968535416817e+00
2.239380840479750834e+00
2.239380840479750834e+00
2.265444135868404540e+00
2.265444135868404540e+00
2.338196356089969008e+00
2.338196356089969008e+00
2.350384228034303025e+00
2.350384228034303025e+00
2.275756950590533290e+00
2.275756950590533290e+00
2.247443586535233351e+00
2.247443586535233351e+00
2.258318918424023991e+00
2.258318918424023991e+00
2.187254249702444309e+00
2.187254249702444309e+00
2.187254249702444309e+00
2.111314432203131197e+00
2.111314432203131197e+00
2.456887478255561863e+00
2.456887478255561863e+00
2.388447889645069822e+00
2.388447889645069822e+00
2.260381481368449741e+00
2.260381481368449741e+00
2.254006286812952009e+00
2.254006286812952009e+00
2.237318277535325084e+00
2.237318277535325084e+00
2.239568346201971760e+00
2.239568346201971760e+00
2.239568346201971760e+00
2.257756401257362544e+00
2.257756401257362544e+00
2.376822534867396808e+00
2.376822534867396808e+00
2.295820062868129341e+00
2.295820062868129341e+00
2.254006286812952009e+00
2.254006286812952009e+00
2.254943815424054865e+00
2.254943815424054865e+00
2.283632190923795324e+00
2.283632190923795324e+00
2.147315530869472244e+00
2.147315530869472244e+00
2.148440565202795582e+00
2.148440565202795582e+00
2.148440565202795582e+00
2.515764275032807085e+00
2.515764275032807085e+00
2.312508072145756710e+00
2.312508072145756710e+00
2.248568620868556689e+00
2.248568620868556689e+00
2.245568529313028083e+00
2.245568529313028083e+00
2.231880611590930208e+00
2.231880611590930208e+00
2.250256172368541474e+00
2.250256172368541474e+00
2.266944181646168399e+00
2.266944181646168399e+00
2.395198095645008962e+00
2.395198095645008962e+00
2.395198095645008962e+00
2.255506332590716312e+00
2.255506332590716312e+00
2.235443220313119816e+00
2.235443220313119816e+00
2.227005462813196335e+00
2.227005462813196335e+00
2.247068575090792386e+00
2.247068575090792386e+00
2.117127109591967482e+00
2.117127109591967482e+00
2.260006469924008776e+00
2.260006469924008776e+00
2.484450819421979428e+00
2.484450819421979428e+00
2.284944730979339145e+00
2.284944730979339145e+00
2.284944730979339145e+00
2.263381572923978347e+00
2.263381572923978347e+00
2.262444044312875935e+00
2.262444044312875935e+00
2.248568620868556689e+00
2.248568620868556689e+00
2.262819055757316900e+00
2.262819055757316900e+00
2.309695486312448587e+00
2.309695486312448587e+00
2.364072145756401344e+00
2.364072145756401344e+00
2.199442121646778769e+00
2.199442121646778769e+00
2.155565782647175688e+00
2.155565782647175688e+00
2.155565782647175688e+00
2.179003997924741309e+00
2.179003997924741309e+00
2.131377544480727693e+00
2.131377544480727693e+00
2.038374706259346247e+00
2.038374706259346247e+00
2.294132511368144556e+00
2.294132511368144556e+00
2.333321207312235135e+00
2.333321207312235135e+00
2.160628437147130043e+00
2.160628437147130043e+00
2.144127933591723156e+00
2.144127933591723156e+00
2.168691183202612560e+00
2.168691183202612560e+00
2.168691183202612560e+00
2.206567339091158875e+00
2.206567339091158875e+00
2.263944090090640238e+00
2.263944090090640238e+00
2.354134342478713116e+00
2.354134342478713116e+00
2.332383678701132279e+00
2.332383678701132279e+00
2.247443586535233351e+00
2.247443586535233351e+00
2.246506057924130939e+00
2.246506057924130939e+00
2.303882808923612302e+00
2.303882808923612302e+00
2.236755760368663637e+00
2.236755760368663637e+00
2.236755760368663637e+00
2.189129306924649576e+00
2.189129306924649576e+00
2.611767204809717136e+00
2.611767204809717136e+00
2.524577043977172419e+00
2.524577043977172419e+00
2.446574663533433114e+00
2.446574663533433114e+00
2.428011597033600921e+00
2.428011597033600921e+00
2.374572466200750576e+00
2.374572466200750576e+00
2.319445783867915889e+00
2.319445783867915889e+00
2.299570177312540320e+00
2.299570177312540320e+00
2.422198919644764192e+00
2.422198919644764192e+00
2.422198919644764192e+00
2.290007385479293500e+00
2.290007385479293500e+00
2.244818506424146598e+00
2.244818506424146598e+00
2.199442121646778769e+00
2.199442121646778769e+00
2.221755302591021497e+00
2.221755302591021497e+00
2.058812829981383707e+00
2.058812829981383707e+00
2.124439832758568070e+00
2.124439832758568070e+00
2.467762810144352947e+00
2.467762810144352947e+00
2.230193060090945423e+00
2.230193060090945423e+00
2.230193060090945423e+00
2.204504776146733125e+00
2.204504776146733125e+00
2.217442670979949515e+00
2.217442670979949515e+00
2.202442213202307375e+00
2.202442213202307375e+00
2.204879787591174090e+00
2.204879787591174090e+00
2.221192785424360050e+00
2.221192785424360050e+00
2.335196264534440402e+00
2.335196264534440402e+00
2.178066469313638454e+00
2.178066469313638454e+00
2.178066469313638454e+00
2.193441938535722002e+00
2.193441938535722002e+00
2.245006012146367080e+00
2.245006012146367080e+00
2.244443494979705633e+00
2.244443494979705633e+00
2.089751274147770843e+00
2.089751274147770843e+00
2.284569719534897736e+00
2.284569719534897736e+00
2.450137272255623166e+00
2.450137272255623166e+00
2.257006378368480615e+00
2.257006378368480615e+00
2.237318277535325084e+00
2.237318277535325084e+00
2.237318277535325084e+00
2.228130497146519229e+00
2.228130497146519229e+00
2.248006103701895242e+00
2.248006103701895242e+00
2.326946012756737403e+00
2.326946012756737403e+00
2.404385876033814373e+00
2.404385876033814373e+00
2.376822534867396808e+00
2.376822534867396808e+00
2.202817224646748340e+00
2.202817224646748340e+00
2.159878414258247670e+00
2.159878414258247670e+00
2.202817224646748340e+00
2.202817224646748340e+00
2.202817224646748340e+00
2.181816583758049433e+00
2.181816583758049433e+00
2.117877132480849411e+00
2.117877132480849411e+00
2.465325235755485789e+00
2.465325235755485789e+00
2.470762901699881109e+00
2.470762901699881109e+00
2.337446333201086635e+00
2.337446333201086635e+00
2.349071687978759204e+00
2.349071687978759204e+00
2.369322305978576182e+00
2.369322305978576182e+00
2.368759788811914291e+00
2.368759788811914291e+00
2.368759788811914291e+00
2.365384685811944721e+00
2.365384685811944721e+00
2.455574938200018487e+00
2.455574938200018487e+00
2.422573931089205601e+00
2.422573931089205601e+00
2.318508255256813033e+00
2.318508255256813033e+00
2.279882076479384789e+00
2.279882076479384789e+00
2.291882442701498768e+00
2.291882442701498768e+00
2.161378460036011973e+00
2.161378460036011973e+00
2.112064455092013571e+00
2.112064455092013571e+00
2.112064455092013571e+00
2.489138462477492819e+00
2.489138462477492819e+00
2.309132969145787140e+00
2.309132969145787140e+00
2.219317728202154782e+00
2.219317728202154782e+00
2.210692464980010374e+00
2.210692464980010374e+00
2.203004730368968822e+00
2.203004730368968822e+00
2.215192602313302839e+00
2.215192602313302839e+00
2.227942991424298746e+00
2.227942991424298746e+00
2.358634479812006024e+00
2.358634479812006024e+00
2.358634479812006024e+00
2.233005645924253102e+00
2.233005645924253102e+00
2.207129856257820322e+00
2.207129856257820322e+00
2.195504501480147752e+00
2.195504501480147752e+00
2.204317270424512643e+00
2.204317270424512643e+00
2.062375438703573760e+00
2.062375438703573760e+00
2.204879787591174090e+00
2.204879787591174090e+00
2.526827112643818651e+00
2.526827112643818651e+00
2.526827112643818651e+00
2.335196264534440402e+00
2.335196264534440402e+00
2.284382213812677254e+00
2.284382213812677254e+00
2.245568529313028083e+00
2.245568529313028083e+00
2.220817773979919085e+00
2.220817773979919085e+00
2.221192785424360050e+00
2.221192785424360050e+00
2.246693563646351421e+00
2.246693563646351421e+00
2.375885006256294396e+00
2.375885006256294396e+00
2.251943723868526259e+00
2.251943723868526259e+00
2.251943723868526259e+00
2.251756218146305777e+00
2.251756218146305777e+00
2.269006744590594149e+00
2.269006744590594149e+00
2.234318185979796478e+00
2.234318185979796478e+00
2.134002624591814889e+00
2.134002624591814889e+00
2.375885006256294396e+00
2.375885006256294396e+00
2.487825922421948999e+00
2.487825922421948999e+00
2.275381939146092325e+00
2.275381939146092325e+00
2.233755668813135031e+00
2.233755668813135031e+00
2.233755668813135031e+00
2.243505966368602778e+00
2.243505966368602778e+00
2.274256904812768987e+00
2.274256904812768987e+00
2.292819971312600735e+00
2.292819971312600735e+00
2.367259743034150432e+00
2.367259743034150432e+00
2.356571916867580274e+00
2.356571916867580274e+00
2.230755577257606870e+00
2.230755577257606870e+00
2.192129398480178182e+00
2.192129398480178182e+00
2.188566789757988129e+00
2.188566789757988129e+00
2.188566789757988129e+00
2.124627338480788552e+00
2.124627338480788552e+00
2.056187749870296511e+00
2.056187749870296511e+00
2.381697683645130681e+00
2.381697683645130681e+00
2.286819788201544412e+00
2.286819788201544412e+00
2.214630085146641392e+00
2.214630085146641392e+00
2.271069307535019899e+00
2.271069307535019899e+00
2.306132877590258534e+00
2.306132877590258534e+00
2.321883358256782603e+00
2.321883358256782603e+00
2.321883358256782603e+00
2.343821527756584366e+00
2.343821527756584366e+00
2.444324594866786882e+00
2.444324594866786882e+00
2.312133060701315301e+00
2.312133060701315301e+00
2.256818872646260132e+00
2.256818872646260132e+00
2.263756584368419311e+00
2.263756584368419311e+00
2.306320383312479017e+00
2.306320383312479017e+00
2.214067567979979945e+00
2.214067567979979945e+00
2.277632007812738557e+00
2.277632007812738557e+00
2.277632007812738557e+00
2.603704458754234619e+00
2.603704458754234619e+00
2.329008575701162709e+00
2.329008575701162709e+00
2.191754387035737217e+00
2.191754387035737217e+00
2.123314798425245176e+00
2.123314798425245176e+00
2.117502121036408447e+00
2.117502121036408447e+00
2.177691457869197489e+00
2.177691457869197489e+00
2.237130771813104602e+00
2.237130771813104602e+00
2.237130771813104602e+00
2.384135258033997840e+00
2.384135258033997840e+00
2.228693014313181120e+00
2.228693014313181120e+00
2.146190496536149350e+00
2.146190496536149350e+00
2.178066469313638454e+00
2.178066469313638454e+00
2.206754844813379357e+00
2.206754844813379357e+00
2.010061342204047197e+00
2.010061342204047197e+00
2.166816125980407293e+00
2.166816125980407293e+00
2.420323862422559369e+00
2.420323862422559369e+00
2.420323862422559369e+00
2.195879512924588717e+00
2.195879512924588717e+00
2.148253059480575100e+00
2.148253059480575100e+00
2.167191137424848257e+00
2.167191137424848257e+00
2.172253791924802613e+00
2.172253791924802613e+00
2.231130588702047834e+00
2.231130588702047834e+00
2.321133335367900674e+00
2.321133335367900674e+00
2.456887478255561863e+00
2.456887478255561863e+00
2.404948393200476264e+00
2.404948393200476264e+00
2.404948393200476264e+00
2.428574114200262368e+00
2.428574114200262368e+00
2.437574388866847741e+00
2.437574388866847741e+00
2.356946928312021239e+00
2.356946928312021239e+00
2.212380016479995160e+00
2.212380016479995160e+00
2.479763176366466482e+00
2.479763176366466482e+00
2.520826929532761884e+00
2.520826929532761884e+00
2.355446882534256936e+00
2.355446882534256936e+00
2.328446058534500818e+00
2.328446058534500818e+00
2.328446058534500818e+00
2.276694479201635701e+00
2.276694479201635701e+00
2.281757133701590057e+00
2.281757133701590057e+00
2.300320200201422249e+00
2.300320200201422249e+00
2.382447706534013054e+00
2.382447706534013054e+00
2.331071138645588459e+00
2.331071138645588459e+00
2.190629352702413879e+00
2.190629352702413879e+00
2.075875850703451597e+00
2.075875850703451597e+00
2.013436445204016323e+00
2.013436445204016323e+00
2.013436445204016323e+00
1.887432599871822214e+00
1.887432599871822214e+00
1.829868343150120591e+00
1.829868343150120591e+00
2.227567979979857782e+00
2.227567979979857782e+00
2.068000610370189563e+00
2.068000610370189563e+00
2.025999328592791304e+00
2.025999328592791304e+00
2.085251136814477935e+00
2.085251136814477935e+00
2.170753746147038310e+00
2.170753746147038310e+00
2.317758232367931104e+00
2.317758232367931104e+00
2.499263771477401086e+00
2.499263771477401086e+00
2.499263771477401086e+00
2.772459608752708693e+00
2.772459608752708693e+00
2.675519150364696230e+00
2.675519150364696230e+00
2.560015625476852019e+00
2.560015625476852019e+00
2.446949674977874079e+00
2.446949674977874079e+00
2.414698690755943566e+00
2.414698690755943566e+00
2.243130954924161813e+00
2.243130954924161813e+00
2.311758049256874337e+00
2.311758049256874337e+00
2.311758049256874337e+00
2.587391460921048658e+00
2.587391460921048658e+00
2.292257454145939732e+00
2.292257454145939732e+00
2.236568254646443155e+00
2.236568254646443155e+00
2.224942899868770141e+00
2.224942899868770141e+00
2.209379924924466998e+00
2.209379924924466998e+00
2.205817316202276945e+00
2.205817316202276945e+00
2.249506149479659545e+00
2.249506149479659545e+00
2.352634296700948813e+00
2.352634296700948813e+00
2.179754020813623683e+00
2.179754020813623683e+00
2.179754020813623683e+00
2.178066469313638454e+00
2.178066469313638454e+00
2.234505691702016961e+00
2.234505691702016961e+00
2.227942991424298746e+00
2.227942991424298746e+00
2.102314157536546269e+00
2.102314157536546269e+00
2.355446882534256936e+00
2.355446882534256936e+00
2.505263954588457853e+00
2.505263954588457853e+00
2.283819696646015807e+00
2.283819696646015807e+00
2.235630726035340299e+00
2.235630726035340299e+00
2.235630726035340299e+00
2.161940977202673420e+00
2.161940977202673420e+00
2.131002533036286284e+00
2.131002533036286284e+00
2.128002441480758122e+00
2.128002441480758122e+00
2.217442670979949515e+00
2.217442670979949515e+00
2.284944730979339145e+00
2.284944730979339145e+00
2.232068117313150690e+00
2.232068117313150690e+00
2.293945005645924073e+00
2.293945005645924073e+00
2.407198461867122496e+00
2.407198461867122496e+00
2.407198461867122496e+00
2.369509811700796664e+00
2.369509811700796664e+00
2.191004364146854844e+00
2.191004364146854844e+00
2.427449079866939474e+00
2.427449079866939474e+00
2.257943906979583026e+00
2.257943906979583026e+00
1.988123172704245212e+00
1.988123172704245212e+00
2.016811548203985893e+00
2.016811548203985893e+00
2.075313333536790150e+00
2.075313333536790150e+00
2.080375988036744506e+00
2.080375988036744506e+00
2.080375988036744506e+00
2.113376995147556947e+00
2.113376995147556947e+00
2.260193975646229259e+00
2.260193975646229259e+00
2.255506332590716312e+00
2.255506332590716312e+00
2.309132969145787140e+00
2.309132969145787140e+00
2.477888119144261214e+00
2.477888119144261214e+00
2.621142490920743473e+00
2.621142490920743473e+00
2.564140751365703075e+00
2.564140751365703075e+00
2.564140751365703075e+00
2.544640156254768470e+00
2.544640156254768470e+00
2.859837275307473892e+00
2.859837275307473892e+00
2.544265144810327506e+00
2.544265144810327506e+00
2.346821619312112972e+00
2.346821619312112972e+00
2.264506607257301685e+00
2.264506607257301685e+00
2.210879970702230857e+00
2.210879970702230857e+00
2.197567064424573946e+00
2.197567064424573946e+00
2.162128482924894346e+00
2.162128482924894346e+00
2.162128482924894346e+00
2.211442487868892304e+00
2.211442487868892304e+00
2.019436628315073090e+00
2.019436628315073090e+00
1.945371868037965024e+00
1.945371868037965024e+00
1.935996581926938687e+00
1.935996581926938687e+00
1.986998138370922096e+00
1.986998138370922096e+00
1.869807061983092877e+00
1.869807061983092877e+00
2.014936490981780626e+00
2.014936490981780626e+00
2.438136906033509188e+00
2.438136906033509188e+00
2.438136906033509188e+00
2.365759697256386129e+00
2.365759697256386129e+00
2.464762718588824342e+00
2.464762718588824342e+00
2.534327341532639721e+00
2.534327341532639721e+00
2.548577776421399932e+00
2.548577776421399932e+00
2.531139744254890633e+00
2.531139744254890633e+00
2.536389904477065471e+00
2.536389904477065471e+00
2.534889858699301168e+00
2.534889858699301168e+00
2.309320474868007622e+00
2.309320474868007622e+00
2.309320474868007622e+00
2.307257911923581428e+00
2.307257911923581428e+00
2.330883632923367976e+00
2.330883632923367976e+00
2.201504684591204519e+00
2.201504684591204519e+00
1.996935941648609880e+00
1.996935941648609880e+00
2.167191137424848257e+00
2.167191137424848257e+00
2.259631458479567812e+00
2.259631458479567812e+00
2.053000152592547423e+00
2.053000152592547423e+00
2.087501205481124167e+00
2.087501205481124167e+00
2.087501205481124167e+00
2.107376812036500180e+00
2.107376812036500180e+00
2.134940153202917745e+00
2.134940153202917745e+00
2.252506241035188150e+00
2.252506241035188150e+00
2.375509994811853431e+00
2.375509994811853431e+00
2.364634662923062791e+00
2.364634662923062791e+00
2.313258095034638639e+00
2.313258095034638639e+00
2.318883266701254442e+00
2.318883266701254442e+00
2.318883266701254442e+00
2.347946653645436310e+00
2.347946653645436310e+00
2.263006561479537382e+00
2.263006561479537382e+00
2.161190954313791490e+00
2.161190954313791490e+00
2.504513931699575480e+00
2.504513931699575480e+00
2.406823450422681532e+00
2.406823450422681532e+00
2.232818140202032620e+00
2.232818140202032620e+00
2.105126743369853504e+00
2.105126743369853504e+00
2.071938230536820580e+00
2.071938230536820580e+00
2.073250770592364400e+00
2.073250770592364400e+00
2.073250770592364400e+00
2.122939786980803767e+00
2.122939786980803767e+00
2.350384228034303025e+00
2.350384228034303025e+00
2.322820886867885459e+00
2.322820886867885459e+00
2.285132236701559627e+00
2.285132236701559627e+00
2.362759605700857524e+00
2.362759605700857524e+00
2.434761803033539618e+00
2.434761803033539618e+00
2.344384044923245813e+00
2.344384044923245813e+00
2.362759605700857524e+00
2.362759605700857524e+00
2.362759605700857524e+00
2.723895626697592220e+00
2.723895626697592220e+00
2.392198004089480357e+00
2.392198004089480357e+00
2.174503860591448845e+00
2.174503860591448845e+00
2.121627246925260390e+00
2.121627246925260390e+00
2.089563768425550361e+00
2.089563768425550361e+00
2.128564958647419569e+00
2.128564958647419569e+00
2.101564134647663895e+00
2.101564134647663895e+00
2.196629535813471090e+00
2.196629535813471090e+00
2.196629535813471090e+00
2.042312326425977265e+00
2.042312326425977265e+00
2.076813379314554453e+00
2.076813379314554453e+00
2.104189214758751536e+00
2.104189214758751536e+00
2.074188299203466812e+00
2.074188299203466812e+00
1.998998504593035630e+00
1.998998504593035630e+00
2.287944822534867306e+00
2.287944822534867306e+00
2.469825373088778253e+00
2.469825373088778253e+00
2.106251777703176842e+00
2.106251777703176842e+00
2.106251777703176842e+00
2.078125919370098273e+00
2.078125919370098273e+00
2.138315256202887316e+00
2.138315256202887316e+00
2.187441755424664791e+00
2.187441755424664791e+00
2.325258461256752618e+00
2.325258461256752618e+00
2.491201025421918569e+00
2.491201025421918569e+00
2.658643635364848823e+00
2.658643635364848823e+00
2.679644276253547730e+00
2.679644276253547730e+00
2.759896725363933268e+00
2.759896725363933268e+00
2.759896725363933268e+00
2.731583361308633773e+00
2.731583361308633773e+00
2.654518509475997323e+00
2.654518509475997323e+00
2.501701345866268245e+00
2.501701345866268245e+00
2.752208990752891715e+00
2.752208990752891715e+00
2.593204138309884943e+00
2.593204138309884943e+00
2.132315073091830104e+00
2.132315073091830104e+00
1.928496353038117617e+00
1.928496353038117617e+00
1.928496353038117617e+00
1.923433698538163483e+00
1.923433698538163483e+00
1.975747795037690491e+00
1.975747795037690491e+00
2.076813379314554453e+00
2.076813379314554453e+00
2.261131504257332114e+00
2.261131504257332114e+00
2.278194524979400004e+00
2.278194524979400004e+00
2.140377819147312621e+00
2.140377819147312621e+00
2.118064638203069894e+00
2.118064638203069894e+00
2.223255348368785356e+00
2.223255348368785356e+00
2.223255348368785356e+00
2.172441297647023095e+00
2.172441297647023095e+00
2.097814020203253360e+00
2.097814020203253360e+00
2.400260750144962874e+00
2.400260750144962874e+00
2.135502670369579192e+00
2.135502670369579192e+00
2.023936765648365554e+00
2.023936765648365554e+00
2.153128208258308529e+00
2.153128208258308529e+00
2.227567979979857782e+00
2.227567979979857782e+00
2.412823633533738299e+00
2.412823633533738299e+00
2.395760612811670409e+00
2.395760612811670409e+00
2.395760612811670409e+00
2.384322763756218322e+00
2.384322763756218322e+00
2.209754936368907963e+00
2.209754936368907963e+00
2.133627613147373925e+00
2.133627613147373925e+00
2.166253608813745402e+00
2.166253608813745402e+00
2.146565507980590315e+00
2.146565507980590315e+00
1.883494979705191197e+00
1.883494979705191197e+00
1.881807428205206412e+00
1.881807428205206412e+00
2.254568803979613900e+00
2.254568803979613900e+00
2.254568803979613900e+00
2.097063997314370987e+00
2.097063997314370987e+00
2.096501480147709540e+00
2.096501480147709540e+00
2.107376812036500180e+00
2.107376812036500180e+00
2.199629627368999252e+00
2.199629627368999252e+00
2.324320932645649762e+00
2.324320932645649762e+00
2.444512100589007364e+00
2.444512100589007364e+00
2.723145603808710291e+00
2.723145603808710291e+00
2.607642078920865636e+00
2.607642078920865636e+00
2.607642078920865636e+00
2.548015259254738041e+00
2.548015259254738041e+00
2.371759880367442896e+00
2.371759880367442896e+00
2.188191778313547164e+00
2.188191778313547164e+00
1.995623401593066282e+00
1.995623401593066282e+00
2.139065279091769245e+00
2.139065279091769245e+00
2.310445509201330516e+00
2.310445509201330516e+00
2.220630268257698603e+00
2.220630268257698603e+00
2.350384228034303025e+00
2.350384228034303025e+00
2.350384228034303025e+00
2.467762810144352947e+00
2.467762810144352947e+00
2.411136082033753514e+00
2.411136082033753514e+00
2.306695394756919981e+00
2.306695394756919981e+00
2.206004821924497428e+00
2.206004821924497428e+00
2.224192876979888212e+00
2.224192876979888212e+00
2.293382488479262626e+00
2.293382488479262626e+00
2.215005096591082356e+00
2.215005096591082356e+00
2.010998870815149164e+00
2.010998870815149164e+00
1.739678090762047269e+00
1.739678090762047269e+00
1.637487472151860191e+00
1.637487472151860191e+00
2.031061983092746104e+00
2.031061983092746104e+00
2.217442670979949515e+00
2.217442670979949515e+00
2.217442670979949515e+00
2.288694845423749680e+00
2.288694845423749680e+00
2.509764091921750762e+00
2.509764091921750762e+00
2.606142033143101333e+00
2.606142033143101333e+00
2.618142399365215311e+00
2.618142399365215311e+00
2.723708120975371738e+00
2.723708120975371738e+00
2.780709860530411692e+00
2.780709860530411692e+00
2.447699697866756008e+00
2.447699697866756008e+00
2.152003173924985191e+00
2.152003173924985191e+00
2.152003173924985191e+00
2.144690450758385047e+00
2.144690450758385047e+00
2.148628070925016065e+00
2.148628070925016065e+00
1.915183446760460262e+00
1.915183446760460262e+00
1.733865413373210762e+00
1.733865413373210762e+00
2.105689260536515395e+00
2.105689260536515395e+00
1.934684041871395088e+00
1.934684041871395088e+00
1.924746238593707082e+00
1.924746238593707082e+00
2.081313516647846917e+00
2.081313516647846917e+00
2.081313516647846917e+00
2.168503677480392078e+00
2.168503677480392078e+00
2.209379924924466998e+00
2.209379924924466998e+00
2.327321024201178368e+00
2.327321024201178368e+00
2.509014069032868388e+00
2.509014069032868388e+00
2.486138370921964214e+00
2.486138370921964214e+00
2.523076998199408116e+00
2.523076998199408116e+00
2.506951506088442638e+00
2.506951506088442638e+00
2.506951506088442638e+00
2.527014618366038690e+00
2.527014618366038690e+00
2.420323862422559369e+00
2.420323862422559369e+00
2.697082308420057029e+00
2.697082308420057029e+00
3.088969267860957935e+00
3.088969267860957935e+00
2.834336497085482076e+00
2.834336497085482076e+00
2.629017731254005508e+00
2.629017731254005508e+00
2.700644917142247081e+00
2.700644917142247081e+00
2.295070039979247412e+00
2.295070039979247412e+00
2.295070039979247412e+00
2.070625690481276759e+00
2.070625690481276759e+00
2.072688253425702509e+00
2.072688253425702509e+00
2.187066743980223826e+00
2.187066743980223826e+00
2.161378460036011973e+00
2.161378460036011973e+00
2.187066743980223826e+00
2.187066743980223826e+00
2.208254890591143660e+00
2.208254890591143660e+00
2.085626148258918899e+00
2.085626148258918899e+00
1.969935117648853984e+00
1.969935117648853984e+00
1.969935117648853984e+00
2.047562486648152102e+00
2.047562486648152102e+00
2.002373607593005200e+00
1.863619373149815406e+00
1.863619373149815406e+00
2.060687887203588975e+00
2.060687887203588975e+00
2.214067567979979945e+00
2.214067567979979945e+00
2.126689901425214746e+00
2.126689901425214746e+00
2.019061616870632125e+00
2.019061616870632125e+00
2.019061616870632125e+00
2.030686971648304695e+00
2.030686971648304695e+00
2.057500289925840331e+00
2.057500289925840331e+00
2.086001159703360308e+00
2.086001159703360308e+00
2.114127018036439321e+00
2.114127018036439321e+00
2.210504959257789892e+00
2.210504959257789892e+00
2.292632465590380253e+00
2.292632465590380253e+00
2.215942625202185212e+00
2.215942625202185212e+00
2.508076540421765976e+00
2.508076540421765976e+00
2.508076540421765976e+00
2.318695760979033516e+00
2.318695760979033516e+00
2.216130130924405695e+00
2.216130130924405695e+00
2.572203497421186036e+00
2.572203497421186036e+00
2.853274575029755677e+00
2.853274575029755677e+00
2.953777642139957749e+00
2.953777642139957749e+00
2.587953978087710105e+00
2.587953978087710105e+00
2.441699514755699685e+00
2.441699514755699685e+00
2.218755211035493335e+00
2.218755211035493335e+00
2.218755211035493335e+00
2.241255897701956545e+00
2.241255897701956545e+00
2.019999145481734981e+00
2.019999145481734981e+00
1.718489944151127657e+00
1.718489944151127657e+00
1.170223212378307398e+00
1.170223212378307398e+00
1.213162022766808068e+00
1.213162022766808068e+00
1.796492324594866963e+00
1.796492324594866963e+00
1.952122074037903943e+00
1.952122074037903943e+00
2.234693197424237443e+00
2.234693197424237443e+00
2.234693197424237443e+00
2.495326151310770069e+00
2.495326151310770069e+00
2.723708120975371738e+00
2.723708120975371738e+00
3.141470870082704980e+00
3.141470870082704980e+00
3.310601031525620463e+00
3.310601031525620463e+00
3.417854304635761675e+00
3.417854304635761675e+00
3.013966978972747235e+00
3.013966978972747235e+00
2.517076815088350905e+00
2.517076815088350905e+00
2.137190221869563977e+00
2.137190221869563977e+00
1.792742210150456206e+00
1.792742210150456206e+00
1.792742210150456206e+00
1.381354655598620473e+00
1.381354655598620473e+00
1.411355571153904753e+00
1.411355571153904753e+00
1.746803308206427152e+00
1.746803308206427152e+00
1.920621112704855360e+00
1.920621112704855360e+00
2.093501388592180934e+00
2.093501388592180934e+00
2.035374614703817642e+00
2.035374614703817642e+00
2.130065004425183872e+00
2.130065004425183872e+00
2.290569902645954947e+00
2.290569902645954947e+00
2.358446974089785542e+00
2.358446974089785542e+00
2.358446974089785542e+00
2.402135807367168141e+00
2.402135807367168141e+00
2.442074526200140649e+00
2.442074526200140649e+00
2.858524735251930071e+00
2.858524735251930071e+00
3.256974394970549636e+00
3.256974394970549636e+00
2.996528946806237936e+00
2.996528946806237936e+00
2.456512466811120898e+00
2.456512466811120898e+00
2.507889034699545494e+00
2.507889034699545494e+00
2.677394207586901498e+00
2.677394207586901498e+00
2.677394207586901498e+00
2.710957731864375830e+00
2.710957731864375830e+00
2.683394390697958265e+00
2.683394390697958265e+00
2.577828669087801838e+00
2.577828669087801838e+00
2.307820429090243319e+00
2.307820429090243319e+00
1.974247749259926188e+00
1.974247749259926188e+00
1.902808069093905319e+00
1.902808069093905319e+00
1.804742576372569962e+00
1.804742576372569962e+00
1.804742576372569962e+00
1.737803033539842001e+00
1.737803033539842001e+00
1.834743491927854242e+00
1.834743491927854242e+00
2.053375164036988387e+00
2.053375164036988387e+00
2.048125003814813549e+00
2.048125003814813549e+00
1.821243079927976183e+00
1.821243079927976183e+00
2.139065279091769245e+00
2.139065279091769245e+00
1.872432142094180296e+00
1.872432142094180296e+00
1.404230353709524648e+00
1.404230353709524648e+00
1.404230353709524648e+00
1.207911862544633452e+00
1.207911862544633452e+00
1.397105136265144987e+00
1.397105136265144987e+00
1.628862208929715782e+00
1.628862208929715782e+00
1.932621478926969116e+00
1.932621478926969116e+00
2.727270729697561347e+00
2.727270729697561347e+00
3.218535721915341874e+00
3.218535721915341874e+00
3.656924100466933059e+00
3.656924100466933059e+00
3.833741996520890094e+00
3.833741996520890094e+00
3.667236915189062252e+00
3.667236915189062252e+00
3.667236915189062252e+00
3.035530137028107589e+00
3.035530137028107589e+00
2.686581987975707353e+00
2.686581987975707353e+00
2.763834345530564285e+00
2.763834345530564285e+00
2.465512741477706271e+00
2.465512741477706271e+00
2.110189397869807859e+00
2.110189397869807859e+00
1.968247566148869199e+00
1.968247566148869199e+00
1.968622577593310385e+00
1.968622577593310385e+00
1.890620197149571302e+00
1.890620197149571302e+00
1.890620197149571302e+00
1.736677999206518885e+00
1.736677999206518885e+00
1.665613330484939203e+00
1.665613330484939203e+00
1.394105044709616381e+00
1.394105044709616381e+00
1.590611041596728503e+00
1.590611041596728503e+00
1.702364452040162401e+00
1.702364452040162401e+00
1.909558275093844459e+00
1.909558275093844459e+00
1.830618366039002742e+00
1.830618366039002742e+00
2.331071138645588459e+00
2.331071138645588459e+00
2.758209173863948482e+00
2.758209173863948482e+00
2.758209173863948482e+00
2.632205328531754596e+00
2.632205328531754596e+00
2.485200842310861358e+00
2.485200842310861358e+00
2.632767845698416043e+00
2.632767845698416043e+00
3.003654164250618042e+00
3.003654164250618042e+00
3.165096591082491528e+00
3.165096591082491528e+00
3.230911099581896373e+00
3.230911099581896373e+00
3.176159428693502651e+00
3.176159428693502651e+00
2.690894619586779779e+00
2.690894619586779779e+00
2.690894619586779779e+00
2.221005279702139568e+00
2.221005279702139568e+00
2.027499374370555607e+00
2.027499374370555607e+00
1.995435895870845799e+00
1.995435895870845799e+00
2.074563310647907777e+00
2.074563310647907777e+00
2.474325510422071162e+00
2.474325510422071162e+00
2.272756859035004684e+00
2.272756859035004684e+00
1.999186010315256334e+00
1.999186010315256334e+00
2.006311227759636218e+00
2.006311227759636218e+00
2.006311227759636218e+00
1.751303445539719839e+00
1.751303445539719839e+00
1.254225775933103471e+00
1.254225775933103471e+00
1.079095431379131442e+00
1.079095431379131442e+00
1.467419782097842518e+00
1.467419782097842518e+00
1.770804040650654665e+00
1.770804040650654665e+00
1.958497268593401897e+00
1.958497268593401897e+00
2.065938047425763813e+00
2.065938047425763813e+00
2.165878597369304437e+00
2.165878597369304437e+00
2.165878597369304437e+00
2.252881252479629115e+00
2.252881252479629115e+00
2.193816949980162967e+00
2.193816949980162967e+00
2.517826837977233279e+00
2.517826837977233279e+00
2.284569719534897736e+00
2.284569719534897736e+00
2.320195806756797818e+00
2.320195806756797818e+00
2.229255531479842567e+00
2.229255531479842567e+00
2.265444135868404540e+00
2.265444135868404540e+00
2.800210455641346297e+00
2.800210455641346297e+00
3.276099978637043719e+00
3.276099978637043719e+00
3.276099978637043719e+00
3.548920804467909917e+00
3.548920804467909917e+00
3.281537644581438595e+00
3.281537644581438595e+00
3.189284829248939523e+00
3.189284829248939523e+00
2.934277047029023144e+00
2.934277047029023144e+00
2.784272469252601745e+00
2.784272469252601745e+00
2.437949400311288706e+00
2.437949400311288706e+00
2.313820612201300086e+00
2.313820612201300086e+00
2.256818872646260132e+00
2.256818872646260132e+00
2.256818872646260132e+00
1.982122989593188223e+00
1.982122989593188223e+00
1.912933378093814030e+00
1.912933378093814030e+00
1.738553056428723931e+00
1.738553056428723931e+00
1.541672048097171066e+00
1.541672048097171066e+00
1.509796075319681297e+00
1.509796075319681297e+00
1.751865962706381508e+00
1.751865962706381508e+00
2.061625415814691387e+00
2.061625415814691387e+00
2.043812372203741567e+00
2.043812372203741567e+00
2.043812372203741567e+00
2.142815393536179780e+00
2.142815393536179780e+00
2.385072786645100695e+00
2.385072786645100695e+00
2.495888668477431516e+00
2.495888668477431516e+00
2.313633106479079604e+00
2.313633106479079604e+00
2.482013245033112270e+00
2.482013245033112270e+00
2.271444318979460864e+00
2.271444318979460864e+00
1.944246833704641908e+00
1.944246833704641908e+00
1.944246833704641908e+00
1.745865779595324518e+00
1.745865779595324518e+00
1.688301522873622895e+00
1.688301522873622895e+00
1.922121158482619663e+00
1.922121158482619663e+00
2.113752006591998356e+00
2.113752006591998356e+00
2.286444776757103448e+00
2.286444776757103448e+00
2.674769127475814301e+00
2.674769127475814301e+00
3.058593340861232246e+00
3.058593340861232246e+00
3.312101077303384766e+00
3.312101077303384766e+00
3.164534073915830081e+00
3.164534073915830081e+00
3.164534073915830081e+00
2.822898648030029989e+00
2.822898648030029989e+00
2.419573839533677440e+00
2.419573839533677440e+00
2.447512192144535526e+00
2.447512192144535526e+00
2.180691549424726094e+00
2.180691549424726094e+00
1.991310769981994078e+00
1.991310769981994078e+00
1.998998504593035630e+00
1.998998504593035630e+00
2.004998687704092397e+00
2.004998687704092397e+00
1.923433698538163483e+00
1.923433698538163483e+00
2.015311502426221590e+00
2.015311502426221590e+00
2.045499923703726353e+00
2.045499923703726353e+00
2.045499923703726353e+00
1.733115390484328611e+00
1.733115390484328611e+00
1.669925962096011185e+00
1.669925962096011185e+00
1.938621662038026106e+00
1.938621662038026106e+00
2.019999145481734981e+00
2.019999145481734981e+00
1.882744956816309267e+00
1.882744956816309267e+00
2.244255989257484707e+00
2.244255989257484707e+00
3.016779564806054914e+00
3.016779564806054914e+00
2.868650044251838782e+00
2.868650044251838782e+00
2.868650044251838782e+00
2.738896084475233916e+00
2.738896084475233916e+00
2.733270912808618558e+00
2.733270912808618558e+00
2.660893704031495055e+00
2.660893704031495055e+00
2.685081942197943050e+00
2.685081942197943050e+00
2.710582720419934866e+00
2.710582720419934866e+00
2.761959288308359017e+00
2.761959288308359017e+00
2.490826013977477604e+00
2.490826013977477604e+00
2.321883358256782603e+00
2.321883358256782603e+00
2.321883358256782603e+00
2.179566515091402756e+00
2.179566515091402756e+00
2.095001434369945237e+00
2.095001434369945237e+00
1.899807977538377157e+00
1.899807977538377157e+00
2.065000518814661401e+00
2.065000518814661401e+00
2.273506881923887057e+00
2.273506881923887057e+00
1.991123264259773595e+00
1.991123264259773595e+00
1.899807977538377157e+00
1.899807977538377157e+00
1.886120059816278616e+00
1.886120059816278616e+00
1.898307931760612854e+00
1.898307931760612854e+00
1.898307931760612854e+00
1.923246192815943001e+00
1.923246192815943001e+00
1.929433881649220250e+00
1.929433881649220250e+00
2.166441114535965884e+00
2.166441114535965884e+00
2.240880886257515137e+00
2.240880886257515137e+00
2.293757499923703591e+00
2.293757499923703591e+00
2.377947569200720146e+00
2.377947569200720146e+00
2.402698324533829588e+00
2.402698324533829588e+00
2.370822351756340485e+00
2.370822351756340485e+00
2.653018463698233020e+00
2.653018463698233020e+00
2.731208349864192808e+00
2.731208349864192808e+00
2.699144871364482778e+00
2.699144871364482778e+00
2.641955626087221898e+00
2.641955626087221898e+00
2.641955626087221898e+00
2.458387524033326166e+00
2.458387524033326166e+00
2.348884182256538722e+00
2.348884182256538722e+00
2.288507339701529197e+00
2.288507339701529197e+00
2.292069948423719250e+00
2.292069948423719250e+00
2.183879146702475182e+00
2.183879146702475182e+00
2.105126743369853504e+00
2.105126743369853504e+00
1.976497817926572642e+00
1.976497817926572642e+00
1.773429120761742084e+00
1.773429120761742084e+00
1.773429120761742084e+00
1.592673604541154253e+00
1.592673604541154253e+00
1.668800927762688069e+00
1.668800927762688069e+00
2.122939786980803767e+00
2.122939786980803767e+00
1.987373149815363060e+00
1.987373149815363060e+00
2.203754753257850751e+00
2.203754753257850751e+00
2.712270271919919651e+00
2.712270271919919651e+00
2.838274117252113538e+00
2.838274117252113538e+00
2.794772789696951421e+00
2.794772789696951421e+00
2.794772789696951421e+00
2.674581621753593819e+00
2.674581621753593819e+00
2.688082033753471656e+00
2.688082033753471656e+00
2.441136997589037794e+00
2.441136997589037794e+00
2.354884365367595489e+00
2.354884365367595489e+00
2.289819879757073018e+00
2.289819879757073018e+00
2.095751457258827610e+00
2.095751457258827610e+00
1.788804589983825188e+00
1.788804589983825188e+00
1.788804589983825188e+00
1.912745872371593547e+00
1.912745872371593547e+00
2.179566515091402756e+00
2.179566515091402756e+00
1.731240333262123565e+00
1.731240333262123565e+00
1.831180883205664411e+00
1.831180883205664411e+00
2.147690542313913653e+00
2.147690542313913653e+00
2.336883816034425188e+00
2.336883816034425188e+00
2.517451826532791870e+00
2.517451826532791870e+00
2.815773430585650328e+00
2.815773430585650328e+00
2.925839289529099219e+00
2.925839289529099219e+00
2.451637318033387469e+00
2.451637318033387469e+00
2.127064912869655711e+00
2.127064912869655711e+00
2.127064912869655711e+00
1.945184362315744542e+00
1.945184362315744542e+00
1.951184545426801309e+00
1.951184545426801309e+00
1.902620563371684836e+00
1.902620563371684836e+00
2.366884731589709023e+00
2.366884731589709023e+00
2.941964781640064697e+00
2.941964781640064697e+00
2.894713339640492045e+00
2.894713339640492045e+00
2.671019013031403322e+00
2.671019013031403322e+00
2.533389812921536866e+00
2.533389812921536866e+00
2.377947569200720146e+00
2.377947569200720146e+00
2.377947569200720146e+00
2.239943357646412725e+00
2.239943357646412725e+00
2.256631366924039650e+00
2.256631366924039650e+00
2.231693105868709726e+00
2.231693105868709726e+00
2.166253608813745402e+00
2.166253608813745402e+00
2.206754844813379357e+00
2.206754844813379357e+00
2.245568529313028083e+00
2.245568529313028083e+00
2.145065462202826012e+00
2.145065462202826012e+00
2.068188116092410045e+00
2.068188116092410045e+00
2.068188116092410045e+00
2.411323587755973996e+00
2.411323587755973996e+00
2.343259010589922919e+00
2.343259010589922919e+00
2.227942991424298746e+00
2.227942991424298746e+00
2.294320017090365038e+00
2.294320017090365038e+00
2.319820795312356854e+00
2.319820795312356854e+00
2.236755760368663637e+00
2.236755760368663637e+00
2.098751548814355772e+00
2.098751548814355772e+00
2.098751548814355772e+00
2.147690542313913653e+00
2.147690542313913653e+00
2.003686147648549021e+00
2.003686147648549021e+00
2.046812463759269729e+00
2.046812463759269729e+00
2.212755027924436124e+00
2.212755027924436124e+00
2.308195440534684284e+00
2.308195440534684284e+00
2.122752281258583285e+00
2.122752281258583285e+00
2.090688802758873255e+00
2.090688802758873255e+00
2.542952604754783685e+00
2.542952604754783685e+00
2.542952604754783685e+00
2.255693838312936794e+00
2.255693838312936794e+00
2.095751457258827610e+00
2.095751457258827610e+00
2.123314798425245176e+00
2.123314798425245176e+00
2.186879238258003344e+00
2.186879238258003344e+00
2.261881527146214044e+00
2.261881527146214044e+00
2.372697408978545752e+00
2.372697408978545752e+00
2.630142765587328846e+00
2.630142765587328846e+00
2.551952879421369058e+00
2.551952879421369058e+00
2.551952879421369058e+00
2.373634937589648164e+00
2.373634937589648164e+00
2.204879787591174090e+00
2.204879787591174090e+00
2.111689443647572162e+00
2.111689443647572162e+00
1.934309030426953901e+00
1.934309030426953901e+00
2.073250770592364400e+00
2.073250770592364400e+00
2.493826105533005766e+00
2.493826105533005766e+00
2.456887478255561863e+00
2.456887478255561863e+00
2.438886928922391562e+00
2.438886928922391562e+00
2.438886928922391562e+00
2.406448438978240567e+00
2.406448438978240567e+00
2.433074251533554833e+00
2.433074251533554833e+00
2.449949766533402684e+00
2.449949766533402684e+00
2.497388714255195818e+00
2.497388714255195818e+00
2.459325052644428578e+00
2.459325052644428578e+00
2.256631366924039650e+00
2.256631366924039650e+00
2.205254799035615054e+00
2.205254799035615054e+00
2.098189031647694325e+00
2.098189031647694325e+00
2.098189031647694325e+00
1.932246467482528152e+00
1.932246467482528152e+00
1.852931546983245470e+00
1.852931546983245470e+00
2.200754661702322146e+00
2.200754661702322146e+00
2.379072603534043484e+00
2.379072603534043484e+00
2.389572923978392716e+00
2.389572923978392716e+00
2.523452009643849081e+00
2.523452009643849081e+00
2.496451185644092963e+00
2.496451185644092963e+00
2.451074800866725578e+00
2.451074800866725578e+00
2.451074800866725578e+00
2.431761711478011456e+00
2.431761711478011456e+00
2.498513748588519157e+00
2.498513748588519157e+00
2.424261482589190386e+00
2.424261482589190386e+00
2.231880611590930208e+00
2.231880611590930208e+00
2.121064729758598499e+00
2.121064729758598499e+00
2.125189855647450443e+00
2.125189855647450443e+00
2.030499465926084213e+00
2.030499465926084213e+00
1.957747245704519745e+00
1.957747245704519745e+00
1.957747245704519745e+00
2.337446333201086635e+00
2.337446333201086635e+00
2.181066560869167059e+00
2.181066560869167059e+00
2.049062532425916405e+00
2.049062532425916405e+00
1.990935758537552891e+00
1.990935758537552891e+00
1.962434888760032914e+00
1.962434888760032914e+00
2.015686513870662555e+00
2.015686513870662555e+00
2.160440931424909561e+00
2.160440931424909561e+00
2.437386883144627259e+00
2.437386883144627259e+00
2.437386883144627259e+00
2.550827845088045720e+00
2.550827845088045720e+00
2.687144505142368800e+00
2.687144505142368800e+00
2.589454023865474408e+00
2.589454023865474408e+00
2.450512283700064131e+00
2.450512283700064131e+00
2.193441938535722002e+00
2.193441938535722002e+00
2.146753013702810797e+00
2.146753013702810797e+00
2.447887203588976490e+00
2.447887203588976490e+00
2.227567979979857782e+00
2.227567979979857782e+00
2.227567979979857782e+00
2.163066011535996758e+00
2.163066011535996758e+00
2.120314706869716570e+00
2.120314706869716570e+00
2.082063539536728847e+00
2.082063539536728847e+00
2.089938779869991325e+00
2.089938779869991325e+00
2.156315805536057617e+00
2.156315805536057617e+00
2.314383129367961978e+00
2.314383129367961978e+00
2.067625598925748598e+00
2.067625598925748598e+00
2.016624042481765411e+00
2.016624042481765411e+00
2.142627887813959298e+00
2.142627887813959298e+00
2.142627887813959298e+00
2.225130405590991067e+00
2.225130405590991067e+00
2.160628437147130043e+00
2.160628437147130043e+00
2.467012787255470574e+00
2.467012787255470574e+00
2.812773339030121722e+00
2.812773339030121722e+00
2.677956724753563389e+00
2.677956724753563389e+00
2.587016449476607249e+00
2.587016449476607249e+00
2.440761986144596829e+00
2.440761986144596829e+00
2.440761986144596829e+00
2.345884090701010116e+00
2.345884090701010116e+00
2.355821893978697901e+00
2.355821893978697901e+00
2.497951231421857266e+00
2.497951231421857266e+00
2.561328165532395840e+00
2.561328165532395840e+00
2.305757866145817125e+00
2.305757866145817125e+00
2.174691366313669327e+00
2.174691366313669327e+00
2.161190954313791490e+00
2.161190954313791490e+00
2.026936857203894160e+00
2.026936857203894160e+00
2.026936857203894160e+00
1.677801202429273442e+00
1.677801202429273442e+00
1.838306100650044295e+00
1.838306100650044295e+00
1.935809076204718204e+00
1.935809076204718204e+00
1.931496444593646222e+00
1.931496444593646222e+00
2.028061891537217498e+00
2.028061891537217498e+00
2.242755943479720404e+00
2.242755943479720404e+00
2.596016724143193066e+00
2.596016724143193066e+00
2.825711233863338112e+00
2.825711233863338112e+00
2.798147892696920547e+00
2.798147892696920547e+00
2.798147892696920547e+00
2.515389263588366120e+00
2.515389263588366120e+00
2.375697500534073914e+00
2.375697500534073914e+00
2.282319650868251504e+00
2.282319650868251504e+00
2.238443311868648422e+00
2.238443311868648422e+00
2.170378734702597345e+00
2.170378734702597345e+00
2.223817865535447247e+00
2.223817865535447247e+00
2.644768211920529577e+00
2.644768211920529577e+00
2.505638966032898818e+00
2.505638966032898818e+00
2.401760795922727176e+00
2.401760795922727176e+00
2.401760795922727176e+00
2.321695852534562121e+00
2.321695852534562121e+00
2.244818506424146598e+00
2.244818506424146598e+00
2.206754844813379357e+00
2.206754844813379357e+00
2.228130497146519229e+00
2.228130497146519229e+00
2.342696493423261028e+00
2.342696493423261028e+00
2.169066194647053525e+00
2.169066194647053525e+00
2.128939970091860534e+00
2.128939970091860534e+00
2.117877132480849411e+00
2.117877132480849411e+00
2.117877132480849411e+00
2.149378093813898438e+00
2.149378093813898438e+00
2.031812005981628033e+00
2.031812005981628033e+00
2.127627430036317158e+00
2.127627430036317158e+00
2.418261299478133619e+00
2.418261299478133619e+00
2.118252143925290376e+00
2.118252143925290376e+00
2.001248573259681862e+00
2.001248573259681862e+00
2.013623950926236805e+00
2.013623950926236805e+00
2.037624683370464318e+00
2.037624683370464318e+00
2.150690633869442259e+00
2.150690633869442259e+00
2.150690633869442259e+00
2.388635395367290304e+00
2.388635395367290304e+00
2.663518784142582696e+00
2.663518784142582696e+00
2.584766380809961461e+00
2.584766380809961461e+00
2.576516129032258018e+00
2.576516129032258018e+00
2.510889126255073656e+00
2.510889126255073656e+00
2.340258919034394314e+00
2.340258919034394314e+00
2.157815851313821920e+00
2.157815851313821920e+00
2.327321024201178368e+00
2.327321024201178368e+00
2.327321024201178368e+00
2.395573107089449927e+00
2.395573107089449927e+00
2.202629718924527857e+00
2.202629718924527857e+00
2.184066652424695665e+00
2.184066652424695665e+00
2.155565782647175688e+00
2.155565782647175688e+00
2.122564775536362802e+00
2.122564775536362802e+00
2.113564500869777874e+00
2.113564500869777874e+00
2.207504867702261730e+00
2.207504867702261730e+00
2.273319376201666131e+00
2.273319376201666131e+00
2.273319376201666131e+00
2.248756126590777171e+00
2.248756126590777171e+00
2.285132236701559627e+00
2.285132236701559627e+00
2.352446790978728330e+00
2.352446790978728330e+00
2.317008209479048730e+00
2.317008209479048730e+00
2.223817865535447247e+00
2.223817865535447247e+00
2.564140751365703075e+00
2.564140751365703075e+00
2.522514481032746669e+00
2.522514481032746669e+00
2.340258919034394314e+00
2.340258919034394314e+00
2.340258919034394314e+00
2.238818323313089387e+00
2.238818323313089387e+00
2.158565874202703849e+00
2.158565874202703849e+00
2.130252510147404355e+00
2.130252510147404355e+00
2.127439924314096675e+00
2.127439924314096675e+00
2.246318552201910457e+00
2.246318552201910457e+00
2.222130314035462462e+00
2.222130314035462462e+00
2.242568437757499922e+00
2.242568437757499922e+00
2.269569261757255596e+00
2.269569261757255596e+00
2.355259376812036454e+00
2.355259376812036454e+00
2.355259376812036454e+00
2.289069856868190644e+00
2.289069856868190644e+00
2.317383220923490139e+00
2.317383220923490139e+00
2.710582720419934866e+00
2.710582720419934866e+00
2.467200292977691056e+00
2.467200292977691056e+00
2.305382854701376161e+00
2.305382854701376161e+00
2.186691732535783306e+00
2.186691732535783306e+00
2.111689443647572162e+00
2.111689443647572162e+00
2.077938413647877791e+00
2.077938413647877791e+00
2.077938413647877791e+00
2.092376354258858040e+00
2.092376354258858040e+00
2.276881984923856628e+00
2.276881984923856628e+00
2.176753929258095077e+00
2.176753929258095077e+00
2.205442304757835537e+00
2.205442304757835537e+00
2.253631275368511044e+00
2.253631275368511044e+00
2.288507339701529197e+00
2.288507339701529197e+00
2.146565507980590315e+00
2.146565507980590315e+00
2.187441755424664791e+00
2.187441755424664791e+00
2.187441755424664791e+00
2.329758598590044638e+00
2.329758598590044638e+00
2.034624591814935712e+00
2.034624591814935712e+00
1.924933744315927786e+00
1.924933744315927786e+00
1.873557176427503190e+00
1.873557176427503190e+00
1.915558458204901227e+00
1.915558458204901227e+00
2.145627979369487459e+00
2.145627979369487459e+00
2.404010864589373409e+00
2.404010864589373409e+00
2.597516769920956925e+00
2.597516769920956925e+00
2.539577501754814115e+00
2.539577501754814115e+00
2.539577501754814115e+00
2.548015259254738041e+00
2.548015259254738041e+00
2.511639149143956029e+00
2.511639149143956029e+00
2.411698599200414961e+00
2.411698599200414961e+00
2.301070223090304623e+00
2.301070223090304623e+00
2.559453108310190128e+00
2.559453108310190128e+00
2.595641712698752102e+00
2.595641712698752102e+00
2.425386516922513280e+00
2.425386516922513280e+00
2.377385052034058699e+00
2.377385052034058699e+00
2.356196905423139309e+00
2.356196905423139309e+00
2.356196905423139309e+00
2.323758415478988315e+00
2.323758415478988315e+00
2.299757683034760802e+00
2.299757683034760802e+00
2.293757499923703591e+00
2.293757499923703591e+00
2.231880611590930208e+00
2.231880611590930208e+00
2.099501571703238145e+00
2.099501571703238145e+00
2.084126102481154597e+00
2.084126102481154597e+00
2.117127109591967482e+00
2.117127109591967482e+00
2.093688894314401416e+00
2.093688894314401416e+00
2.113564500869777874e+00
2.113564500869777874e+00
2.113564500869777874e+00
2.520451918088320475e+00
2.520451918088320475e+00
2.389947935422834124e+00
2.389947935422834124e+00
2.291319925534837321e+00
2.291319925534837321e+00
2.280444593646046680e+00
2.280444593646046680e+00
2.244255989257484707e+00
2.244255989257484707e+00
2.250443678090761956e+00
2.250443678090761956e+00
2.278757042146061895e+00
2.278757042146061895e+00
2.278757042146061895e+00
2.391822992645039392e+00
2.391822992645039392e+00
2.281944639423810539e+00
2.281944639423810539e+00
2.242005920590838475e+00
2.242005920590838475e+00
2.203754753257850751e+00
2.203754753257850751e+00
2.239193334757530351e+00
2.239193334757530351e+00
2.127439924314096675e+00
2.127439924314096675e+00
2.150503128147221332e+00
2.150503128147221332e+00
2.513326700643940814e+00
2.513326700643940814e+00
2.260943998535111632e+00
2.260943998535111632e+00
2.260943998535111632e+00
2.156128299813837135e+00
2.156128299813837135e+00
2.125939878536332373e+00
2.125939878536332373e+00
2.030874477370525177e+00
2.030874477370525177e+00
2.011186376537369647e+00
2.011186376537369647e+00
2.144690450758385047e+00
2.144690450758385047e+00
2.444137089144566399e+00
2.444137089144566399e+00
2.470012878810998735e+00
2.470012878810998735e+00
2.434199285866878171e+00
2.434199285866878171e+00
2.434199285866878171e+00
2.337258827478866152e+00
2.337258827478866152e+00
2.329196081423383191e+00
2.329196081423383191e+00
2.251943723868526259e+00
2.251943723868526259e+00
2.423511459700308013e+00
2.423511459700308013e+00
2.593391644032105425e+00
2.593391644032105425e+00
2.351884273812066883e+00
2.351884273812066883e+00
2.345884090701010116e+00
2.345884090701010116e+00
2.320008301034577336e+00
2.320008301034577336e+00
2.320008301034577336e+00
2.267506698812830290e+00
2.267506698812830290e+00
2.257943906979583026e+00
2.257943906979583026e+00
2.306695394756919981e+00
2.306695394756919981e+00
2.345509079256569152e+00
2.345509079256569152e+00
2.216317636646626177e+00
2.216317636646626177e+00
2.171128757591479275e+00
2.171128757591479275e+00
2.200567155980101663e+00
2.200567155980101663e+00
2.162503494369335311e+00
2.162503494369335311e+00
2.162503494369335311e+00
2.079813470870083059e+00
2.079813470870083059e+00
2.371572374645222414e+00
2.371572374645222414e+00
2.395948118533890892e+00
2.395948118533890892e+00
2.266006653035065987e+00
2.266006653035065987e+00
2.270131778923917043e+00
2.270131778923917043e+00
2.257568895535142062e+00
2.257568895535142062e+00
2.257756401257362544e+00
2.257756401257362544e+00
2.273319376201666131e+00
2.273319376201666131e+00
2.273319376201666131e+00
2.347571642200994901e+00
2.347571642200994901e+00
2.281007110812707683e+00
2.281007110812707683e+00
2.205254799035615054e+00
2.205254799035615054e+00
2.188191778313547164e+00
2.188191778313547164e+00
2.191379375591296252e+00
2.191379375591296252e+00
2.088251228370006540e+00
2.088251228370006540e+00
2.069313150425733383e+00
2.069313150425733383e+00
2.479388164922025517e+00
2.479388164922025517e+00
2.479388164922025517e+00
2.315695669423505798e+00
2.315695669423505798e+00
2.248943632312997654e+00
2.248943632312997654e+00
2.278382030701620931e+00
2.278382030701620931e+00
2.292257454145939732e+00
2.292257454145939732e+00
2.275944456312753772e+00
2.275944456312753772e+00
2.257943906979583026e+00
2.257943906979583026e+00
2.383197729422894984e+00
2.383197729422894984e+00
2.248381115146336207e+00
2.248381115146336207e+00
2.248381115146336207e+00
2.245193517868587563e+00
2.245193517868587563e+00
2.271631824701681346e+00
2.271631824701681346e+00
2.328258552812280335e+00
2.328258552812280335e+00
2.178253975035859380e+00
2.178253975035859380e+00
2.236755760368663637e+00
2.236755760368663637e+00
2.525514572588274831e+00
2.525514572588274831e+00
2.310258003479110034e+00
2.310258003479110034e+00
2.195129490035706787e+00
2.195129490035706787e+00
2.106251777703176842e+00
2.106251777703176842e+00
2.106251777703176842e+00
2.102876674703207716e+00
2.102876674703207716e+00
2.122564775536362802e+00
2.122564775536362802e+00
2.113376995147556947e+00
2.113376995147556947e+00
2.241443403424177028e+00
2.241443403424177028e+00
2.190816858424634361e+00
2.190816858424634361e+00
2.314570635090182460e+00
2.314570635090182460e+00
2.408886013367107282e+00
2.408886013367107282e+00
2.408886013367107282e+00
2.341383953367717208e+00
2.341383953367717208e+00
2.216317636646626177e+00
2.216317636646626177e+00
2.450137272255623166e+00
2.450137272255623166e+00
2.604829493087557513e+00
2.604829493087557513e+00
2.385260292367321178e+00
2.385260292367321178e+00
2.329571092867824156e+00
2.329571092867824156e+00
2.289444868312631609e+00
2.289444868312631609e+00
2.259631458479567812e+00
2.259631458479567812e+00
2.259631458479567812e+00
2.255131321146275347e+00
2.255131321146275347e+00
2.303882808923612302e+00
2.303882808923612302e+00
2.291507431257057803e+00
2.291507431257057803e+00
2.193629444257942485e+00
2.193629444257942485e+00
2.177503952146977007e+00
2.177503952146977007e+00
2.219692739646595747e+00
2.219692739646595747e+00
2.164191045869319652e+00
2.164191045869319652e+00
2.127627430036317158e+00
2.127627430036317158e+00
2.127627430036317158e+00
2.456699972533341381e+00
2.456699972533341381e+00
2.371009857478560967e+00
2.371009857478560967e+00
2.241255897701956545e+00
2.241255897701956545e+00
2.260193975646229259e+00
2.260193975646229259e+00
2.295445051423688376e+00
2.295445051423688376e+00
2.368009765923032361e+00
2.368009765923032361e+00
2.417323770867030763e+00
2.417323770867030763e+00
2.488013428144169481e+00
2.488013428144169481e+00
2.488013428144169481e+00
2.352446790978728330e+00
2.352446790978728330e+00
2.265256630146183614e+00
2.265256630146183614e+00
2.201317178868984037e+00
2.201317178868984037e+00
2.222880336924344391e+00
2.222880336924344391e+00
2.107376812036500180e+00
2.107376812036500180e+00
2.101001617481002448e+00
2.101001617481002448e+00
2.479763176366466482e+00
2.479763176366466482e+00
2.295257545701467894e+00
2.295257545701467894e+00
2.295257545701467894e+00
2.209754936368907963e+00
2.209754936368907963e+00
2.189879329813531950e+00
2.189879329813531950e+00
2.183879146702475182e+00
2.183879146702475182e+00
2.209754936368907963e+00
2.209754936368907963e+00
2.224192876979888212e+00
2.224192876979888212e+00
2.389197912533951751e+00
2.389197912533951751e+00
2.254006286812952009e+00
2.254006286812952009e+00
2.236005737479781263e+00
2.236005737479781263e+00
2.236005737479781263e+00
2.240130863368633207e+00
2.240130863368633207e+00
2.272569353312784202e+00
2.272569353312784202e+00
2.109251869258705447e+00
2.109251869258705447e+00
2.248943632312997654e+00
2.248943632312997654e+00
2.536389904477065471e+00
2.536389904477065471e+00
2.357884456923124095e+00
2.357884456923124095e+00
2.320195806756797818e+00
2.320195806756797818e+00
2.297507614368114126e+00
2.297507614368114126e+00
2.278382030701620931e+00
2.278382030701620931e+00
2.278382030701620931e+00
2.257006378368480615e+00
2.257006378368480615e+00
2.286632282479323930e+00
2.286632282479323930e+00
2.369884823145237629e+00
2.369884823145237629e+00
2.229443037202063049e+00
2.229443037202063049e+00
2.206379833368938392e+00
2.206379833368938392e+00
2.210129947813348927e+00
2.210129947813348927e+00
2.163628528702658205e+00
2.163628528702658205e+00
2.083563585314493150e+00
2.083563585314493150e+00
2.083563585314493150e+00
2.329196081423383191e+00
2.329196081423383191e+00
2.410948576311533031e+00
2.410948576311533031e+00
2.254193792535172935e+00
2.254193792535172935e+00
2.263756584368419311e+00
2.263756584368419311e+00
2.272944364757225166e+00
2.272944364757225166e+00
2.282694662312692468e+00
2.282694662312692468e+00
2.313258095034638639e+00
2.313258095034638639e+00
2.389197912533951751e+00
2.389197912533951751e+00
2.389197912533951751e+00
2.371759880367442896e+00
2.371759880367442896e+00
2.267319193090609808e+00
2.267319193090609808e+00
2.243693472090823260e+00
2.243693472090823260e+00
2.256818872646260132e+00
2.256818872646260132e+00
2.149190588091677956e+00
2.149190588091677956e+00
2.107001800592058771e+00
2.107001800592058771e+00
2.488575945310831372e+00
2.488575945310831372e+00
2.384322763756218322e+00
2.384322763756218322e+00
2.269569261757255596e+00
2.269569261757255596e+00
2.269569261757255596e+00
2.251381206701864812e+00
2.251381206701864812e+00
2.227005462813196335e+00
2.227005462813196335e+00
2.228693014313181120e+00
2.228693014313181120e+00
2.237505783257545566e+00
2.237505783257545566e+00
2.345884090701010116e+00
2.345884090701010116e+00
2.223067842646564873e+00
2.223067842646564873e+00
2.162315988647114828e+00
2.162315988647114828e+00
2.162315988647114828e+00
2.162315988647114828e+00
2.162315988647114828e+00
2.216692648091067142e+00
2.216692648091067142e+00
2.101189123203222930e+00
2.101189123203222930e+00
2.162128482924894346e+00
2.162128482924894346e+00
2.509576586199530279e+00
2.509576586199530279e+00
2.293569994201483109e+00
2.293569994201483109e+00
2.230380565813165905e+00
2.230380565813165905e+00
2.192316904202398664e+00
2.192316904202398664e+00
2.192316904202398664e+00
2.183129123813593253e+00
2.183129123813593253e+00
2.206004821924497428e+00
2.206004821924497428e+00
2.261506515701773079e+00
2.261506515701773079e+00
2.434199285866878171e+00
2.434199285866878171e+00
2.376072511978514878e+00
2.376072511978514878e+00
2.379072603534043484e+00
2.379072603534043484e+00
2.337446333201086635e+00
2.337446333201086635e+00
2.313633106479079604e+00
2.313633106479079604e+00
2.313633106479079604e+00
2.163253517258217240e+00
2.163253517258217240e+00
2.312695577867977192e+00
2.312695577867977192e+00
2.479013153477584552e+00
2.479013153477584552e+00
2.264319101535081202e+00
2.264319101535081202e+00
2.223067842646564873e+00
2.223067842646564873e+00
2.172066286202582130e+00
2.172066286202582130e+00
2.129314981536301499e+00
2.129314981536301499e+00
2.129314981536301499e+00
2.165316080202642990e+00
2.165316080202642990e+00
2.277256996368297592e+00
2.277256996368297592e+00
2.336321298867763296e+00
2.336321298867763296e+00
2.260381481368449741e+00
2.260381481368449741e+00
2.284757225257118218e+00
2.284757225257118218e+00
2.306695394756919981e+00
2.306695394756919981e+00
2.266194158757286470e+00
2.266194158757286470e+00
2.196629535813471090e+00
2.196629535813471090e+00
2.196629535813471090e+00
2.493076082644123392e+00
2.493076082644123392e+00
2.483888302255317981e+00
2.483888302255317981e+00
2.314570635090182460e+00
2.314570635090182460e+00
2.280632099368266719e+00
2.280632099368266719e+00
2.238255806146427940e+00
2.238255806146427940e+00
2.218567705313272853e+00
2.218567705313272853e+00
2.232068117313150690e+00
2.232068117313150690e+00
2.336883816034425188e+00
2.336883816034425188e+00
2.309132969145787140e+00
2.309132969145787140e+00
2.309132969145787140e+00
2.244443494979705633e+00
2.244443494979705633e+00
2.231130588702047834e+00
2.231130588702047834e+00
2.265819147312845505e+00
2.265819147312845505e+00
2.159315897091586223e+00
2.159315897091586223e+00
2.122939786980803767e+00
2.122939786980803767e+00
2.497576219977416301e+00
2.497576219977416301e+00
2.324320932645649762e+00
2.324320932645649762e+00
2.230380565813165905e+00
2.230380565813165905e+00
2.230380565813165905e+00
2.211254982146671821e+00
2.211254982146671821e+00
2.174503860591448845e+00
2.174503860591448845e+00
2.170753746147038310e+00
2.170753746147038310e+00
2.176191412091433186e+00
2.176191412091433186e+00
2.322258369701224012e+00
2.322258369701224012e+00
2.221755302591021497e+00
2.221755302591021497e+00
2.235443220313119816e+00
2.235443220313119816e+00
2.235443220313119816e+00
2.264506607257301685e+00
2.264506607257301685e+00
2.316820703756828248e+00
2.316820703756828248e+00
2.184066652424695665e+00
2.184066652424695665e+00
2.305007843256935196e+00
2.305007843256935196e+00
2.635955442976165131e+00
2.635955442976165131e+00
2.407948484756004870e+00
2.407948484756004870e+00
2.317570726645710621e+00
2.317570726645710621e+00
2.277444502090518075e+00
2.277444502090518075e+00
2.248006103701895242e+00
2.248006103701895242e+00
2.248006103701895242e+00
2.232443128757591655e+00
2.232443128757591655e+00
2.251381206701864812e+00
2.251381206701864812e+00
2.369884823145237629e+00
2.369884823145237629e+00
2.237880794701986531e+00
2.237880794701986531e+00
2.221005279702139568e+00
2.221005279702139568e+00
2.236005737479781263e+00
2.236005737479781263e+00
2.226442945646534444e+00
2.226442945646534444e+00
2.114314523758659803e+00
2.114314523758659803e+00
2.318883266701254442e+00
2.318883266701254442e+00
2.445074617755668811e+00
2.445074617755668811e+00
2.445074617755668811e+00
2.266756675923947917e+00
2.266756675923947917e+00
2.247256080813012868e+00
2.247256080813012868e+00
2.236193243202001746e+00
2.236193243202001746e+00
2.252693746757408633e+00
2.252693746757408633e+00
2.308945463423566213e+00
2.308945463423566213e+00
2.370259834589678594e+00
2.370259834589678594e+00
2.368947294534135217e+00
2.368947294534135217e+00
2.245381023590808045e+00
2.245381023590808045e+00
2.245381023590808045e+00
2.202629718924527857e+00
2.202629718924527857e+00
2.213880062257759462e+00
2.213880062257759462e+00
2.145440473647266977e+00
2.145440473647266977e+00
2.072688253425702509e+00
2.072688253425702509e+00
2.410948576311533031e+00
2.410948576311533031e+00
2.366697225867488541e+00
2.366697225867488541e+00
2.255693838312936794e+00
2.255693838312936794e+00
2.261694021423993561e+00
2.261694021423993561e+00
2.261694021423993561e+00
2.248943632312997654e+00
2.248943632312997654e+00
2.242755943479720404e+00
2.242755943479720404e+00
2.267319193090609808e+00
2.267319193090609808e+00
2.394260567033906106e+00
2.394260567033906106e+00
2.310633014923550999e+00
2.310633014923550999e+00
2.258506424146244473e+00
2.258506424146244473e+00
2.262819055757316900e+00
2.262819055757316900e+00
2.262819055757316900e+00
2.305757866145817125e+00
2.305757866145817125e+00
2.158753379924924776e+00
2.158753379924924776e+00
2.139627796258431136e+00
2.139627796258431136e+00
2.509201574755088870e+00
2.509201574755088870e+00
2.313258095034638639e+00
2.313258095034638639e+00
2.247443586535233351e+00
2.247443586535233351e+00
2.251006195257423848e+00
2.251006195257423848e+00
2.251006195257423848e+00
2.222880336924344391e+00
2.222880336924344391e+00
2.227567979979857782e+00
2.227567979979857782e+00
2.241255897701956545e+00
2.241255897701956545e+00
2.387135349589526001e+00
2.387135349589526001e+00
2.259818964201788294e+00
2.259818964201788294e+00
2.242380932035279439e+00
2.242380932035279439e+00
2.228880520035401602e+00
2.228880520035401602e+00
2.245193517868587563e+00
2.245193517868587563e+00
2.245193517868587563e+00
2.099876583147679110e+00
2.099876583147679110e+00
2.243880977813043742e+00
2.503951414532914033e+00
2.503951414532914033e+00
2.300320200201422249e+00
2.300320200201422249e+00
2.270131778923917043e+00
2.270131778923917043e+00
2.270131778923917043e+00
2.270131778923917043e+00
2.270131778923917043e+00
2.260193975646229259e+00
2.260193975646229259e+00
2.264694112979522167e+00
2.264694112979522167e+00
2.290569902645954947e+00
2.290569902645954947e+00
2.367822260200811879e+00
2.367822260200811879e+00
2.229443037202063049e+00
2.229443037202063049e+00
2.201692190313425002e+00
2.201692190313425002e+00
2.231880611590930208e+00
2.231880611590930208e+00
2.231880611590930208e+00
2.210692464980010374e+00
2.210692464980010374e+00
2.115064546647541732e+00
2.115064546647541732e+00
2.362384594256416559e+00
2.362384594256416559e+00
2.423511459700308013e+00
2.423511459700308013e+00
2.275381939146092325e+00
2.275381939146092325e+00
2.278194524979400004e+00
2.278194524979400004e+00
2.255693838312936794e+00
2.255693838312936794e+00
2.251006195257423848e+00
2.251006195257423848e+00
2.251006195257423848e+00
2.277819513534959039e+00
2.277819513534959039e+00
2.352446790978728330e+00
2.352446790978728330e+00
2.319070772423474924e+00
2.319070772423474924e+00
2.227942991424298746e+00
2.227942991424298746e+00
2.206567339091158875e+00
2.206567339091158875e+00
2.232068117313150690e+00
2.232068117313150690e+00
2.152378185369426600e+00
2.152378185369426600e+00
2.152378185369426600e+00
2.107001800592058771e+00
2.107001800592058771e+00
2.479575670644245999e+00
2.479575670644245999e+00
2.363134617145298488e+00
2.363134617145298488e+00
2.262069032868434526e+00
2.262069032868434526e+00
2.262819055757316900e+00
2.262819055757316900e+00
2.256443861201819168e+00
2.256443861201819168e+00
2.259818964201788294e+00
2.259818964201788294e+00
2.277819513534959039e+00
2.277819513534959039e+00
2.393323038422803695e+00
2.393323038422803695e+00
2.393323038422803695e+00
2.285882259590441556e+00
2.285882259590441556e+00
2.257756401257362544e+00
2.257756401257362544e+00
2.259631458479567812e+00
2.259631458479567812e+00
2.293194982757042144e+00
2.293194982757042144e+00
2.161003448591571008e+00
2.161003448591571008e+00
2.199817133091219734e+00
2.199817133091219734e+00
2.544640156254768470e+00
2.544640156254768470e+00
2.314758140812402942e+00
2.314758140812402942e+00
2.314758140812402942e+00
2.254006286812952009e+00
2.254006286812952009e+00
2.261319009979552597e+00
2.261319009979552597e+00
2.239380840479750834e+00
2.239380840479750834e+00
2.249693655201880027e+00
2.249693655201880027e+00
2.263006561479537382e+00
2.263006561479537382e+00
2.383572740867336393e+00
2.383572740867336393e+00
2.240505874813074172e+00
2.240505874813074172e+00
2.221755302591021497e+00
2.221755302591021497e+00
2.221755302591021497e+00
2.232255623035371173e+00
2.232255623035371173e+00
2.227942991424298746e+00
2.227942991424298746e+00
2.088438734092227023e+00
2.088438734092227023e+00
2.267319193090609808e+00
2.267319193090609808e+00
2.470950407422101591e+00
2.470950407422101591e+00
2.291882442701498768e+00
2.291882442701498768e+00
2.268631733146153184e+00
2.268631733146153184e+00
2.253256263924070080e+00
2.253256263924070080e+00
2.253256263924070080e+00
2.241630909146397510e+00
2.241630909146397510e+00
2.271631824701681346e+00
2.271631824701681346e+00
2.328633564256721744e+00
2.328633564256721744e+00
2.370072328867458111e+00
2.370072328867458111e+00
2.257006378368480615e+00
2.257006378368480615e+00
2.236568254646443155e+00
2.236568254646443155e+00
2.248381115146336207e+00
2.248381115146336207e+00
2.183879146702475182e+00
2.183879146702475182e+00
2.183879146702475182e+00
2.110001892147587377e+00
2.110001892147587377e+00
2.405885921811578676e+00
2.405885921811578676e+00
2.413573656422620228e+00
2.413573656422620228e+00
2.283257179479354360e+00
2.283257179479354360e+00
2.284007202368236289e+00
2.284007202368236289e+00
2.247068575090792386e+00
2.247068575090792386e+00
2.235068208868678852e+00
2.235068208868678852e+00
2.251381206701864812e+00
2.251381206701864812e+00
2.251381206701864812e+00
2.342883999145481511e+00
2.342883999145481511e+00
2.304820337534714714e+00
2.304820337534714714e+00
2.251756218146305777e+00
2.251756218146305777e+00
2.243318460646382295e+00
2.243318460646382295e+00
2.272381847590563719e+00
2.272381847590563719e+00
2.152753196813867564e+00
2.152753196813867564e+00
2.116564592425305591e+00
2.116564592425305591e+00
2.498513748588519157e+00
2.498513748588519157e+00
2.498513748588519157e+00
2.332196172978911797e+00
2.332196172978911797e+00
2.256256355479598685e+00
2.256256355479598685e+00
2.256068849757378203e+00
2.256068849757378203e+00
2.236005737479781263e+00
2.236005737479781263e+00
2.249881160924100509e+00
2.249881160924100509e+00
2.272944364757225166e+00
2.272944364757225166e+00
2.402323313089388623e+00
2.402323313089388623e+00
2.270506790368358452e+00
2.270506790368358452e+00
2.270506790368358452e+00
2.239755851924192243e+00
2.239755851924192243e+00
2.228318002868740155e+00
2.228318002868740155e+00
2.255693838312936794e+00
2.255693838312936794e+00
2.106439283425397324e+00
2.106439283425397324e+00
2.212192510757774677e+00
2.212192510757774677e+00
2.535452375865963059e+00
2.535452375865963059e+00
2.308570451979125249e+00
2.308570451979125249e+00
2.264131595812860720e+00
2.264131595812860720e+00
2.264131595812860720e+00
2.270319284646137969e+00
2.270319284646137969e+00
2.239380840479750834e+00
2.239380840479750834e+00
2.253443769646290562e+00
2.253443769646290562e+00
2.293945005645924073e+00
2.293945005645924073e+00
2.391260475478377501e+00
2.391260475478377501e+00
2.251943723868526259e+00
2.251943723868526259e+00
2.239380840479750834e+00
2.239380840479750834e+00
2.253068758201849597e+00
2.253068758201849597e+00
2.253068758201849597e+00
2.227005462813196335e+00
2.227005462813196335e+00
2.108876857814264483e+00
2.108876857814264483e+00
2.324133426923429280e+00
2.324133426923429280e+00
2.448449720755638381e+00
2.448449720755638381e+00
2.276881984923856628e+00
2.276881984923856628e+00
2.261506515701773079e+00
2.261506515701773079e+00
2.244255989257484707e+00
2.244255989257484707e+00
2.232255623035371173e+00
2.232255623035371173e+00
2.253443769646290562e+00
2.253443769646290562e+00
2.253443769646290562e+00
2.329383587145603673e+00
2.329383587145603673e+00
2.348321665089877275e+00
2.348321665089877275e+00
2.252131229590746742e+00
2.252131229590746742e+00
2.246318552201910457e+00
2.246318552201910457e+00
2.267506698812830290e+00
2.267506698812830290e+00
2.186504226813562823e+00
2.186504226813562823e+00
2.107939329203161627e+00
2.107939329203161627e+00
2.439824457533493973e+00
2.439824457533493973e+00
2.439824457533493973e+00
2.382822717978454019e+00
2.382822717978454019e+00
2.258881435590685438e+00
2.258881435590685438e+00
2.249881160924100509e+00
2.249881160924100509e+00
2.240505874813074172e+00
2.240505874813074172e+00
2.252693746757408633e+00
2.252693746757408633e+00
2.278007019257179522e+00
2.278007019257179522e+00
2.376822534867396808e+00
2.376822534867396808e+00
2.289069856868190644e+00
2.289069856868190644e+00
2.289069856868190644e+00
2.255131321146275347e+00
2.255131321146275347e+00
2.245193517868587563e+00
2.245193517868587563e+00
2.264694112979522167e+00
2.264694112979522167e+00
2.142440382091738371e+00
2.142440382091738371e+00
2.153503219702749494e+00
2.153503219702749494e+00
2.538639973143711703e+00
2.538639973143711703e+00
2.350384228034303025e+00
2.350384228034303025e+00
2.350384228034303025e+00
2.274069399090548504e+00
2.274069399090548504e+00
2.266006653035065987e+00
2.266006653035065987e+00
2.236005737479781263e+00
2.236005737479781263e+00
2.245381023590808045e+00
2.245381023590808045e+00
2.259443952757347329e+00
2.259443952757347329e+00
2.404760887478255782e+00
2.404760887478255782e+00
2.261881527146214044e+00
2.261881527146214044e+00
2.243505966368602778e+00
2.243505966368602778e+00
2.243505966368602778e+00
2.245006012146367080e+00
2.245006012146367080e+00
2.267694204535050773e+00
2.267694204535050773e+00
2.110939420758690233e+00
2.110939420758690233e+00
2.246131046479689974e+00
2.246131046479689974e+00
2.488013428144169481e+00
2.488013428144169481e+00
2.290007385479293500e+00
2.290007385479293500e+00
2.255881344035157721e+00
2.255881344035157721e+00
2.251756218146305777e+00
2.251756218146305777e+00
2.251756218146305777e+00
2.240130863368633207e+00
2.240130863368633207e+00
2.263569078646198829e+00
2.263569078646198829e+00
2.300132694479201767e+00
2.300132694479201767e+00
2.364447157200842309e+00
2.364447157200842309e+00
2.241630909146397510e+00
2.241630909146397510e+00
2.225317911313211550e+00
2.225317911313211550e+00
2.234505691702016961e+00
2.234505691702016961e+00
2.194941984313486305e+00
2.194941984313486305e+00
2.194941984313486305e+00
2.100814111758781966e+00
2.100814111758781966e+00
2.335008758812219920e+00
2.335008758812219920e+00
2.419761345255897922e+00
2.419761345255897922e+00
2.269381756035035114e+00
2.269381756035035114e+00
2.255131321146275347e+00
2.255131321146275347e+00
2.251006195257423848e+00
2.251006195257423848e+00
2.261131504257332114e+00
2.261131504257332114e+00
2.294320017090365038e+00
2.294320017090365038e+00
2.382822717978454019e+00
2.382822717978454019e+00
2.382822717978454019e+00
2.352259285256507848e+00
2.352259285256507848e+00
2.241068391979735619e+00
2.241068391979735619e+00
2.215005096591082356e+00
2.215005096591082356e+00
2.239943357646412725e+00
2.239943357646412725e+00
2.148253059480575100e+00
2.148253059480575100e+00
2.088813745536667987e+00
2.088813745536667987e+00
2.460450086977751916e+00
2.460450086977751916e+00
2.353196813867610704e+00
2.353196813867610704e+00
2.266756675923947917e+00
2.266756675923947917e+00
2.266756675923947917e+00
2.271819330423901828e+00
2.271819330423901828e+00
2.242568437757499922e+00
2.242568437757499922e+00
2.239380840479750834e+00
2.239380840479750834e+00
2.265631641590625023e+00
2.265631641590625023e+00
2.388447889645069822e+00
2.388447889645069822e+00
2.289632374034852091e+00
2.289632374034852091e+00
2.250443678090761956e+00
2.250443678090761956e+00
2.250443678090761956e+00
2.242755943479720404e+00
2.242755943479720404e+00
2.275756950590533290e+00
2.275756950590533290e+00
2.134377636036255854e+00
2.134377636036255854e+00
2.173941343424787398e+00
2.173941343424787398e+00
2.519701895199438546e+00
2.519701895199438546e+00
2.317195715201269657e+00
2.317195715201269657e+00
2.256818872646260132e+00
2.256818872646260132e+00
2.253818781090731527e+00
2.253818781090731527e+00
2.244068483535264225e+00
2.244068483535264225e+00
2.244068483535264225e+00
2.263194067201757864e+00
2.263194067201757864e+00
2.281194616534928166e+00
2.281194616534928166e+00
2.426511551255836618e+00
2.426511551255836618e+00
2.302382763145847999e+00
2.302382763145847999e+00
2.258131412701803509e+00
2.258131412701803509e+00
2.248756126590777171e+00
2.248756126590777171e+00
2.236193243202001746e+00
2.236193243202001746e+00
2.094251411481063307e+00
2.094251411481063307e+00
2.259631458479567812e+00
2.259631458479567812e+00
