2.341383953367717208e+00
2.255131321146275347e+00
2.255131321146275347e+00
2.255131321146275347e+00
2.233193151646474028e+00
2.233193151646474028e+00
2.233193151646474028e+00
2.223630359813226764e+00
2.223630359813226764e+00
2.223630359813226764e+00
2.246131046479689974e+00
2.246131046479689974e+00
2.246131046479689974e+00
2.246131046479689974e+00
2.270131778923917043e+00
2.270131778923917043e+00
2.270131778923917043e+00
2.455574938200018487e+00
2.455574938200018487e+00
2.455574938200018487e+00
2.455574938200018487e+00
2.286444776757103448e+00
2.286444776757103448e+00
2.286444776757103448e+00
2.254943815424054865e+00
2.254943815424054865e+00
2.254943815424054865e+00
2.235818231757560781e+00
2.235818231757560781e+00
2.235818231757560781e+00
2.235818231757560781e+00
2.252881252479629115e+00
2.252881252479629115e+00
2.252881252479629115e+00
2.062187932981353278e+00
2.062187932981353278e+00
2.062187932981353278e+00
2.245756035035248566e+00
2.245756035035248566e+00
2.245756035035248566e+00
2.245756035035248566e+00
2.542765099032563203e+00
2.542765099032563203e+00
2.542765099032563203e+00
2.290382396923734465e+00
2.290382396923734465e+00
2.290382396923734465e+00
2.248568620868556689e+00
2.248568620868556689e+00
2.248568620868556689e+00
2.248568620868556689e+00
2.226067934202093479e+00
2.226067934202093479e+00
2.226067934202093479e+00
2.213130039368877089e+00
2.213130039368877089e+00
2.213130039368877089e+00
2.213130039368877089e+00
2.241443403424177028e+00
2.241443403424177028e+00
2.241443403424177028e+00
2.320758323923459709e+00
2.320758323923459709e+00
2.320758323923459709e+00
2.435136814477980582e+00
2.435136814477980582e+00
2.435136814477980582e+00
2.435136814477980582e+00
2.284569719534897736e+00
2.284569719534897736e+00
2.284569719534897736e+00
2.254568803979613900e+00
2.254568803979613900e+00
2.254568803979613900e+00
2.259818964201788294e+00
2.259818964201788294e+00
2.259818964201788294e+00
2.195316995757927270e+00
2.195316995757927270e+00
2.195316995757927270e+00
2.195316995757927270e+00
2.063125461592455689e+00
2.063125461592455689e+00
2.063125461592455689e+00
2.405323404644917229e+00
2.405323404644917229e+00
2.405323404644917229e+00
2.469262855922116806e+00
2.469262855922116806e+00
2.282882168034912951e+00
2.282882168034912951e+00
2.282882168034912951e+00
2.282882168034912951e+00
2.271819330423901828e+00
2.271819330423901828e+00
2.271819330423901828e+00
2.234130680257575996e+00
2.234130680257575996e+00
2.234130680257575996e+00
2.222505325479903426e+00
2.222505325479903426e+00
2.222505325479903426e+00
2.222505325479903426e+00
2.255131321146275347e+00
2.255131321146275347e+00
2.255131321146275347e+00
2.389197912533951751e+00
2.389197912533951751e+00
2.389197912533951751e+00
2.346071596423230599e+00
2.346071596423230599e+00
2.346071596423230599e+00
2.346071596423230599e+00
2.235255714590899334e+00
2.235255714590899334e+00
2.235255714590899334e+00
2.219505233924375265e+00
2.219505233924375265e+00
2.219505233924375265e+00
2.260568987090670667e+00
2.260568987090670667e+00
2.260568987090670667e+00
2.260568987090670667e+00
2.133815118869594407e+00
2.133815118869594407e+00
2.133815118869594407e+00
2.051500106814783120e+00
2.051500106814783120e+00
2.051500106814783120e+00
2.560203131199072502e+00
2.560203131199072502e+00
2.560203131199072502e+00
2.560203131199072502e+00
2.398760704367198571e+00
2.398760704367198571e+00
2.275756950590533290e+00
2.275756950590533290e+00
2.275756950590533290e+00
2.275756950590533290e+00
2.264694112979522167e+00
2.264694112979522167e+00
2.264694112979522167e+00
2.235818231757560781e+00
2.235818231757560781e+00
2.235818231757560781e+00
2.240880886257515137e+00
2.240880886257515137e+00
2.240880886257515137e+00
2.240693380535294654e+00
2.240693380535294654e+00
2.240693380535294654e+00
2.240693380535294654e+00
2.420511368144779851e+00
2.420511368144779851e+00
2.420511368144779851e+00
2.296757591479232197e+00
2.296757591479232197e+00
2.296757591479232197e+00
2.221755302591021497e+00
2.221755302591021497e+00
2.221755302591021497e+00
2.221755302591021497e+00
2.194754478591265823e+00
2.194754478591265823e+00
2.194754478591265823e+00
2.260756492812891150e+00
2.260756492812891150e+00
2.260756492812891150e+00
2.082251045258949329e+00
2.082251045258949329e+00
2.082251045258949329e+00
2.082251045258949329e+00
2.161003448591571008e+00
2.161003448591571008e+00
2.161003448591571008e+00
2.561890682699057287e+00
2.561890682699057287e+00
2.561890682699057287e+00
2.325258461256752618e+00
2.325258461256752618e+00
2.325258461256752618e+00
2.270506790368358452e+00
2.270506790368358452e+00
2.270506790368358452e+00
2.270506790368358452e+00
2.267881710257271255e+00
2.267881710257271255e+00
2.267881710257271255e+00
2.245193517868587563e+00
2.245193517868587563e+00
2.245193517868587563e+00
2.255318826868495830e+00
2.255318826868495830e+00
2.255318826868495830e+00
2.255318826868495830e+00
2.271631824701681346e+00
2.271631824701681346e+00
2.271631824701681346e+00
2.417886288033692654e+00
2.417886288033692654e+00
2.417886288033692654e+00
2.417886288033692654e+00
2.223817865535447247e+00
2.223817865535447247e+00
2.223817865535447247e+00
2.212567522202215642e+00
2.212567522202215642e+00
2.212567522202215642e+00
2.258131412701803509e+00
2.258131412701803509e+00
2.258131412701803509e+00
2.258131412701803509e+00
2.262819055757316900e+00
2.262819055757316900e+00
2.262819055757316900e+00
2.084501113925596005e+00
2.084501113925596005e+00
2.084501113925596005e+00
2.313258095034638639e+00
2.313258095034638639e+00
2.313258095034638639e+00
2.313258095034638639e+00
2.517264320810571387e+00
2.517264320810571387e+00
2.517264320810571387e+00
2.288319833979308715e+00
2.288319833979308715e+00
2.288319833979308715e+00
2.293382488479262626e+00
2.293382488479262626e+00
2.293382488479262626e+00
2.293382488479262626e+00
2.249693655201880027e+00
2.249693655201880027e+00
2.249693655201880027e+00
2.217067659535508550e+00
2.217067659535508550e+00
2.217067659535508550e+00
2.244068483535264225e+00
2.244068483535264225e+00
2.244068483535264225e+00
2.244068483535264225e+00
2.335196264534440402e+00
2.335196264534440402e+00
2.335196264534440402e+00
2.385822809533982625e+00
2.385822809533982625e+00
2.385822809533982625e+00
2.272381847590563719e+00
2.272381847590563719e+00
2.272381847590563719e+00
2.272381847590563719e+00
2.241255897701956545e+00
2.241255897701956545e+00
2.241255897701956545e+00
2.261881527146214044e+00
2.261881527146214044e+00
2.261881527146214044e+00
2.181441572313608468e+00
2.181441572313608468e+00
2.181441572313608468e+00
2.181441572313608468e+00
2.050750083925901190e+00
2.050750083925901190e+00
2.050750083925901190e+00
2.466825281533250092e+00
2.466825281533250092e+00
2.466825281533250092e+00
2.446574663533433114e+00
2.446574663533433114e+00
2.446574663533433114e+00
2.446574663533433114e+00
2.280632099368266719e+00
2.280632099368266719e+00
2.280632099368266719e+00
2.270131778923917043e+00
2.270131778923917043e+00
2.270131778923917043e+00
2.232630634479812137e+00
2.232630634479812137e+00
2.232630634479812137e+00
2.232630634479812137e+00
2.218192693868831444e+00
2.218192693868831444e+00
2.218192693868831444e+00
2.236755760368663637e+00
2.236755760368663637e+00
2.236755760368663637e+00
2.380572649311807787e+00
2.380572649311807787e+00
2.380572649311807787e+00
2.380572649311807787e+00
2.302945280312509890e+00
2.302945280312509890e+00
2.302945280312509890e+00
2.223255348368785356e+00
2.223255348368785356e+00
2.223255348368785356e+00
2.213692556535538980e+00
2.213692556535538980e+00
2.213692556535538980e+00
2.213692556535538980e+00
2.244818506424146598e+00
2.244818506424146598e+00
2.244818506424146598e+00
2.101001617481002448e+00
2.101001617481002448e+00
2.101001617481002448e+00
2.084313608203375079e+00
2.084313608203375079e+00
2.084313608203375079e+00
2.084313608203375079e+00
2.585328897976622908e+00
2.585328897976622908e+00
2.585328897976622908e+00
2.361447065645314147e+00
2.361447065645314147e+00
2.361447065645314147e+00
2.246131046479689974e+00
2.246131046479689974e+00
2.246131046479689974e+00
2.246131046479689974e+00
2.232255623035371173e+00
2.232255623035371173e+00
2.232255623035371173e+00
2.208817407757805107e+00
2.208817407757805107e+00
2.208817407757805107e+00
2.224380382702108694e+00
2.224380382702108694e+00
2.224380382702108694e+00
2.224380382702108694e+00
2.258881435590685438e+00
2.258881435590685438e+00
2.258881435590685438e+00
2.465325235755485789e+00
2.465325235755485789e+00
2.465325235755485789e+00
2.309132969145787140e+00
2.309132969145787140e+00
2.309132969145787140e+00
2.309132969145787140e+00
2.277819513534959039e+00
2.277819513534959039e+00
2.277819513534959039e+00
2.271069307535019899e+00
2.271069307535019899e+00
2.271069307535019899e+00
2.289632374034852091e+00
2.289632374034852091e+00
2.289632374034852091e+00
2.289632374034852091e+00
2.091063814203314664e+00
2.091063814203314664e+00
2.091063814203314664e+00
2.229443037202063049e+00
2.229443037202063049e+00
2.229443037202063049e+00
2.575203588976714197e+00
2.575203588976714197e+00
2.575203588976714197e+00
2.575203588976714197e+00
2.314570635090182460e+00
2.314570635090182460e+00
2.314570635090182460e+00
2.273131870479445649e+00
2.273131870479445649e+00
2.273131870479445649e+00
2.242568437757499922e+00
2.242568437757499922e+00
2.242568437757499922e+00
2.242568437757499922e+00
2.221005279702139568e+00
2.221005279702139568e+00
2.221005279702139568e+00
2.228318002868740155e+00
2.228318002868740155e+00
2.228318002868740155e+00
2.228318002868740155e+00
2.265256630146183614e+00
2.265256630146183614e+00
2.265256630146183614e+00
2.392948026978362286e+00
2.392948026978362286e+00
2.392948026978362286e+00
2.230568071535386387e+00
2.230568071535386387e+00
2.230568071535386387e+00
2.230568071535386387e+00
2.215005096591082356e+00
2.215005096591082356e+00
2.215005096591082356e+00
2.254943815424054865e+00
2.254943815424054865e+00
2.254943815424054865e+00
2.213317545091097571e+00
2.213317545091097571e+00
2.213317545091097571e+00
2.213317545091097571e+00
2.059375347148045154e+00
2.059375347148045154e+00
2.059375347148045154e+00
2.363134617145298488e+00
2.363134617145298488e+00
2.363134617145298488e+00
2.493638599810785283e+00
2.493638599810785283e+00
2.493638599810785283e+00
2.294132511368144556e+00
2.294132511368144556e+00
2.294132511368144556e+00
2.294132511368144556e+00
2.281382122257148648e+00
2.281382122257148648e+00
2.281382122257148648e+00
2.237505783257545566e+00
2.237505783257545566e+00
2.237505783257545566e+00
2.229630542924283532e+00
2.229630542924283532e+00
2.229630542924283532e+00
2.229630542924283532e+00
2.260193975646229259e+00
2.260193975646229259e+00
2.260193975646229259e+00
2.360509537034211291e+00
2.360509537034211291e+00
2.360509537034211291e+00
2.353384319589831186e+00
2.353384319589831186e+00
2.353384319589831186e+00
2.239943357646412725e+00
2.239943357646412725e+00
2.239943357646412725e+00
2.239943357646412725e+00
2.207504867702261730e+00
2.207504867702261730e+00
2.207504867702261730e+00
2.254381298257393418e+00
2.254381298257393418e+00
2.254381298257393418e+00
2.254381298257393418e+00
2.150315622425000850e+00
2.150315622425000850e+00
2.150315622425000850e+00
2.051312601092562637e+00
2.051312601092562637e+00
2.051312601092562637e+00
2.518951872310556173e+00
2.518951872310556173e+00
2.518951872310556173e+00
2.518951872310556173e+00
2.402510818811609106e+00
2.402510818811609106e+00
2.402510818811609106e+00
2.280632099368266719e+00
2.280632099368266719e+00
2.280632099368266719e+00
2.272194341868343237e+00
2.272194341868343237e+00
2.272194341868343237e+00
2.272194341868343237e+00
2.237693288979766049e+00
2.237693288979766049e+00
2.237693288979766049e+00
2.238818323313089387e+00
2.238818323313089387e+00
2.238818323313089387e+00
2.271069307535019899e+00
2.271069307535019899e+00
2.271069307535019899e+00
2.271069307535019899e+00
2.431386700033570492e+00
2.431386700033570492e+00
2.431386700033570492e+00
2.314945646534623425e+00
2.314945646534623425e+00
2.314945646534623425e+00
2.250068666646320992e+00
2.250068666646320992e+00
2.250068666646320992e+00
2.250068666646320992e+00
2.232818140202032620e+00
2.232818140202032620e+00
2.232818140202032620e+00
2.276319467757194737e+00
2.276319467757194737e+00
2.276319467757194737e+00
2.104751731925412539e+00
2.104751731925412539e+00
2.104751731925412539e+00
2.104751731925412539e+00
2.141877864925076924e+00
2.141877864925076924e+00
2.141877864925076924e+00
2.604079470198675583e+00
2.604079470198675583e+00
2.604079470198675583e+00
2.361447065645314147e+00
2.361447065645314147e+00
2.361447065645314147e+00
2.361447065645314147e+00
2.285882259590441556e+00
2.285882259590441556e+00
2.285882259590441556e+00
2.257568895535142062e+00
2.257568895535142062e+00
2.257568895535142062e+00
2.231130588702047834e+00
2.231130588702047834e+00
2.231130588702047834e+00
2.231130588702047834e+00
2.238630817590868904e+00
2.238630817590868904e+00
2.238630817590868904e+00
2.233568163090914993e+00
2.233568163090914993e+00
2.233568163090914993e+00
2.416573747978148834e+00
2.416573747978148834e+00
2.416573747978148834e+00
2.416573747978148834e+00
2.235818231757560781e+00
2.235818231757560781e+00
2.235818231757560781e+00
2.209942442091128445e+00
2.209942442091128445e+00
2.209942442091128445e+00
2.206379833368938392e+00
2.206379833368938392e+00
2.206379833368938392e+00
2.206379833368938392e+00
2.216505142368846659e+00
2.216505142368846659e+00
2.216505142368846659e+00
2.029936948759422766e+00
2.029936948759422766e+00
2.029936948759422766e+00
2.230005554368724940e+00
2.230005554368724940e+00
2.230005554368724940e+00
2.230005554368724940e+00
2.503763908810693550e+00
2.503763908810693550e+00
2.503763908810693550e+00
2.269756767479476078e+00
2.269756767479476078e+00
2.269756767479476078e+00
2.249693655201880027e+00
2.249693655201880027e+00
2.249693655201880027e+00
2.249693655201880027e+00
2.247068575090792386e+00
2.247068575090792386e+00
2.247068575090792386e+00
2.249881160924100509e+00
2.249881160924100509e+00
2.249881160924100509e+00
2.249881160924100509e+00
2.271256813257240381e+00
2.271256813257240381e+00
2.271256813257240381e+00
2.336696310312204705e+00
2.336696310312204705e+00
2.336696310312204705e+00
2.399323221533860018e+00
2.399323221533860018e+00
2.399323221533860018e+00
2.399323221533860018e+00
2.260193975646229259e+00
2.260193975646229259e+00
2.260193975646229259e+00
2.258131412701803509e+00
2.258131412701803509e+00
2.258131412701803509e+00
2.281757133701590057e+00
2.281757133701590057e+00
2.281757133701590057e+00
2.281757133701590057e+00
2.197942075869014911e+00
2.197942075869014911e+00
2.197942075869014911e+00
2.047937498092593067e+00
2.047937498092593067e+00
2.047937498092593067e+00
2.424261482589190386e+00
2.424261482589190386e+00
2.424261482589190386e+00
2.424261482589190386e+00
2.468887844477675397e+00
2.468887844477675397e+00
2.468887844477675397e+00
2.292819971312600735e+00
2.292819971312600735e+00
2.292819971312600735e+00
2.286069765312662039e+00
2.286069765312662039e+00
2.286069765312662039e+00
2.286069765312662039e+00
2.256068849757378203e+00
2.256068849757378203e+00
2.256068849757378203e+00
2.235255714590899334e+00
2.235255714590899334e+00
2.235255714590899334e+00
2.261319009979552597e+00
2.261319009979552597e+00
2.261319009979552597e+00
2.261319009979552597e+00
2.387322855311746483e+00
2.387322855311746483e+00
2.387322855311746483e+00
2.342133976256599581e+00
2.342133976256599581e+00
2.342133976256599581e+00
2.255318826868495830e+00
2.255318826868495830e+00
2.255318826868495830e+00
2.255318826868495830e+00
2.248381115146336207e+00
2.248381115146336207e+00
2.248381115146336207e+00
2.293382488479262626e+00
2.293382488479262626e+00
2.293382488479262626e+00
2.151815668202764709e+00
2.151815668202764709e+00
2.151815668202764709e+00
2.151815668202764709e+00
2.060500381481368493e+00
2.060500381481368493e+00
2.060500381481368493e+00
2.558515579699087716e+00
2.558515579699087716e+00
2.558515579699087716e+00
2.367447248756370914e+00
2.367447248756370914e+00
2.367447248756370914e+00
2.367447248756370914e+00
2.267881710257271255e+00
2.267881710257271255e+00
2.267881710257271255e+00
2.268819238868374111e+00
2.268819238868374111e+00
2.268819238868374111e+00
2.236943266090884119e+00
2.236943266090884119e+00
2.236943266090884119e+00
2.236943266090884119e+00
2.234130680257575996e+00
2.234130680257575996e+00
2.234130680257575996e+00
2.257943906979583026e+00
2.257943906979583026e+00
2.257943906979583026e+00
2.438511917477950597e+00
2.438511917477950597e+00
2.438511917477950597e+00
2.438511917477950597e+00
2.289819879757073018e+00
2.289819879757073018e+00
2.289819879757073018e+00
2.236005737479781263e+00
2.236005737479781263e+00
2.236005737479781263e+00
2.240693380535294654e+00
2.240693380535294654e+00
2.240693380535294654e+00
2.240693380535294654e+00
2.278569536423841413e+00
2.278569536423841413e+00
2.278569536423841413e+00
2.066500564592425260e+00
2.066500564592425260e+00
2.066500564592425260e+00
2.161190954313791490e+00
2.161190954313791490e+00
2.161190954313791490e+00
2.161190954313791490e+00
2.558515579699087716e+00
2.558515579699087716e+00
2.558515579699087716e+00
2.296382580034791232e+00
2.296382580034791232e+00
2.296382580034791232e+00
2.248193609424115724e+00
2.248193609424115724e+00
2.248193609424115724e+00
2.248193609424115724e+00
2.225505417035432032e+00
2.225505417035432032e+00
2.225505417035432032e+00
2.221005279702139568e+00
2.221005279702139568e+00
2.221005279702139568e+00
2.249881160924100509e+00
2.249881160924100509e+00
2.249881160924100509e+00
2.249881160924100509e+00
2.283632190923795324e+00
2.283632190923795324e+00
2.283632190923795324e+00
2.425949034089175171e+00
2.425949034089175171e+00
2.425949034089175171e+00
2.258131412701803509e+00
2.258131412701803509e+00
2.258131412701803509e+00
2.258131412701803509e+00
2.241818414868617992e+00
2.241818414868617992e+00
2.241818414868617992e+00
2.253631275368511044e+00
2.253631275368511044e+00
2.253631275368511044e+00
2.226442945646534444e+00
2.226442945646534444e+00
2.226442945646534444e+00
2.226442945646534444e+00
2.055437726981414581e+00
2.055437726981414581e+00
2.055437726981414581e+00
2.331258644367808941e+00
2.331258644367808941e+00
2.331258644367808941e+00
2.512389172032837958e+00
2.512389172032837958e+00
2.512389172032837958e+00
2.512389172032837958e+00
2.296570085757011714e+00
2.296570085757011714e+00
2.296570085757011714e+00
2.278382030701620931e+00
2.278382030701620931e+00
2.278382030701620931e+00
2.247818597979674760e+00
2.247818597979674760e+00
2.247818597979674760e+00
2.247818597979674760e+00
2.233755668813135031e+00
2.233755668813135031e+00
2.233755668813135031e+00
2.250256172368541474e+00
2.250256172368541474e+00
2.250256172368541474e+00
2.344946562089907705e+00
2.344946562089907705e+00
2.344946562089907705e+00
2.344946562089907705e+00
2.364634662923062791e+00
2.364634662923062791e+00
2.364634662923062791e+00
2.227005462813196335e+00
2.227005462813196335e+00
2.227005462813196335e+00
2.189129306924649576e+00
2.189129306924649576e+00
2.189129306924649576e+00
2.189129306924649576e+00
2.224192876979888212e+00
2.224192876979888212e+00
2.224192876979888212e+00
2.150503128147221332e+00
2.150503128147221332e+00
2.150503128147221332e+00
2.040999786370433888e+00
2.040999786370433888e+00
2.040999786370433888e+00
2.040999786370433888e+00
2.476013061922055947e+00
2.476013061922055947e+00
2.476013061922055947e+00
2.390697958311716054e+00
2.390697958311716054e+00
2.390697958311716054e+00
2.242568437757499922e+00
2.242568437757499922e+00
2.242568437757499922e+00
2.242568437757499922e+00
2.267881710257271255e+00
2.267881710257271255e+00
2.267881710257271255e+00
2.251381206701864812e+00
2.251381206701864812e+00
2.251381206701864812e+00
2.248756126590777171e+00
2.248756126590777171e+00
2.248756126590777171e+00
2.248756126590777171e+00
2.266006653035065987e+00
2.266006653035065987e+00
2.266006653035065987e+00
2.422761436811426083e+00
2.422761436811426083e+00
2.422761436811426083e+00
2.356009399700918827e+00
2.356009399700918827e+00
2.356009399700918827e+00
2.356009399700918827e+00
2.294320017090365038e+00
2.294320017090365038e+00
2.294320017090365038e+00
2.292069948423719250e+00
2.292069948423719250e+00
2.292069948423719250e+00
2.319070772423474924e+00
2.319070772423474924e+00
2.319070772423474924e+00
2.319070772423474924e+00
2.129502487258521981e+00
2.129502487258521981e+00
2.129502487258521981e+00
2.099126560258797181e+00
2.099126560258797181e+00
2.099126560258797181e+00
2.099126560258797181e+00
2.589454023865474408e+00
2.589454023865474408e+00
2.589454023865474408e+00
2.341008941923276243e+00
2.341008941923276243e+00
2.341008941923276243e+00
2.255131321146275347e+00
2.255131321146275347e+00
2.255131321146275347e+00
2.241630909146397510e+00
2.241630909146397510e+00
2.241630909146397510e+00
2.241630909146397510e+00
2.206942350535599839e+00
2.206942350535599839e+00
2.206942350535599839e+00
2.220817773979919085e+00
2.220817773979919085e+00
2.220817773979919085e+00
2.238630817590868904e+00
2.238630817590868904e+00
2.238630817590868904e+00
2.238630817590868904e+00
2.429136631366924259e+00
2.429136631366924259e+00
2.429136631366924259e+00
2.258693929868464956e+00
2.258693929868464956e+00
2.258693929868464956e+00
2.235630726035340299e+00
2.235630726035340299e+00
2.235630726035340299e+00
2.235630726035340299e+00
2.227005462813196335e+00
2.227005462813196335e+00
2.227005462813196335e+00
2.244631000701926116e+00
2.244631000701926116e+00
2.244631000701926116e+00
2.054687704092532208e+00
2.054687704092532208e+00
2.054687704092532208e+00
2.054687704092532208e+00
2.225692922757652514e+00
2.225692922757652514e+00
2.225692922757652514e+00
2.547452742088076594e+00
2.547452742088076594e+00
2.547452742088076594e+00
2.303695303201391820e+00
2.303695303201391820e+00
2.303695303201391820e+00
2.303695303201391820e+00
2.287382305368205859e+00
2.287382305368205859e+00
2.287382305368205859e+00
2.262444044312875935e+00
2.262444044312875935e+00
2.262444044312875935e+00
2.239943357646412725e+00
2.239943357646412725e+00
2.239943357646412725e+00
2.239943357646412725e+00
2.249693655201880027e+00
2.249693655201880027e+00
2.249693655201880027e+00
2.297320108645893644e+00
2.297320108645893644e+00
2.297320108645893644e+00
2.401385784478286212e+00
2.401385784478286212e+00
2.401385784478286212e+00
2.401385784478286212e+00
2.253631275368511044e+00
2.253631275368511044e+00
2.253631275368511044e+00
2.231693105868709726e+00
2.231693105868709726e+00
2.231693105868709726e+00
2.254193792535172935e+00
2.254193792535172935e+00
2.254193792535172935e+00
2.254193792535172935e+00
2.206942350535599839e+00
2.206942350535599839e+00
2.206942350535599839e+00
2.056562761314737475e+00
2.056562761314737475e+00
2.056562761314737475e+00
2.395948118533890892e+00
2.395948118533890892e+00
2.395948118533890892e+00
2.395948118533890892e+00
2.498138737144077748e+00
2.498138737144077748e+00
2.498138737144077748e+00
2.284194708090456771e+00
2.284194708090456771e+00
2.284194708090456771e+00
2.263944090090640238e+00
2.263944090090640238e+00
2.263944090090640238e+00
2.263944090090640238e+00
2.233568163090914993e+00
2.233568163090914993e+00
2.233568163090914993e+00
2.226255439924313961e+00
2.226255439924313961e+00
2.226255439924313961e+00
2.241818414868617992e+00
2.241818414868617992e+00
2.241818414868617992e+00
2.241818414868617992e+00
2.350759239478743989e+00
2.350759239478743989e+00
2.350759239478743989e+00
2.335571275978881367e+00
2.335571275978881367e+00
2.335571275978881367e+00
2.242005920590838475e+00
2.242005920590838475e+00
2.242005920590838475e+00
2.242005920590838475e+00
2.230380565813165905e+00
2.230380565813165905e+00
2.230380565813165905e+00
2.283069673757133433e+00
2.283069673757133433e+00
2.283069673757133433e+00
2.155378276924954761e+00
2.155378276924954761e+00
2.155378276924954761e+00
2.155378276924954761e+00
2.056750267036957958e+00
2.056750267036957958e+00
2.056750267036957958e+00
2.530952238532670151e+00
2.530952238532670151e+00
2.530952238532670151e+00
2.371759880367442896e+00
2.371759880367442896e+00
2.371759880367442896e+00
2.371759880367442896e+00
2.244068483535264225e+00
2.244068483535264225e+00
2.244068483535264225e+00
2.260568987090670667e+00
2.260568987090670667e+00
2.260568987090670667e+00
2.243693472090823260e+00
2.243693472090823260e+00
2.243693472090823260e+00
2.240880886257515137e+00
2.240880886257515137e+00
2.240880886257515137e+00
2.241630909146397510e+00
2.241630909146397510e+00
2.241630909146397510e+00
2.241630909146397510e+00
2.430261665700247153e+00
2.430261665700247153e+00
2.430261665700247153e+00
2.311570543534653854e+00
2.311570543534653854e+00
2.311570543534653854e+00
2.247256080813012868e+00
2.247256080813012868e+00
2.247256080813012868e+00
2.247256080813012868e+00
2.217817682424390480e+00
2.217817682424390480e+00
2.217817682424390480e+00
2.266381664479506952e+00
2.266381664479506952e+00
2.266381664479506952e+00
2.089376262703329878e+00
2.089376262703329878e+00
2.089376262703329878e+00
2.089376262703329878e+00
2.144127933591723156e+00
2.144127933591723156e+00
2.144127933591723156e+00
2.587578966643269140e+00
2.587578966643269140e+00
2.587578966643269140e+00
2.351134250923184954e+00
2.351134250923184954e+00
2.351134250923184954e+00
2.351134250923184954e+00
2.290382396923734465e+00
2.290382396923734465e+00
2.290382396923734465e+00
2.279507065034943825e+00
2.279507065034943825e+00
2.279507065034943825e+00
2.241630909146397510e+00
2.241630909146397510e+00
2.241630909146397510e+00
2.241630909146397510e+00
2.260006469924008776e+00
2.260006469924008776e+00
2.260006469924008776e+00
2.278757042146061895e+00
2.278757042146061895e+00
2.278757042146061895e+00
2.426886562700277583e+00
2.426886562700277583e+00
2.426886562700277583e+00
2.426886562700277583e+00
2.229255531479842567e+00
2.229255531479842567e+00
2.229255531479842567e+00
2.208629902035584625e+00
2.208629902035584625e+00
2.208629902035584625e+00
2.219692739646595747e+00
2.219692739646595747e+00
2.219692739646595747e+00
2.219692739646595747e+00
2.202254707480086449e+00
2.202254707480086449e+00
2.202254707480086449e+00
2.033874568926053783e+00
2.033874568926053783e+00
2.033874568926053783e+00
2.287569811090426342e+00
2.287569811090426342e+00
2.287569811090426342e+00
2.287569811090426342e+00
2.551765373699148576e+00
2.551765373699148576e+00
2.551765373699148576e+00
2.330696127201147494e+00
2.330696127201147494e+00
2.330696127201147494e+00
2.299382671590319838e+00
2.299382671590319838e+00
2.299382671590319838e+00
2.299382671590319838e+00
2.257006378368480615e+00
2.257006378368480615e+00
2.257006378368480615e+00
2.237318277535325084e+00
2.237318277535325084e+00
2.237318277535325084e+00
2.256443861201819168e+00
2.256443861201819168e+00
2.256443861201819168e+00
2.256443861201819168e+00
2.335946287423322332e+00
2.335946287423322332e+00
2.335946287423322332e+00
2.396885647144993747e+00
2.396885647144993747e+00
2.396885647144993747e+00
2.288319833979308715e+00
2.288319833979308715e+00
2.288319833979308715e+00
2.247443586535233351e+00
2.247443586535233351e+00
2.247443586535233351e+00
2.247443586535233351e+00
2.259256447035126847e+00
2.259256447035126847e+00
2.259256447035126847e+00
2.175441389202551257e+00
2.175441389202551257e+00
2.175441389202551257e+00
2.175441389202551257e+00
2.044374889370403459e+00
2.044374889370403459e+00
2.044374889370403459e+00
2.453137363811151772e+00
2.453137363811151772e+00
2.453137363811151772e+00
2.435136814477980582e+00
2.435136814477980582e+00
2.435136814477980582e+00
2.435136814477980582e+00
2.238630817590868904e+00
2.238630817590868904e+00
2.238630817590868904e+00
2.233380657368694511e+00
2.233380657368694511e+00
2.233380657368694511e+00
2.211442487868892304e+00
2.211442487868892304e+00
2.211442487868892304e+00
2.204129764702292160e+00
2.204129764702292160e+00
2.204129764702292160e+00
2.204129764702292160e+00
2.230005554368724940e+00
2.230005554368724940e+00
2.230005554368724940e+00
2.365572191534165203e+00
2.365572191534165203e+00
2.365572191534165203e+00
2.319070772423474924e+00
2.319070772423474924e+00
2.319070772423474924e+00
2.319070772423474924e+00
2.245006012146367080e+00
2.245006012146367080e+00
2.245006012146367080e+00
2.239380840479750834e+00
2.239380840479750834e+00
2.239380840479750834e+00
2.239380840479750834e+00
2.282507156590471986e+00
2.282507156590471986e+00
2.282507156590471986e+00
2.130815027314065802e+00
2.130815027314065802e+00
2.130815027314065802e+00
2.085626148258918899e+00
2.085626148258918899e+00
2.085626148258918899e+00
2.085626148258918899e+00
2.577266151921139947e+00
2.577266151921139947e+00
2.577266151921139947e+00
2.356196905423139309e+00
2.356196905423139309e+00
2.356196905423139309e+00
2.245943540757469048e+00
2.245943540757469048e+00
2.245943540757469048e+00
2.241630909146397510e+00
2.241630909146397510e+00
2.241630909146397510e+00
2.241630909146397510e+00
2.219880245368816230e+00
2.219880245368816230e+00
2.219880245368816230e+00
2.224380382702108694e+00
2.224380382702108694e+00
2.224380382702108694e+00
2.224380382702108694e+00
2.249881160924100509e+00
2.249881160924100509e+00
2.249881160924100509e+00
2.437011871700186294e+00
2.437011871700186294e+00
2.437011871700186294e+00
2.283444685201574842e+00
2.283444685201574842e+00
2.283444685201574842e+00
2.283444685201574842e+00
2.253068758201849597e+00
2.253068758201849597e+00
2.253068758201849597e+00
2.248756126590777171e+00
2.248756126590777171e+00
2.248756126590777171e+00
2.281944639423810539e+00
2.281944639423810539e+00
2.281944639423810539e+00
2.281944639423810539e+00
2.076813379314554453e+00
2.076813379314554453e+00
2.076813379314554453e+00
2.215380108035523765e+00
2.215380108035523765e+00
2.215380108035523765e+00
2.594891689809869728e+00
2.594891689809869728e+00
2.594891689809869728e+00
2.594891689809869728e+00
2.332383678701132279e+00
2.332383678701132279e+00
2.332383678701132279e+00
2.281194616534928166e+00
2.281194616534928166e+00
2.281194616534928166e+00
2.259068941312906365e+00
2.259068941312906365e+00
2.259068941312906365e+00
2.259068941312906365e+00
2.227192968535416817e+00
2.227192968535416817e+00
2.227192968535416817e+00
2.266006653035065987e+00
2.266006653035065987e+00
2.266006653035065987e+00
2.327508529923398850e+00
2.327508529923398850e+00
2.327508529923398850e+00
2.327508529923398850e+00
2.452012329477828434e+00
2.452012329477828434e+00
2.452012329477828434e+00
2.263381572923978347e+00
2.263381572923978347e+00
2.263381572923978347e+00
2.229255531479842567e+00
2.229255531479842567e+00
2.229255531479842567e+00
2.229255531479842567e+00
2.248756126590777171e+00
2.248756126590777171e+00
2.248756126590777171e+00
2.210692464980010374e+00
2.210692464980010374e+00
2.210692464980010374e+00
2.046812463759269729e+00
2.046812463759269729e+00
2.046812463759269729e+00
2.046812463759269729e+00
2.339508896145511940e+00
2.339508896145511940e+00
2.339508896145511940e+00
2.477325601977599767e+00
2.477325601977599767e+00
2.477325601977599767e+00
2.256818872646260132e+00
2.256818872646260132e+00
2.256818872646260132e+00
2.233005645924253102e+00
2.233005645924253102e+00
2.233005645924253102e+00
2.233005645924253102e+00
2.220067751091036712e+00
2.220067751091036712e+00
2.220067751091036712e+00
2.217442670979949515e+00
2.217442670979949515e+00
2.217442670979949515e+00
2.241068391979735619e+00
2.241068391979735619e+00
2.241068391979735619e+00
2.241068391979735619e+00
2.355071871089815971e+00
2.355071871089815971e+00
2.355071871089815971e+00
2.374197454756310055e+00
2.374197454756310055e+00
2.374197454756310055e+00
2.265444135868404540e+00
2.265444135868404540e+00
2.265444135868404540e+00
2.265444135868404540e+00
2.245006012146367080e+00
2.245006012146367080e+00
2.245006012146367080e+00
2.275006927701650916e+00
2.275006927701650916e+00
2.275006927701650916e+00
2.164191045869319652e+00
2.164191045869319652e+00
2.164191045869319652e+00
2.164191045869319652e+00
2.058812829981383707e+00
2.058812829981383707e+00
2.058812829981383707e+00
2.540140018921475562e+00
2.540140018921475562e+00
2.540140018921475562e+00
2.439074434644612044e+00
2.439074434644612044e+00
2.439074434644612044e+00
2.439074434644612044e+00
2.285507248146000592e+00
2.285507248146000592e+00
2.285507248146000592e+00
2.256818872646260132e+00
2.256818872646260132e+00
2.256818872646260132e+00
2.216692648091067142e+00
2.216692648091067142e+00
2.216692648091067142e+00
2.216692648091067142e+00
2.209567430646687480e+00
2.209567430646687480e+00
2.209567430646687480e+00
2.231693105868709726e+00
2.231693105868709726e+00
2.231693105868709726e+00
2.382260200811792572e+00
2.382260200811792572e+00
2.382260200811792572e+00
2.382260200811792572e+00
2.281382122257148648e+00
2.281382122257148648e+00
2.281382122257148648e+00
2.225880428479872997e+00
2.225880428479872997e+00
2.225880428479872997e+00
2.227380474257637299e+00
2.227380474257637299e+00
2.227380474257637299e+00
2.227380474257637299e+00
2.274444410534989469e+00
2.274444410534989469e+00
2.274444410534989469e+00
2.100064088869899592e+00
2.100064088869899592e+00
2.100064088869899592e+00
2.118064638203069894e+00
2.118064638203069894e+00
2.118064638203069894e+00
2.118064638203069894e+00
2.589454023865474408e+00
2.589454023865474408e+00
2.589454023865474408e+00
2.347571642200994901e+00
2.347571642200994901e+00
2.347571642200994901e+00
2.271631824701681346e+00
2.271631824701681346e+00
2.271631824701681346e+00
2.271631824701681346e+00
2.285132236701559627e+00
2.285132236701559627e+00
2.285132236701559627e+00
2.266756675923947917e+00
2.266756675923947917e+00
2.266756675923947917e+00
2.263381572923978347e+00
2.263381572923978347e+00
2.263381572923978347e+00
2.263381572923978347e+00
2.270131778923917043e+00
2.270131778923917043e+00
2.270131778923917043e+00
2.441324503311258276e+00
2.441324503311258276e+00
2.441324503311258276e+00
2.264319101535081202e+00
2.264319101535081202e+00
2.264319101535081202e+00
2.264319101535081202e+00
2.238630817590868904e+00
2.238630817590868904e+00
2.238630817590868904e+00
2.252131229590746742e+00
2.252131229590746742e+00
2.252131229590746742e+00
2.263381572923978347e+00
2.263381572923978347e+00
2.263381572923978347e+00
2.263381572923978347e+00
2.046249946592608282e+00
2.046249946592608282e+00
2.046249946592608282e+00
2.241255897701956545e+00
2.241255897701956545e+00
2.241255897701956545e+00
2.529827204199346813e+00
2.529827204199346813e+00
2.529827204199346813e+00
2.529827204199346813e+00
2.280632099368266719e+00
2.280632099368266719e+00
2.280632099368266719e+00
2.243318460646382295e+00
2.243318460646382295e+00
2.243318460646382295e+00
2.214255073702200427e+00
2.214255073702200427e+00
2.214255073702200427e+00
2.214255073702200427e+00
2.199067110202337361e+00
2.199067110202337361e+00
2.199067110202337361e+00
2.234130680257575996e+00
2.234130680257575996e+00
2.234130680257575996e+00
2.309507980590228104e+00
2.309507980590228104e+00
2.309507980590228104e+00
2.309507980590228104e+00
2.398760704367198571e+00
2.398760704367198571e+00
2.398760704367198571e+00
2.246131046479689974e+00
2.246131046479689974e+00
2.246131046479689974e+00
2.226442945646534444e+00
2.226442945646534444e+00
2.226442945646534444e+00
2.226442945646534444e+00
2.255693838312936794e+00
2.255693838312936794e+00
2.255693838312936794e+00
2.208629902035584625e+00
2.208629902035584625e+00
2.208629902035584625e+00
2.071750724814600098e+00
2.071750724814600098e+00
2.071750724814600098e+00
2.071750724814600098e+00
2.436449354533524403e+00
2.436449354533524403e+00
2.436449354533524403e+00
2.483138279366435608e+00
2.483138279366435608e+00
2.483138279366435608e+00
2.281944639423810539e+00
2.281944639423810539e+00
2.281944639423810539e+00
2.281944639423810539e+00
2.257193884090700653e+00
2.257193884090700653e+00
2.257193884090700653e+00
2.223442854091006282e+00
2.223442854091006282e+00
2.223442854091006282e+00
2.223442854091006282e+00
2.233005645924253102e+00
2.233005645924253102e+00
2.233005645924253102e+00
2.263381572923978347e+00
2.263381572923978347e+00
2.263381572923978347e+00
2.375322489089632505e+00
2.375322489089632505e+00
2.375322489089632505e+00
2.375322489089632505e+00
2.326195989867855030e+00
2.326195989867855030e+00
2.326195989867855030e+00
2.236193243202001746e+00
2.236193243202001746e+00
2.236193243202001746e+00
2.228130497146519229e+00
2.228130497146519229e+00
2.228130497146519229e+00
2.275006927701650916e+00
2.275006927701650916e+00
2.275006927701650916e+00
2.275006927701650916e+00
2.146565507980590315e+00
2.146565507980590315e+00
2.146565507980590315e+00
2.075875850703451597e+00
2.075875850703451597e+00
2.075875850703451597e+00
2.075875850703451597e+00
2.579328714865566141e+00
2.579328714865566141e+00
2.579328714865566141e+00
2.408698507644886799e+00
2.408698507644886799e+00
2.408698507644886799e+00
2.277256996368297592e+00
2.277256996368297592e+00
2.277256996368297592e+00
2.277256996368297592e+00
2.267131687368389326e+00
2.267131687368389326e+00
2.267131687368389326e+00
2.226067934202093479e+00
2.226067934202093479e+00
2.226067934202093479e+00
2.238818323313089387e+00
2.238818323313089387e+00
2.238818323313089387e+00
2.238818323313089387e+00
2.275194433423871843e+00
2.275194433423871843e+00
2.275194433423871843e+00
2.450324777977843649e+00
2.450324777977843649e+00
2.450324777977843649e+00
2.284382213812677254e+00
2.284382213812677254e+00
2.284382213812677254e+00
2.284382213812677254e+00
2.237693288979766049e+00
2.237693288979766049e+00
2.237693288979766049e+00
2.221380291146580532e+00
2.221380291146580532e+00
2.221380291146580532e+00
2.269381756035035114e+00
2.269381756035035114e+00
2.269381756035035114e+00
2.269381756035035114e+00
2.071750724814600098e+00
2.071750724814600098e+00
2.071750724814600098e+00
2.155190771202734279e+00
2.155190771202734279e+00
2.155190771202734279e+00
2.560015625476852019e+00
2.560015625476852019e+00
2.560015625476852019e+00
2.560015625476852019e+00
2.295820062868129341e+00
2.295820062868129341e+00
2.295820062868129341e+00
2.237880794701986531e+00
2.237880794701986531e+00
2.237880794701986531e+00
2.240318369090853690e+00
2.240318369090853690e+00
2.240318369090853690e+00
2.222880336924344391e+00
2.222880336924344391e+00
2.222880336924344391e+00
2.222880336924344391e+00
2.240880886257515137e+00
2.240880886257515137e+00
2.240880886257515137e+00
2.272381847590563719e+00
2.272381847590563719e+00
2.272381847590563719e+00
2.440386974700155864e+00
2.440386974700155864e+00
2.440386974700155864e+00
2.440386974700155864e+00
2.259443952757347329e+00
2.259443952757347329e+00
2.259443952757347329e+00
2.246881069368571904e+00
2.246881069368571904e+00
2.246881069368571904e+00
2.265444135868404540e+00
2.265444135868404540e+00
2.265444135868404540e+00
2.265444135868404540e+00
2.245381023590808045e+00
2.245381023590808045e+00
2.245381023590808045e+00
2.074563310647907777e+00
2.074563310647907777e+00
2.074563310647907777e+00
2.324320932645649762e+00
2.324320932645649762e+00
2.324320932645649762e+00
2.324320932645649762e+00
2.515951780755027567e+00
2.515951780755027567e+00
2.515951780755027567e+00
2.281944639423810539e+00
2.281944639423810539e+00
2.281944639423810539e+00
2.261694021423993561e+00
2.261694021423993561e+00
2.261694021423993561e+00
2.261694021423993561e+00
2.236380748924222672e+00
2.236380748924222672e+00
2.236380748924222672e+00
2.211629993591112786e+00
2.211629993591112786e+00
2.211629993591112786e+00
2.249693655201880027e+00
2.249693655201880027e+00
2.249693655201880027e+00
2.249693655201880027e+00
2.344759056367687222e+00
2.344759056367687222e+00
2.344759056367687222e+00
2.382260200811792572e+00
2.382260200811792572e+00
2.382260200811792572e+00
2.248943632312997654e+00
2.248943632312997654e+00
2.248943632312997654e+00
2.248943632312997654e+00
2.226817957090975852e+00
2.226817957090975852e+00
2.226817957090975852e+00
2.248006103701895242e+00
2.248006103701895242e+00
2.248006103701895242e+00
2.174503860591448845e+00
2.174503860591448845e+00
2.174503860591448845e+00
2.174503860591448845e+00
2.057125278481399366e+00
2.057125278481399366e+00
2.057125278481399366e+00
2.483325785088656090e+00
2.483325785088656090e+00
2.483325785088656090e+00
2.427261574144718992e+00
2.427261574144718992e+00
2.427261574144718992e+00
2.427261574144718992e+00
2.263381572923978347e+00
2.263381572923978347e+00
2.263381572923978347e+00
2.259818964201788294e+00
2.259818964201788294e+00
2.259818964201788294e+00
2.237130771813104602e+00
2.237130771813104602e+00
2.237130771813104602e+00
2.237130771813104602e+00
2.229068025757622085e+00
2.229068025757622085e+00
2.229068025757622085e+00
2.240880886257515137e+00
2.240880886257515137e+00
2.240880886257515137e+00
2.389572923978392716e+00
2.389572923978392716e+00
2.389572923978392716e+00
2.389572923978392716e+00
2.317195715201269657e+00
2.317195715201269657e+00
2.317195715201269657e+00
2.243130954924161813e+00
2.243130954924161813e+00
2.243130954924161813e+00
2.246131046479689974e+00
2.246131046479689974e+00
2.246131046479689974e+00
2.246131046479689974e+00
2.289632374034852091e+00
2.289632374034852091e+00
2.289632374034852091e+00
2.140002807702871657e+00
2.140002807702871657e+00
2.140002807702871657e+00
2.119002166814172750e+00
2.119002166814172750e+00
2.119002166814172750e+00
2.119002166814172750e+00
2.587766472365489623e+00
2.587766472365489623e+00
2.587766472365489623e+00
2.365947202978606612e+00
2.365947202978606612e+00
2.365947202978606612e+00
2.365947202978606612e+00
2.269756767479476078e+00
2.269756767479476078e+00
2.269756767479476078e+00
2.268069215979491737e+00
2.268069215979491737e+00
2.268069215979491737e+00
2.232068117313150690e+00
2.232068117313150690e+00
2.232068117313150690e+00
2.232068117313150690e+00
2.238255806146427940e+00
2.238255806146427940e+00
2.238255806146427940e+00
2.253818781090731527e+00
2.253818781090731527e+00
2.253818781090731527e+00
2.428949125644703777e+00
2.428949125644703777e+00
2.428949125644703777e+00
2.428949125644703777e+00
2.260568987090670667e+00
2.260568987090670667e+00
2.260568987090670667e+00
2.238255806146427940e+00
2.238255806146427940e+00
2.238255806146427940e+00
2.239380840479750834e+00
2.239380840479750834e+00
2.239380840479750834e+00
2.239380840479750834e+00
2.266194158757286470e+00
2.266194158757286470e+00
2.266194158757286470e+00
2.062187932981353278e+00
2.062187932981353278e+00
2.062187932981353278e+00
2.231318094424268317e+00
2.231318094424268317e+00
2.231318094424268317e+00
2.231318094424268317e+00
2.571828485976745071e+00
2.571828485976745071e+00
2.571828485976745071e+00
2.321133335367900674e+00
2.321133335367900674e+00
2.321133335367900674e+00
2.271444318979460864e+00
2.271444318979460864e+00
2.271444318979460864e+00
2.271444318979460864e+00
2.249131138035218136e+00
2.249131138035218136e+00
2.249131138035218136e+00
2.218567705313272853e+00
2.218567705313272853e+00
2.218567705313272853e+00
2.241068391979735619e+00
2.241068391979735619e+00
2.241068391979735619e+00
2.241068391979735619e+00
2.292069948423719250e+00
2.292069948423719250e+00
2.292069948423719250e+00
2.396698141422773265e+00
2.396698141422773265e+00
2.396698141422773265e+00
2.238255806146427940e+00
2.238255806146427940e+00
2.238255806146427940e+00
2.238255806146427940e+00
2.229255531479842567e+00
2.229255531479842567e+00
2.229255531479842567e+00
2.241818414868617992e+00
2.241818414868617992e+00
2.241818414868617992e+00
2.203754753257850751e+00
2.203754753257850751e+00
2.203754753257850751e+00
2.203754753257850751e+00
2.056187749870296511e+00
2.056187749870296511e+00
2.056187749870296511e+00
2.361822077089755112e+00
2.361822077089755112e+00
2.361822077089755112e+00
2.459325052644428578e+00
2.459325052644428578e+00
2.459325052644428578e+00
2.254006286812952009e+00
2.254006286812952009e+00
2.230005554368724940e+00
2.230005554368724940e+00
2.212567522202215642e+00
2.212567522202215642e+00
2.195692007202368234e+00
2.195692007202368234e+00
2.215755119479964730e+00
2.215755119479964730e+00
2.351321756645405436e+00
2.351321756645405436e+00
2.347384136478774419e+00
2.347384136478774419e+00
2.347384136478774419e+00
2.256631366924039650e+00
2.256631366924039650e+00
2.241630909146397510e+00
2.241630909146397510e+00
2.280069582201605716e+00
2.280069582201605716e+00
2.141877864925076924e+00
2.141877864925076924e+00
2.037812189092684800e+00
2.037812189092684800e+00
2.535077364421521651e+00
2.535077364421521651e+00
2.393323038422803695e+00
2.393323038422803695e+00
2.257756401257362544e+00
2.257756401257362544e+00
2.258881435590685438e+00
2.258881435590685438e+00
2.228318002868740155e+00
2.228318002868740155e+00
2.228318002868740155e+00
2.200567155980101663e+00
2.200567155980101663e+00
2.215942625202185212e+00
2.215942625202185212e+00
2.416386242255928352e+00
2.416386242255928352e+00
2.324695944090090727e+00
2.324695944090090727e+00
2.297132602923673161e+00
2.297132602923673161e+00
2.308382946256904766e+00
2.308382946256904766e+00
2.328633564256721744e+00
2.328633564256721744e+00
2.121064729758598499e+00
2.121064729758598499e+00
2.178253975035859380e+00
2.178253975035859380e+00
2.631830317087313631e+00
2.631830317087313631e+00
2.631830317087313631e+00
2.380385143589587305e+00
2.380385143589587305e+00
2.292069948423719250e+00
2.292069948423719250e+00
2.273881893368328022e+00
2.273881893368328022e+00
2.227005462813196335e+00
2.227005462813196335e+00
2.227567979979857782e+00
2.227567979979857782e+00
2.236755760368663637e+00
2.236755760368663637e+00
2.415636219367045978e+00
2.415636219367045978e+00
2.266381664479506952e+00
2.266381664479506952e+00
2.266381664479506952e+00
2.240130863368633207e+00
2.240130863368633207e+00
2.234693197424237443e+00
2.234693197424237443e+00
2.236193243202001746e+00
2.236193243202001746e+00
2.061250404370250422e+00
2.061250404370250422e+00
2.292819971312600735e+00
2.292819971312600735e+00
2.531702261421552080e+00
2.531702261421552080e+00
2.266756675923947917e+00
2.266756675923947917e+00
2.237505783257545566e+00
2.237505783257545566e+00
2.216505142368846659e+00
2.216505142368846659e+00
2.216505142368846659e+00
2.213880062257759462e+00
2.213880062257759462e+00
2.243130954924161813e+00
2.243130954924161813e+00
2.322445875423444495e+00
2.322445875423444495e+00
2.398573198644978088e+00
2.398573198644978088e+00
2.247631092257453833e+00
2.247631092257453833e+00
2.226255439924313961e+00
2.226255439924313961e+00
2.250068666646320992e+00
2.250068666646320992e+00
2.155940794091616652e+00
2.155940794091616652e+00
2.012686422315133949e+00
2.012686422315133949e+00
2.425011505478072316e+00
2.425011505478072316e+00
2.446762169255653596e+00
2.446762169255653596e+00
2.446762169255653596e+00
2.225130405590991067e+00
2.225130405590991067e+00
2.187816766869105756e+00
2.187816766869105756e+00
2.182754112369151844e+00
2.182754112369151844e+00
2.198692098757896396e+00
2.198692098757896396e+00
2.247443586535233351e+00
2.247443586535233351e+00
2.406635944700461049e+00
2.406635944700461049e+00
2.340633930478835278e+00
2.340633930478835278e+00
2.253068758201849597e+00
2.253068758201849597e+00
2.211067476424451339e+00
2.211067476424451339e+00
2.211067476424451339e+00
2.246131046479689974e+00
2.246131046479689974e+00
2.119564683980834197e+00
2.119564683980834197e+00
2.096501480147709540e+00
2.096501480147709540e+00
2.638768028809472810e+00
2.638768028809472810e+00
2.453699880977813219e+00
2.453699880977813219e+00
2.348321665089877275e+00
2.348321665089877275e+00
2.338008850367748082e+00
2.338008850367748082e+00
2.306320383312479017e+00
2.306320383312479017e+00
2.306320383312479017e+00
2.263381572923978347e+00
2.263381572923978347e+00
2.264694112979522167e+00
2.264694112979522167e+00
2.442262031922361132e+00
2.442262031922361132e+00
2.261131504257332114e+00
2.261131504257332114e+00
2.208067384868923178e+00
2.208067384868923178e+00
2.181816583758049433e+00
2.181816583758049433e+00
2.234505691702016961e+00
2.234505691702016961e+00
2.045124912259285388e+00
2.045124912259285388e+00
2.045124912259285388e+00
2.202629718924527857e+00
2.202629718924527857e+00
2.606329538865321815e+00
2.606329538865321815e+00
2.338946378978850937e+00
2.338946378978850937e+00
2.307632923368022837e+00
2.307632923368022837e+00
2.280632099368266719e+00
2.280632099368266719e+00
2.215192602313302839e+00
2.215192602313302839e+00
2.187066743980223826e+00
2.187066743980223826e+00
2.216692648091067142e+00
2.216692648091067142e+00
2.364072145756401344e+00
2.364072145756401344e+00
2.364072145756401344e+00
2.200942167424543072e+00
2.200942167424543072e+00
2.181066560869167059e+00
2.181066560869167059e+00
2.202067201757865966e+00
2.202067201757865966e+00
2.193066927091281038e+00
2.193066927091281038e+00
2.020186651203955464e+00
2.020186651203955464e+00
2.311008026367992407e+00
2.311008026367992407e+00
2.487263405255287552e+00
2.487263405255287552e+00
2.273319376201666131e+00
2.273319376201666131e+00
2.254193792535172935e+00
2.254193792535172935e+00
2.242755943479720404e+00
2.242755943479720404e+00
2.242755943479720404e+00
2.253631275368511044e+00
2.253631275368511044e+00
2.296945097201452679e+00
2.296945097201452679e+00
2.416761253700369316e+00
2.416761253700369316e+00
2.422198919644764192e+00
2.422198919644764192e+00
2.318133243812372069e+00
2.318133243812372069e+00
2.296757591479232197e+00
2.296757591479232197e+00
2.331821161534470832e+00
2.331821161534470832e+00
2.215755119479964730e+00
2.215755119479964730e+00
2.062750450148014725e+00
2.062750450148014725e+00
2.482950773644215126e+00
2.482950773644215126e+00
2.482950773644215126e+00
2.354509353923154524e+00
2.354509353923154524e+00
2.190816858424634361e+00
2.190816858424634361e+00
2.159690908536027187e+00
2.159690908536027187e+00
2.140565324869533104e+00
2.140565324869533104e+00
2.166066103091524919e+00
2.166066103091524919e+00
2.240318369090853690e+00
2.240318369090853690e+00
2.416761253700369316e+00
2.416761253700369316e+00
2.331446150090029423e+00
2.331446150090029423e+00
2.331446150090029423e+00
2.295257545701467894e+00
2.295257545701467894e+00
2.293007477034821662e+00
2.293007477034821662e+00
2.326008484145634547e+00
2.326008484145634547e+00
2.166628620258186366e+00
2.166628620258186366e+00
2.203004730368968822e+00
2.203004730368968822e+00
2.694457228308969388e+00
2.694457228308969388e+00
2.453887386700033701e+00
2.453887386700033701e+00
2.353196813867610704e+00
2.353196813867610704e+00
2.312508072145756710e+00
2.312508072145756710e+00
2.312508072145756710e+00
2.231693105868709726e+00
2.231693105868709726e+00
2.194566972869045340e+00
2.194566972869045340e+00
2.185004181035798521e+00
2.185004181035798521e+00
2.358446974089785542e+00
2.358446974089785542e+00
2.203004730368968822e+00
2.203004730368968822e+00
2.183691640980254700e+00
2.183691640980254700e+00
2.180129032258064647e+00
2.180129032258064647e+00
2.220255256813257638e+00
2.220255256813257638e+00
2.220255256813257638e+00
2.040812280648213406e+00
2.040812280648213406e+00
2.244068483535264225e+00
2.244068483535264225e+00
2.561515671254616322e+00
2.561515671254616322e+00
2.341383953367717208e+00
2.341383953367717208e+00
2.335758781701101849e+00
2.335758781701101849e+00
2.328821069978942226e+00
2.328821069978942226e+00
2.289819879757073018e+00
2.289819879757073018e+00
2.302382763145847999e+00
2.302382763145847999e+00
2.341571459089938134e+00
2.341571459089938134e+00
2.405885921811578676e+00
2.405885921811578676e+00
2.242943449201941331e+00
2.242943449201941331e+00
2.181254066591387542e+00
2.181254066591387542e+00
2.181254066591387542e+00
2.179191503646961792e+00
2.179191503646961792e+00
2.125752372814111890e+00
2.125752372814111890e+00
1.999748527481917781e+00
1.999748527481917781e+00
2.355446882534256936e+00
2.355446882534256936e+00
2.432511734366893830e+00
2.432511734366893830e+00
2.240693380535294654e+00
2.240693380535294654e+00
2.237505783257545566e+00
2.237505783257545566e+00
2.228880520035401602e+00
2.228880520035401602e+00
2.228880520035401602e+00
2.229255531479842567e+00
2.229255531479842567e+00
2.244068483535264225e+00
2.244068483535264225e+00
2.374572466200750576e+00
2.374572466200750576e+00
2.349071687978759204e+00
2.349071687978759204e+00
2.246318552201910457e+00
2.246318552201910457e+00
2.216692648091067142e+00
2.216692648091067142e+00
2.276881984923856628e+00
2.276881984923856628e+00
2.171878780480361648e+00
2.171878780480361648e+00
2.171878780480361648e+00
2.108876857814264483e+00
2.108876857814264483e+00
2.615142307809686706e+00
2.615142307809686706e+00
2.446012146366771223e+00
2.446012146366771223e+00
2.316820703756828248e+00
2.316820703756828248e+00
2.268444227423932702e+00
2.268444227423932702e+00
2.211254982146671821e+00
2.211254982146671821e+00
2.201504684591204519e+00
2.201504684591204519e+00
2.239755851924192243e+00
2.239755851924192243e+00
2.420511368144779851e+00
2.420511368144779851e+00
2.297882625812555535e+00
2.297882625812555535e+00
2.258693929868464956e+00
2.258693929868464956e+00
2.241818414868617992e+00
2.241818414868617992e+00
2.298070131534776017e+00
2.298070131534776017e+00
2.103439191869869163e+00
2.103439191869869163e+00
2.150503128147221332e+00
2.150503128147221332e+00
2.542952604754783685e+00
2.542952604754783685e+00
2.256068849757378203e+00
2.256068849757378203e+00
2.256068849757378203e+00
2.178816492202520827e+00
2.178816492202520827e+00
2.189879329813531950e+00
2.189879329813531950e+00
2.194941984313486305e+00
2.194941984313486305e+00
2.225317911313211550e+00
2.280444593646046680e+00
2.280444593646046680e+00
2.460075075533310951e+00
2.460075075533310951e+00
2.303695303201391820e+00
2.303695303201391820e+00
2.282694662312692468e+00
2.282694662312692468e+00
2.318320749534592551e+00
2.318320749534592551e+00
2.305007843256935196e+00
2.305007843256935196e+00
2.132502578814050587e+00
2.132502578814050587e+00
2.369509811700796664e+00
2.369509811700796664e+00
2.369509811700796664e+00
2.547077730643635629e+00
2.547077730643635629e+00
2.264694112979522167e+00
2.264694112979522167e+00
2.224942899868770141e+00
2.224942899868770141e+00
2.217442670979949515e+00
2.217442670979949515e+00
2.212942533646656607e+00
2.212942533646656607e+00
2.233005645924253102e+00
2.233005645924253102e+00
2.348134159367656792e+00
2.348134159367656792e+00
2.391447981200597983e+00
2.391447981200597983e+00
2.391447981200597983e+00
2.231318094424268317e+00
2.231318094424268317e+00
2.146378002258369833e+00
2.146378002258369833e+00
2.118627155369731785e+00
2.118627155369731785e+00
2.052812646870326940e+00
2.052812646870326940e+00
1.937121616260262025e+00
1.937121616260262025e+00
2.364259651478621826e+00
2.364259651478621826e+00
2.325633472701193583e+00
2.325633472701193583e+00
2.219505233924375265e+00
2.219505233924375265e+00
2.270881801812799416e+00
2.270881801812799416e+00
2.270881801812799416e+00
2.308195440534684284e+00
2.308195440534684284e+00
2.335196264534440402e+00
2.335196264534440402e+00
2.354884365367595489e+00
2.354884365367595489e+00
2.468700338755454915e+00
2.468700338755454915e+00
2.347571642200994901e+00
2.347571642200994901e+00
2.252693746757408633e+00
2.252693746757408633e+00
2.205817316202276945e+00
2.205817316202276945e+00
2.209942442091128445e+00
2.209942442091128445e+00
2.209942442091128445e+00
2.047937498092593067e+00
2.047937498092593067e+00
2.029749443037202283e+00
2.029749443037202283e+00
2.542577593310342721e+00
2.542577593310342721e+00
2.363884640034180418e+00
2.363884640034180418e+00
2.333321207312235135e+00
2.333321207312235135e+00
2.408135990478225352e+00
2.408135990478225352e+00
2.415823725089266905e+00
2.415823725089266905e+00
2.413761162144840711e+00
2.413761162144840711e+00
2.353759331034272151e+00
2.353759331034272151e+00
2.353759331034272151e+00
2.499826288644062977e+00
2.499826288644062977e+00
2.246881069368571904e+00
2.246881069368571904e+00
2.161190954313791490e+00
2.161190954313791490e+00
2.097626514481032878e+00
2.097626514481032878e+00
2.124252327036347587e+00
2.124252327036347587e+00
1.929996398815881919e+00
1.929996398815881919e+00
2.099126560258797181e+00
2.099126560258797181e+00
2.482763267921994643e+00
2.482763267921994643e+00
2.251943723868526259e+00
2.251943723868526259e+00
2.251943723868526259e+00
2.250443678090761956e+00
2.250443678090761956e+00
2.279132053590502860e+00
2.279132053590502860e+00
2.324695944090090727e+00
2.324695944090090727e+00
2.368009765923032361e+00
2.368009765923032361e+00
2.364072145756401344e+00
2.364072145756401344e+00
2.447699697866756008e+00
2.447699697866756008e+00
2.240318369090853690e+00
2.240318369090853690e+00
2.185191686758019003e+00
2.185191686758019003e+00
2.185191686758019003e+00
2.157815851313821920e+00
2.157815851313821920e+00
2.095751457258827610e+00
2.095751457258827610e+00
1.947434430982390996e+00
1.947434430982390996e+00
2.308195440534684284e+00
2.308195440534684284e+00
2.499076265755180604e+00
2.499076265755180604e+00
2.355071871089815971e+00
2.355071871089815971e+00
2.389197912533951751e+00
2.389197912533951751e+00
2.377947569200720146e+00
2.377947569200720146e+00
2.344946562089907705e+00
2.344946562089907705e+00
2.344946562089907705e+00
2.314570635090182460e+00
2.314570635090182460e+00
2.324320932645649762e+00
2.324320932645649762e+00
2.249506149479659545e+00
2.249506149479659545e+00
2.107189306314279698e+00
2.107189306314279698e+00
2.088813745536667987e+00
2.088813745536667987e+00
2.129314981536301499e+00
2.129314981536301499e+00
2.083563585314493150e+00
2.083563585314493150e+00
2.050750083925901190e+00
2.050750083925901190e+00
2.050750083925901190e+00
2.584953886532181944e+00
2.584953886532181944e+00
2.488013428144169481e+00
2.488013428144169481e+00
2.341383953367717208e+00
2.341383953367717208e+00
2.324320932645649762e+00
2.324320932645649762e+00
2.314195623645741495e+00
2.308757957701345731e+00
2.308757957701345731e+00
2.293007477034821662e+00
2.293007477034821662e+00
2.456887478255561863e+00
2.456887478255561863e+00
2.316633198034607766e+00
2.316633198034607766e+00
2.236568254646443155e+00
2.236568254646443155e+00
2.179566515091402756e+00
2.179566515091402756e+00
2.197567064424573946e+00
2.197567064424573946e+00
2.020186651203955464e+00
2.020186651203955464e+00
2.083938596758934114e+00
2.083938596758934114e+00
2.605954527420880851e+00
2.605954527420880851e+00
2.381510177922910199e+00
2.381510177922910199e+00
2.381510177922910199e+00
2.270694296090578934e+00
2.270694296090578934e+00
2.247631092257453833e+00
2.247631092257453833e+00
2.264881618701742649e+00
2.264881618701742649e+00
2.277069490646077110e+00
2.277069490646077110e+00
2.243505966368602778e+00
2.243505966368602778e+00
2.369509811700796664e+00
2.369509811700796664e+00
2.178441480758079862e+00
2.178441480758079862e+00
2.162503494369335311e+00
2.162503494369335311e+00
2.162503494369335311e+00
2.198692098757896396e+00
2.198692098757896396e+00
2.221942808313242423e+00
2.221942808313242423e+00
2.059562852870265637e+00
2.059562852870265637e+00
2.245193517868587563e+00
2.245193517868587563e+00
2.463825189977721486e+00
2.463825189977721486e+00
2.186316721091342341e+00
2.186316721091342341e+00
2.170378734702597345e+00
2.170378734702597345e+00
2.143377910702841227e+00
2.143377910702841227e+00
2.129127475814081016e+00
2.129127475814081016e+00
2.129127475814081016e+00
2.154065736869411385e+00
2.154065736869411385e+00
2.258693929868464956e+00
2.258693929868464956e+00
2.380947660756248752e+00
2.380947660756248752e+00
2.302007751701407035e+00
2.302007751701407035e+00
2.367072237311929506e+00
2.367072237311929506e+00
2.430449171422468080e+00
2.430449171422468080e+00
2.382447706534013054e+00
2.382447706534013054e+00
2.284007202368236289e+00
2.284007202368236289e+00
2.284007202368236289e+00
2.670831507309182840e+00
2.670831507309182840e+00
2.623205053865169223e+00
2.623205053865169223e+00
2.296570085757011714e+00
2.296570085757011714e+00
2.171878780480361648e+00
2.171878780480361648e+00
2.071000701925717724e+00
2.071000701925717724e+00
2.045874935148167761e+00
2.045874935148167761e+00
2.071375713370158689e+00
2.071375713370158689e+00
2.222880336924344391e+00
2.222880336924344391e+00
2.150503128147221332e+00
2.150503128147221332e+00
2.151440656758324188e+00
2.151440656758324188e+00
2.151440656758324188e+00
2.230380565813165905e+00
2.230380565813165905e+00
2.335383770256660885e+00
2.335383770256660885e+00
2.190629352702413879e+00
2.190629352702413879e+00
2.123314798425245176e+00
2.123314798425245176e+00
2.649830866420483932e+00
2.649830866420483932e+00
2.503388897366253030e+00
2.503388897366253030e+00
2.440199468977935382e+00
2.440199468977935382e+00
2.406073427533799602e+00
2.406073427533799602e+00
2.406073427533799602e+00
2.376822534867396808e+00
2.376822534867396808e+00
2.372697408978545752e+00
2.372697408978545752e+00
2.309320474868007622e+00
2.309320474868007622e+00
2.333133701590014208e+00
2.333133701590014208e+00
2.087126194036683202e+00
2.087126194036683202e+00
2.042687337870418673e+00
2.042687337870418673e+00
2.082813562425611220e+00
2.082813562425611220e+00
2.140565324869533104e+00
2.140565324869533104e+00
2.140565324869533104e+00
1.974247749259926188e+00
1.974247749259926188e+00
2.094251411481063307e+00
2.094251411481063307e+00
2.486700888088625661e+00
2.486700888088625661e+00
2.277444502090518075e+00
2.277444502090518075e+00
2.281757133701590057e+00
2.281757133701590057e+00
2.296757591479232197e+00
2.296757591479232197e+00
2.257193884090700653e+00
2.257193884090700653e+00
2.262444044312875935e+00
2.262444044312875935e+00
2.268444227423932702e+00
2.268444227423932702e+00
2.268444227423932702e+00
2.449949766533402684e+00
2.449949766533402684e+00
2.361634571367534630e+00
2.361634571367534630e+00
2.359009491256446989e+00
2.359009491256446989e+00
2.362384594256416559e+00
2.362384594256416559e+00
2.307632923368022837e+00
2.307632923368022837e+00
2.132127567369609622e+00
2.132127567369609622e+00
2.449199743644520311e+00
2.449199743644520311e+00
2.616079836420789118e+00
2.616079836420789118e+00
2.616079836420789118e+00
2.368947294534135217e+00
2.368947294534135217e+00
2.359947019867549844e+00
2.359947019867549844e+00
2.304257820368053267e+00
2.289632374034852091e+00
2.331258644367808941e+00
2.331258644367808941e+00
2.431761711478011456e+00
2.431761711478011456e+00
2.360322031311990809e+00
2.360322031311990809e+00
2.203379741813409787e+00
2.203379741813409787e+00
2.140190313425092139e+00
2.140190313425092139e+00
2.148440565202795582e+00
2.148440565202795582e+00
2.011561387981810611e+00
2.011561387981810611e+00
1.891745231482894418e+00
1.891745231482894418e+00
2.299195165868098911e+00
2.299195165868098911e+00
2.176753929258095077e+00
2.176753929258095077e+00
2.176753929258095077e+00
2.098376537369914807e+00
2.098376537369914807e+00
2.159503402813806705e+00
2.159503402813806705e+00
2.181441572313608468e+00
2.181441572313608468e+00
2.251568712424085295e+00
2.251568712424085295e+00
2.314195623645741495e+00
2.314195623645741495e+00
2.502451368755150174e+00
2.502451368755150174e+00
2.455762443922238969e+00
2.455762443922238969e+00
2.472825464644306859e+00
2.472825464644306859e+00
2.472825464644306859e+00
2.343821527756584366e+00
2.343821527756584366e+00
2.178628986480300345e+00
2.178628986480300345e+00
1.943684316537980239e+00
1.943684316537980239e+00
1.956809717093417111e+00
1.956809717093417111e+00
2.460637592699972398e+00
2.460637592699972398e+00
2.234693197424237443e+00
2.234693197424237443e+00
2.019624134037293572e+00
2.019624134037293572e+00
1.929433881649220250e+00
1.929433881649220250e+00
2.006311227759636218e+00
2.006311227759636218e+00
2.006311227759636218e+00
2.088251228370006540e+00
2.088251228370006540e+00
2.111314432203131197e+00
2.111314432203131197e+00
2.326946012756737403e+00
2.326946012756737403e+00
2.227380474257637299e+00
2.227380474257637299e+00
2.333321207312235135e+00
2.333321207312235135e+00
2.488388439588610446e+00
2.488388439588610446e+00
2.606142033143101333e+00
2.606142033143101333e+00
2.404385876033814373e+00
2.404385876033814373e+00
2.404385876033814373e+00
2.512951689199499850e+00
2.512951689199499850e+00
2.684519425031281603e+00
2.684519425031281603e+00
2.358259468367565059e+00
2.358259468367565059e+00
2.325070955534531691e+00
2.325070955534531691e+00
2.268069215979491737e+00
2.268069215979491737e+00
2.225880428479872997e+00
2.225880428479872997e+00
2.250443678090761956e+00
2.250443678090761956e+00
2.311195532090212890e+00
2.311195532090212890e+00
2.395573107089449927e+00
2.395573107089449927e+00
2.276506973479415219e+00
2.276506973479415219e+00
2.256256355479598685e+00
2.256256355479598685e+00
2.164566057313760616e+00
2.164566057313760616e+00
2.164566057313760616e+00
2.115064546647541732e+00
2.115064546647541732e+00
1.987185644093142578e+00
1.987185644093142578e+00
2.374384960478530537e+00
2.374384960478530537e+00
2.466450270088809127e+00
2.466450270088809127e+00
2.339883907589953349e+00
2.339883907589953349e+00
2.379072603534043484e+00
2.379072603534043484e+00
2.340071413312173831e+00
2.340071413312173831e+00
2.311945554979094819e+00
2.311945554979094819e+00
2.311945554979094819e+00
2.245943540757469048e+00
2.245943540757469048e+00
2.327508529923398850e+00
2.327508529923398850e+00
2.158003357036042402e+00
2.158003357036042402e+00
1.937684133426923250e+00
1.937684133426923250e+00
1.882744956816309267e+00
1.882744956816309267e+00
1.865681936094241156e+00
1.865681936094241156e+00
1.720365001373333147e+00
1.720365001373333147e+00
1.797054841761528188e+00
1.797054841761528188e+00
1.797054841761528188e+00
2.510326609088412209e+00
2.510326609088412209e+00
2.421073885311441742e+00
2.421073885311441742e+00
2.419761345255897922e+00
2.419761345255897922e+00
2.553265419476912879e+00
2.553265419476912879e+00
2.572203497421186036e+00
2.572203497421186036e+00
2.549140293588061379e+00
2.549140293588061379e+00
2.504888943144016888e+00
2.504888943144016888e+00
2.603329447309793654e+00
2.603329447309793654e+00
2.432324228644673347e+00
2.432324228644673347e+00
2.341196447645496725e+00
2.341196447645496725e+00
2.341196447645496725e+00
2.289444868312631609e+00
2.289444868312631609e+00
2.329008575701162709e+00
2.329008575701162709e+00
2.106251777703176842e+00
2.106251777703176842e+00
2.065188024536881883e+00
2.065188024536881883e+00
2.409073519089327764e+00
2.409073519089327764e+00
2.237505783257545566e+00
2.237505783257545566e+00
2.247068575090792386e+00
2.247068575090792386e+00
2.304257820368053267e+00
2.304257820368053267e+00
2.304257820368053267e+00
2.268819238868374111e+00
2.244443494979705633e+00
2.238630817590868904e+00
2.238630817590868904e+00
2.362572099978637485e+00
2.362572099978637485e+00
2.186129215369121415e+00
2.186129215369121415e+00
2.199067110202337361e+00
2.199067110202337361e+00
2.183316629535813735e+00
2.183316629535813735e+00
2.138690267647328280e+00
2.138690267647328280e+00
1.932058961760307669e+00
1.932058961760307669e+00
2.237693288979766049e+00
2.237693288979766049e+00
2.237693288979766049e+00
2.482763267921994643e+00
2.482763267921994643e+00
2.262631550035096417e+00
2.262631550035096417e+00
2.186504226813562823e+00
2.186504226813562823e+00
2.107376812036500180e+00
2.107376812036500180e+00
2.083001068147831703e+00
2.083001068147831703e+00
2.030311960203863730e+00
2.030311960203863730e+00
2.212380016479995160e+00
2.212380016479995160e+00
2.442262031922361132e+00
2.442262031922361132e+00
2.510701620532853173e+00
2.510701620532853173e+00
2.510701620532853173e+00
2.580641254921109962e+00
2.580641254921109962e+00
2.269194250312814631e+00
2.269194250312814631e+00
1.938246650593584919e+00
1.938246650593584919e+00
1.836056031983398062e+00
1.836056031983398062e+00
2.205442304757835537e+00
2.205442304757835537e+00
2.056000244148076028e+00
2.056000244148076028e+00
1.719989989928891960e+00
1.719989989928891960e+00
1.688301522873622895e+00
1.688301522873622895e+00
1.688301522873622895e+00
1.869619556260872173e+00
1.869619556260872173e+00
2.322633381145664977e+00
2.322633381145664977e+00
2.701207434308908528e+00
2.701207434308908528e+00
2.866212469862972068e+00
2.866212469862972068e+00
2.808648213141270222e+00
2.808648213141270222e+00
2.792710226752525671e+00
2.792710226752525671e+00
2.884213019196142369e+00
2.884213019196142369e+00
2.828898831141087200e+00
2.828898831141087200e+00
2.828898831141087200e+00
2.445824640644550740e+00
2.445824640644550740e+00
2.288319833979308715e+00
2.288319833979308715e+00
2.718457960753196900e+00
2.718457960753196900e+00
2.425386516922513280e+00
2.425386516922513280e+00
2.182004089480269915e+00
2.182004089480269915e+00
2.182941618091372327e+00
2.182941618091372327e+00
2.165316080202642990e+00
2.165316080202642990e+00
2.060875392925809457e+00
2.060875392925809457e+00
1.860619281594287022e+00
1.860619281594287022e+00
2.001811090426343309e+00
2.001811090426343309e+00
2.001811090426343309e+00
1.889120151371806999e+00
1.889120151371806999e+00
1.905433149204992960e+00
1.905433149204992960e+00
1.982498001037629409e+00
1.982498001037629409e+00
2.044749900814844423e+00
2.044749900814844423e+00
1.909558275093844459e+00
1.909558275093844459e+00
2.223067842646564873e+00
2.223067842646564873e+00
2.730270821253089952e+00
2.730270821253089952e+00
2.623767571031830670e+00
2.623767571031830670e+00
2.623767571031830670e+00
2.548577776421399932e+00
2.548577776421399932e+00
2.450324777977843649e+00
2.450324777977843649e+00
2.371197363200781449e+00
2.371197363200781449e+00
2.292069948423719250e+00
2.292069948423719250e+00
2.256443861201819168e+00
2.256443861201819168e+00
2.316820703756828248e+00
2.316820703756828248e+00
2.202067201757865966e+00
2.202067201757865966e+00
2.413011139255958781e+00
2.413011139255958781e+00
2.413011139255958781e+00
2.539014984588152668e+00
2.539014984588152668e+00
2.506764000366222156e+00
2.506764000366222156e+00
2.314383129367961978e+00
2.314383129367961978e+00
2.339508896145511940e+00
2.339508896145511940e+00
2.260381481368449741e+00
2.260381481368449741e+00
1.829305825983458922e+00
1.829305825983458922e+00
1.566047791985839543e+00
1.566047791985839543e+00
1.350791222876674746e+00
1.350791222876674746e+00
1.328665547654652501e+00
1.328665547654652501e+00
1.328665547654652501e+00
1.480357676931058686e+00
1.480357676931058686e+00
1.644425183874019814e+00
1.644425183874019814e+00
1.786554521317178956e+00
1.786554521317178956e+00
2.175816400646992221e+00
2.175816400646992221e+00
2.843149266029847411e+00
2.843149266029847411e+00
3.411854121524704908e+00
3.411854121524704908e+00
3.320913846247749213e+00
3.320913846247749213e+00
3.040217780083620980e+00
3.040217780083620980e+00
3.040217780083620980e+00
3.374352977080599558e+00
3.374352977080599558e+00
3.057468306527909352e+00
3.057468306527909352e+00
2.576328623310037536e+00
2.576328623310037536e+00
2.244068483535264225e+00
2.244068483535264225e+00
2.120877224036378017e+00
2.120877224036378017e+00
2.201879696035645484e+00
2.227192968535416817e+00
2.340071413312173831e+00
2.340071413312173831e+00
2.280444593646046680e+00
2.280444593646046680e+00
2.280444593646046680e+00
2.285694753868221074e+00
2.285694753868221074e+00
2.298445142979216982e+00
2.298445142979216982e+00
2.263194067201757864e+00
2.263194067201757864e+00
1.934121524704733419e+00
1.934121524704733419e+00
1.837368572038941661e+00
1.837368572038941661e+00
2.371009857478560967e+00
2.371009857478560967e+00
2.170941251869258792e+00
2.170941251869258792e+00
2.037062166203802427e+00
2.037062166203802427e+00
2.037062166203802427e+00
1.852369029816583801e+00
1.852369029816583801e+00
1.586485915707876782e+00
1.586485915707876782e+00
1.493670583208716041e+00
1.493670583208716041e+00
1.514483718375194687e+00
1.514483718375194687e+00
1.555359965819269386e+00
1.555359965819269386e+00
1.427106051820429267e+00
1.427106051820429267e+00
1.619111911374248480e+00
1.619111911374248480e+00
1.970122623371074688e+00
1.970122623371074688e+00
1.970122623371074688e+00
2.408135990478225352e+00
2.408135990478225352e+00
2.706457594531082922e+00
2.706457594531082922e+00
3.168096682638020134e+00
3.168096682638020134e+00
3.424604510635700816e+00
3.424604510635700816e+00
3.210097964415417948e+00
3.210097964415417948e+00
3.175596911526841204e+00
3.175596911526841204e+00
3.098157048249763790e+00
3.098157048249763790e+00
2.871275124362925979e+00
2.871275124362925979e+00
2.599766838587603157e+00
2.599766838587603157e+00
2.599766838587603157e+00
2.363322122867518971e+00
2.363322122867518971e+00
2.191004364146854844e+00
2.191004364146854844e+00
1.719427472762230291e+00
1.719427472762230291e+00
1.651925412762840661e+00
1.651925412762840661e+00
1.862494338816492068e+00
1.862494338816492068e+00
1.917996032593768163e+00
1.917996032593768163e+00
1.776241706595049985e+00
1.776241706595049985e+00
2.338758873256630455e+00
2.338758873256630455e+00
2.657706106753745967e+00
2.657706106753745967e+00
2.657706106753745967e+00
2.792522721030305188e+00
2.792522721030305188e+00
2.907276223029267470e+00
2.907276223029267470e+00
2.755396588030640803e+00
2.755396588030640803e+00
2.434199285866878171e+00
2.434199285866878171e+00
2.160440931424909561e+00
2.160440931424909561e+00
2.290757408368175430e+00
2.290757408368175430e+00
2.126314889980773337e+00
2.126314889980773337e+00
1.882557451094088563e+00
1.882557451094088563e+00
1.776804223761711432e+00
1.776804223761711432e+00
1.982873012482070374e+00
1.982873012482070374e+00
1.982873012482070374e+00
2.058812829981383707e+00
2.058812829981383707e+00
2.102689168980987233e+00
2.102689168980987233e+00
2.434011780144657688e+00
2.434011780144657688e+00
2.150878139591662741e+00
2.150878139591662741e+00
1.919121066927091501e+00
1.919121066927091501e+00
1.817867976928006835e+00
1.817867976928006835e+00
1.859494247260963906e+00
1.859494247260963906e+00
1.917246009704886012e+00
1.917246009704886012e+00
1.917246009704886012e+00
2.189504318369090985e+00
2.189504318369090985e+00
2.499826288644062977e+00
2.499826288644062977e+00
2.419198828089236475e+00
2.419198828089236475e+00
2.139252784813989727e+00
2.139252784813989727e+00
1.947809442426831961e+00
1.947809442426831961e+00
2.180316537980285130e+00
2.180316537980285130e+00
2.235818231757560781e+00
2.235818231757560781e+00
2.641393108920560451e+00
2.641393108920560451e+00
3.051843134861293549e+00
3.051843134861293549e+00
3.051843134861293549e+00
2.743021210364085860e+00
2.743021210364085860e+00
2.694457228308969388e+00
2.694457228308969388e+00
2.671206518753624248e+00
2.671206518753624248e+00
2.670268990142521393e+00
2.670268990142521393e+00
2.639330545976134701e+00
2.639330545976134701e+00
2.559828119754631537e+00
2.559828119754631537e+00
2.505826471755119300e+00
2.505826471755119300e+00
2.229630542924283532e+00
2.229630542924283532e+00
2.229630542924283532e+00
2.184441663869136629e+00
2.184441663869136629e+00
2.004248664815210468e+00
2.004248664815210468e+00
1.936371593371379873e+00
1.936371593371379873e+00
1.891932737205114901e+00
1.891932737205114901e+00
2.363134617145298488e+00
2.363134617145298488e+00
2.653955992309335876e+00
2.653955992309335876e+00
2.474325510422071162e+00
2.474325510422071162e+00
2.273881893368328022e+00
2.273881893368328022e+00
2.146378002258369833e+00
2.146378002258369833e+00
2.146378002258369833e+00
2.204692281868953607e+00
2.157440839869380955e+00
2.157440839869380955e+00
2.016811548203985893e+00
2.039687246314890068e+00
2.039687246314890068e+00
2.039687246314890068e+00
1.897370403149510221e+00
1.897370403149510221e+00
1.816555436872463236e+00
1.816555436872463236e+00
1.969560106204413019e+00
1.969560106204413019e+00
1.941434247871334007e+00
1.941434247871334007e+00
1.847493881038850150e+00
1.847493881038850150e+00
2.164566057313760616e+00
2.164566057313760616e+00
1.951372051149021791e+00
1.951372051149021791e+00
1.987560655537583543e+00
1.987560655537583543e+00
1.987560655537583543e+00
2.213130039368877089e+00
2.213130039368877089e+00
2.379072603534043484e+00
2.379072603534043484e+00
2.661831232642597911e+00
2.661831232642597911e+00
2.828148808252205271e+00
2.828148808252205271e+00
3.170721762749107775e+00
3.170721762749107775e+00
3.189659840693380488e+00
3.189659840693380488e+00
2.761396771141697126e+00
2.761396771141697126e+00
2.353196813867610704e+00
2.353196813867610704e+00
2.353196813867610704e+00
2.069500656147953865e+00
2.069500656147953865e+00
1.887245094149601732e+00
1.887245094149601732e+00
1.918371044038209350e+00
1.918371044038209350e+00
2.402135807367168141e+00
2.402135807367168141e+00
2.257381389812921579e+00
2.257381389812921579e+00
2.181629078035828950e+00
2.181629078035828950e+00
2.129502487258521981e+00
2.129502487258521981e+00
1.976122806482131455e+00
1.976122806482131455e+00
2.004811181981871915e+00
2.004811181981871915e+00
2.004811181981871915e+00
2.095938962981048093e+00
2.095938962981048093e+00
2.355821893978697901e+00
2.355821893978697901e+00
2.212380016479995160e+00
2.212380016479995160e+00
2.177316446424756524e+00
2.177316446424756524e+00
2.297320108645893644e+00
2.297320108645893644e+00
2.433824274422437206e+00
2.433824274422437206e+00
2.392948026978362286e+00
2.392948026978362286e+00
2.627517685476241649e+00
2.627517685476241649e+00
3.037967711416974304e+00
3.037967711416974304e+00
3.037967711416974304e+00
2.670456495864741875e+00
2.670456495864741875e+00
2.461575121311075254e+00
2.461575121311075254e+00
2.153503219702749494e+00
2.153503219702749494e+00
1.876744773705252278e+00
1.876744773705252278e+00
1.689051545762505047e+00
1.689051545762505047e+00
1.723552598651082013e+00
1.723552598651082013e+00
1.947996948149052443e+00
1.947996948149052443e+00
1.853119052705465952e+00
1.853119052705465952e+00
2.088251228370006540e+00
2.088251228370006540e+00
2.736646015808588128e+00
2.736646015808588128e+00
2.996903958250678901e+00
2.996903958250678901e+00
2.901838557084872150e+00
2.901838557084872150e+00
2.901838557084872150e+00
2.919464094973601487e+00
2.919464094973601487e+00
2.601829401532029351e+00
2.601829401532029351e+00
2.144877956480605530e+00
2.144877956480605530e+00
2.023936765648365554e+00
2.023936765648365554e+00
1.761241248817407845e+00
1.761241248817407845e+00
1.623424542985320684e+00
1.623424542985320684e+00
1.754491042817468927e+00
1.754491042817468927e+00
1.952309579760124647e+00
1.952309579760124647e+00
1.952309579760124647e+00
2.114127018036439321e+00
2.114127018036439321e+00
1.979310403759880321e+00
1.979310403759880321e+00
1.894370311593981837e+00
1.894370311593981837e+00
2.046437452314828764e+00
2.046437452314828764e+00
1.848993926816614453e+00
1.848993926816614453e+00
1.592673604541154253e+00
1.592673604541154253e+00
2.100439100314340557e+00
2.100439100314340557e+00
2.426511551255836618e+00
2.426511551255836618e+00
2.426511551255836618e+00
2.994841395306253595e+00
2.994841395306253595e+00
3.360102542191839348e+00
3.360102542191839348e+00
3.246849085970641369e+00
3.246849085970641369e+00
3.038905240028077159e+00
3.038905240028077159e+00
2.912713888973662790e+00
2.912713888973662790e+00
3.029529953917050822e+00
3.029529953917050822e+00
2.720895535142063615e+00
2.720895535142063615e+00
2.500013794366283459e+00
2.500013794366283459e+00
2.296195074312570750e+00
2.296195074312570750e+00
2.296195074312570750e+00
2.161940977202673420e+00
2.161940977202673420e+00
1.891745231482894418e+00
1.891745231482894418e+00
1.926058778649250680e+00
1.926058778649250680e+00
2.341196447645496725e+00
2.341196447645496725e+00
2.045874935148167761e+00
2.045874935148167761e+00
1.831368388927884894e+00
1.831368388927884894e+00
1.761616260261849032e+00
1.761616260261849032e+00
1.909183263649403273e+00
1.909183263649403273e+00
1.909183263649403273e+00
2.137940244758446351e+00
2.137940244758446351e+00
2.536389904477065471e+00
2.536389904477065471e+00
2.536389904477065471e+00
2.361072054200873183e+00
2.361072054200873183e+00
2.280632099368266719e+00
2.280632099368266719e+00
2.291319925534837321e+00
2.291319925534837321e+00
2.046812463759269729e+00
2.046812463759269729e+00
1.824618182927945975e+00
1.824618182927945975e+00
2.289632374034852091e+00
2.289632374034852091e+00
2.892838282418286777e+00
2.892838282418286777e+00
2.767959471419415785e+00
2.767959471419415785e+00
2.767959471419415785e+00
2.616454847865230526e+00
2.616454847865230526e+00
2.473950498977630197e+00
2.473950498977630197e+00
2.422011413922543710e+00
2.422011413922543710e+00
2.377197546311838217e+00
2.377197546311838217e+00
2.338383861812189490e+00
2.338383861812189490e+00
2.391072969756157018e+00
2.391072969756157018e+00
2.240880886257515137e+00
2.240880886257515137e+00
2.148440565202795582e+00
2.148440565202795582e+00
2.019999145481734981e+00
2.019999145481734981e+00
2.019999145481734981e+00
1.848618915372173266e+00
1.848618915372173266e+00
1.749240882595294089e+00
1.749240882595294089e+00
2.240130863368633207e+00
2.240130863368633207e+00
2.224380382702108694e+00
2.224380382702108694e+00
2.301632740256966070e+00
2.301632740256966070e+00
2.375697500534073914e+00
2.375697500534073914e+00
2.334258735923337547e+00
2.334258735923337547e+00
2.222880336924344391e+00
2.222880336924344391e+00
2.222880336924344391e+00
2.069500656147953865e+00
2.069500656147953865e+00
2.046999969481490211e+00
2.046999969481490211e+00
2.035374614703817642e+00
2.035374614703817642e+00
2.185566698202459968e+00
2.185566698202459968e+00
2.376822534867396808e+00
2.376822534867396808e+00
2.454824915311136557e+00
2.454824915311136557e+00
2.249131138035218136e+00
2.249131138035218136e+00
2.293007477034821662e+00
2.293007477034821662e+00
2.768146977141636711e+00
2.768146977141636711e+00
2.768146977141636711e+00
2.233943174535355514e+00
2.233943174535355514e+00
1.927183812982574018e+00
1.927183812982574018e+00
2.062375438703573760e+00
2.062375438703573760e+00
2.328071047090059853e+00
2.328071047090059853e+00
2.470200384533219218e+00
2.470200384533219218e+00
2.531514755699331598e+00
2.531514755699331598e+00
2.738333567308572469e+00
2.738333567308572469e+00
2.510514114810632691e+00
2.510514114810632691e+00
2.371572374645222414e+00
2.371572374645222414e+00
2.371572374645222414e+00
2.283632190923795324e+00
2.283632190923795324e+00
2.340821436201055761e+00
2.340821436201055761e+00
2.258881435590685438e+00
2.258881435590685438e+00
2.449387249366740793e+00
2.449387249366740793e+00
2.788772606585894209e+00
2.788772606585894209e+00
2.437949400311288706e+00
2.437949400311288706e+00
2.204317270424512643e+00
2.204317270424512643e+00
2.073438276314584883e+00
2.073438276314584883e+00
2.073438276314584883e+00
1.993560838648640532e+00
1.993560838648640532e+00
2.019811639759514499e+00
2.019811639759514499e+00
1.936184087649159391e+00
1.936184087649159391e+00
2.121064729758598499e+00
2.121064729758598499e+00
2.043624866481521085e+00
2.043624866481521085e+00
2.077188390758995418e+00
2.077188390758995418e+00
2.168503677480392078e+00
2.168503677480392078e+00
2.242005920590838475e+00
2.242005920590838475e+00
2.092938871425519931e+00
2.092938871425519931e+00
2.092938871425519931e+00
2.288319833979308715e+00
2.288319833979308715e+00
2.382635212256233537e+00
2.382635212256233537e+00
2.154815759758293314e+00
2.154815759758293314e+00
2.053562669759208870e+00
2.053562669759208870e+00
1.979685415204321286e+00
1.979685415204321286e+00
2.035562120426038124e+00
2.035562120426038124e+00
2.328821069978942226e+00
2.328821069978942226e+00
2.529077181310464884e+00
2.529077181310464884e+00
2.529077181310464884e+00
2.623955076754051152e+00
2.623955076754051152e+00
2.760271736808374676e+00
2.760271736808374676e+00
2.966340525528733174e+00
2.966340525528733174e+00
2.894150822473830154e+00
2.894150822473830154e+00
2.481263222144230340e+00
2.481263222144230340e+00
2.106251777703176842e+00
2.106251777703176842e+00
2.369322305978576182e+00
2.369322305978576182e+00
2.128189947202978605e+00
2.128189947202978605e+00
2.098376537369914807e+00
2.098376537369914807e+00
2.098376537369914807e+00
2.203567247535630269e+00
2.203567247535630269e+00
2.290382396923734465e+00
2.290382396923734465e+00
2.424261482589190386e+00
2.424261482589190386e+00
2.467200292977691056e+00
2.356571916867580274e+00
2.356571916867580274e+00
2.341196447645496725e+00
2.341196447645496725e+00
2.341196447645496725e+00
2.293007477034821662e+00
2.293007477034821662e+00
2.283257179479354360e+00
2.283257179479354360e+00
2.006873744926298109e+00
2.006873744926298109e+00
1.993373332926419828e+00
1.993373332926419828e+00
2.506951506088442638e+00
2.506951506088442638e+00
2.316633198034607766e+00
2.316633198034607766e+00
2.293382488479262626e+00
2.293382488479262626e+00
2.231318094424268317e+00
2.231318094424268317e+00
2.124064821314127105e+00
2.124064821314127105e+00
2.124064821314127105e+00
2.022624225592822178e+00
2.022624225592822178e+00
1.971247657704397804e+00
1.971247657704397804e+00
2.231693105868709726e+00
2.231693105868709726e+00
2.256443861201819168e+00
2.256443861201819168e+00
2.284757225257118218e+00
2.284757225257118218e+00
2.224192876979888212e+00
2.224192876979888212e+00
2.060312875759148010e+00
2.060312875759148010e+00
1.674801110873744836e+00
1.674801110873744836e+00
1.674801110873744836e+00
1.734240424817651949e+00
1.734240424817651949e+00
2.034062074648274265e+00
2.034062074648274265e+00
1.966747520371105118e+00
1.966747520371105118e+00
2.215005096591082356e+00
2.215005096591082356e+00
2.575203588976714197e+00
2.575203588976714197e+00
2.859649769585253409e+00
2.859649769585253409e+00
3.051655629139073067e+00
3.051655629139073067e+00
3.127032929471724731e+00
3.127032929471724731e+00
3.127032929471724731e+00
3.006279244361705683e+00
3.006279244361705683e+00
2.554577959532456255e+00
2.554577959532456255e+00
2.280444593646046680e+00
2.280444593646046680e+00
2.192316904202398664e+00
2.192316904202398664e+00
1.962809900204474101e+00
1.962809900204474101e+00
1.774366649372844496e+00
1.774366649372844496e+00
2.158190862758262885e+00
2.158190862758262885e+00
2.243505966368602778e+00
2.243505966368602778e+00
2.166628620258186366e+00
2.166628620258186366e+00
2.166628620258186366e+00
2.252881252479629115e+00
2.252881252479629115e+00
2.183691640980254700e+00
2.183691640980254700e+00
2.064062990203558545e+00
2.064062990203558545e+00
2.033687063203833301e+00
2.033687063203833301e+00
2.110751915036469750e+00
2.110751915036469750e+00
2.082063539536728847e+00
2.082063539536728847e+00
2.097251503036591469e+00
2.097251503036591469e+00
2.367634754478591397e+00
2.367634754478591397e+00
2.619454939420759132e+00
2.619454939420759132e+00
2.507326517532883603e+00
2.507326517532883603e+00
2.507326517532883603e+00
2.485013336588640875e+00
2.485013336588640875e+00
2.941402264473403250e+00
2.941402264473403250e+00
2.599016815698721228e+00
2.599016815698721228e+00
2.366134708700827094e+00
2.366134708700827094e+00
2.311008026367992407e+00
2.311008026367992407e+00
2.254006286812952009e+00
2.254006286812952009e+00
2.206567339091158875e+00
2.206567339091158875e+00
2.151065645313883223e+00
2.151065645313883223e+00
2.151065645313883223e+00
2.296757591479232197e+00
2.296757591479232197e+00
2.041374797814874853e+00
2.041374797814874853e+00
1.974060243537705706e+00
1.974060243537705706e+00
1.969560106204413019e+00
1.969560106204413019e+00
1.899620471816156453e+00
1.899620471816156453e+00
1.693364177373577029e+00
1.693364177373577029e+00
1.833055940427869457e+00
1.833055940427869457e+00
2.294320017090365038e+00
2.294320017090365038e+00
2.294320017090365038e+00
2.292069948423719250e+00
2.292069948423719250e+00
2.353946836756492633e+00
2.353946836756492633e+00
2.382635212256233537e+00
2.382635212256233537e+00
2.503951414532914033e+00
2.503951414532914033e+00
2.721645558030945988e+00
2.721645558030945988e+00
2.830773888363292468e+00
2.830773888363292468e+00
2.756334116641743215e+00
2.756334116641743215e+00
2.296757591479232197e+00
2.296757591479232197e+00
2.129502487258521981e+00
2.129502487258521981e+00
2.070438184759056277e+00
2.070438184759056277e+00
2.070438184759056277e+00
2.149378093813898438e+00
2.149378093813898438e+00
2.150878139591662741e+00
2.150878139591662741e+00
2.536014893032624506e+00
2.536014893032624506e+00
2.723708120975371738e+00
2.723708120975371738e+00
2.458762535477767130e+00
2.458762535477767130e+00
2.372884914700766235e+00
2.372884914700766235e+00
2.283632190923795324e+00
2.283632190923795324e+00
2.186691732535783306e+00
2.186691732535783306e+00
2.168128666035950669e+00
2.168128666035950669e+00
2.251381206701864812e+00
2.295445051423688376e+00
2.295445051423688376e+00
2.174316354869228363e+00
2.174316354869228363e+00
2.146002990813928868e+00
2.146002990813928868e+00
2.146002990813928868e+00
2.186879238258003344e+00
2.186879238258003344e+00
2.076813379314554453e+00
2.076813379314554453e+00
1.878994842371898732e+00
1.878994842371898732e+00
2.267131687368389326e+00
2.267131687368389326e+00
2.214630085146641392e+00
2.214630085146641392e+00
2.104939237647633021e+00
2.104939237647633021e+00
2.227192968535416817e+00
2.227192968535416817e+00
2.319633289590136371e+00
2.319633289590136371e+00
2.319633289590136371e+00
2.427449079866939474e+00
2.427449079866939474e+00
2.474325510422071162e+00
2.474325510422071162e+00
2.613829767754142885e+00
2.613829767754142885e+00
2.411886104922635443e+00
2.411886104922635443e+00
2.273694387646107540e+00
2.273694387646107540e+00
2.223817865535447247e+00
2.223817865535447247e+00
2.136440198980682048e+00
2.136440198980682048e+00
1.806617633594775230e+00
1.806617633594775230e+00
1.806617633594775230e+00
1.807367656483657381e+00
1.807367656483657381e+00
2.375134983367412023e+00
2.375134983367412023e+00
2.170941251869258792e+00
2.170941251869258792e+00
2.087501205481124167e+00
2.087501205481124167e+00
2.083188573870052185e+00
2.083188573870052185e+00
2.210692464980010374e+00
2.210692464980010374e+00
2.257568895535142062e+00
2.257568895535142062e+00
2.284382213812677254e+00
2.284382213812677254e+00
2.525889584032716240e+00
2.525889584032716240e+00
2.525889584032716240e+00
2.513701712088381779e+00
2.513701712088381779e+00
2.643830683309427609e+00
2.643830683309427609e+00
2.674206610309152410e+00
2.674206610309152410e+00
2.738708578753013434e+00
2.738708578753013434e+00
2.462137638477736701e+00
2.462137638477736701e+00
2.496076174199651998e+00
2.496076174199651998e+00
2.694457228308969388e+00
2.694457228308969388e+00
2.323195898312326424e+00
2.323195898312326424e+00
2.323195898312326424e+00
2.128002441480758122e+00
2.128002441480758122e+00
2.060125370036927084e+00
2.060125370036927084e+00
2.077750907925656865e+00
2.077750907925656865e+00
2.086188665425580790e+00
2.086188665425580790e+00
2.127439924314096675e+00
2.127439924314096675e+00
2.271631824701681346e+00
2.271631824701681346e+00
2.207692373424482213e+00
2.207692373424482213e+00
2.233005645924253102e+00
2.233005645924253102e+00
2.261319009979552597e+00
2.261319009979552597e+00
2.261319009979552597e+00
2.233943174535355514e+00
2.233943174535355514e+00
2.160815942869350526e+00
2.160815942869350526e+00
2.496076174199651998e+00
2.496076174199651998e+00
2.505451460310678335e+00
2.505451460310678335e+00
2.272381847590563719e+00
2.272381847590563719e+00
2.200567155980101663e+00
2.200567155980101663e+00
2.123877315591906623e+00
2.123877315591906623e+00
2.070813196203497242e+00
2.070813196203497242e+00
2.100064088869899592e+00
2.100064088869899592e+00
2.100064088869899592e+00
2.311008026367992407e+00
2.311008026367992407e+00
2.294507522812585520e+00
2.294507522812585520e+00
2.173378826258125951e+00
2.173378826258125951e+00
2.125564867091891408e+00
2.125564867091891408e+00
2.161565965758232455e+00
2.161565965758232455e+00
2.030311960203863730e+00
2.030311960203863730e+00
1.981747978148747258e+00
1.981747978148747258e+00
2.550827845088045720e+00
2.550827845088045720e+00
2.550827845088045720e+00
2.392385509811700839e+00
2.392385509811700839e+00
2.323758415478988315e+00
2.323758415478988315e+00
2.429324137089144742e+00
2.429324137089144742e+00
2.420698873867000778e+00
2.420698873867000778e+00
2.353571825312051669e+00
2.353571825312051669e+00
2.316445692312387283e+00
2.316445692312387283e+00
2.470762901699881109e+00
2.470762901699881109e+00
2.377197546311838217e+00
2.377197546311838217e+00
2.377197546311838217e+00
2.342696493423261028e+00
2.342696493423261028e+00
2.261506515701773079e+00
2.261506515701773079e+00
2.104751731925412539e+00
2.104751731925412539e+00
1.795179784539323142e+00
1.795179784539323142e+00
1.897557908871730703e+00
1.897557908871730703e+00
2.370822351756340485e+00
2.370822351756340485e+00
2.113376995147556947e+00
2.113376995147556947e+00
2.147128025147251762e+00
2.147128025147251762e+00
2.325633472701193583e+00
2.325633472701193583e+00
2.325633472701193583e+00
2.530764732810449669e+00
2.530764732810449669e+00
2.545765190588091809e+00
2.545765190588091809e+00
2.511451643421735547e+00
2.610829676198614280e+00
2.308570451979125249e+00
2.308570451979125249e+00
2.308570451979125249e+00
2.158378368480483367e+00
2.158378368480483367e+00
2.116752098147526517e+00
2.116752098147526517e+00
2.184254158146916147e+00
2.184254158146916147e+00
2.062000427259132795e+00
2.062000427259132795e+00
2.347571642200994901e+00
2.347571642200994901e+00
2.612517227698599065e+00
2.612517227698599065e+00
2.403635853144932444e+00
2.403635853144932444e+00
2.439824457533493973e+00
2.439824457533493973e+00
2.367259743034150432e+00
2.367259743034150432e+00
2.367259743034150432e+00
2.323008392590105942e+00
2.323008392590105942e+00
2.314195623645741495e+00
2.314195623645741495e+00
2.387885372478407930e+00
2.387885372478407930e+00
2.396510635700552783e+00
2.396510635700552783e+00
2.183129123813593253e+00
2.183129123813593253e+00
2.096313974425489057e+00
2.096313974425489057e+00
2.091438825647755628e+00
2.091438825647755628e+00
1.975935300759910973e+00
1.975935300759910973e+00
1.975935300759910973e+00
1.864931913205359004e+00
1.864931913205359004e+00
2.268069215979491737e+00
2.268069215979491737e+00
2.178066469313638454e+00
2.178066469313638454e+00
1.966372508926664153e+00
1.966372508926664153e+00
1.973310220648823554e+00
1.973310220648823554e+00
2.018499099703970678e+00
2.018499099703970678e+00
2.113564500869777874e+00
2.113564500869777874e+00
2.261694021423993561e+00
2.261694021423993561e+00
2.627517685476241649e+00
2.627517685476241649e+00
2.627517685476241649e+00
2.748646382030701663e+00
2.748646382030701663e+00
2.677019196142460533e+00
2.677019196142460533e+00
2.625642628254035937e+00
2.625642628254035937e+00
2.580266243476668553e+00
2.580266243476668553e+00
2.339883907589953349e+00
2.339883907589953349e+00
2.185941709646900932e+00
2.185941709646900932e+00
2.627142674031800240e+00
2.627142674031800240e+00
2.317008209479048730e+00
2.317008209479048730e+00
2.317008209479048730e+00
2.113752006591998356e+00
2.113752006591998356e+00
2.093688894314401416e+00
2.093688894314401416e+00
2.114689535203100768e+00
2.114689535203100768e+00
2.184629169591357556e+00
2.184629169591357556e+00
2.214255073702200427e+00
2.214255073702200427e+00
2.401573290200506694e+00
2.401573290200506694e+00
2.307632923368022837e+00
2.307632923368022837e+00
2.265444135868404540e+00
2.265444135868404540e+00
2.203004730368968822e+00
2.203004730368968822e+00
2.203004730368968822e+00
2.210317453535568966e+00
2.210317453535568966e+00
2.003686147648549021e+00
2.003686147648549021e+00
2.143002899258400262e+00
2.143002899258400262e+00
2.500201300088503942e+00
2.500201300088503942e+00
2.241068391979735619e+00
2.241068391979735619e+00
2.161003448591571008e+00
2.161003448591571008e+00
2.175066377758110736e+00
2.175066377758110736e+00
2.230380565813165905e+00
2.230380565813165905e+00
2.230380565813165905e+00
2.340071413312173831e+00
2.340071413312173831e+00
2.482388256477553679e+00
2.482388256477553679e+00
2.606142033143101333e+00
2.606142033143101333e+00
2.444887112033448329e+00
2.444887112033448329e+00
2.421261391033662225e+00
2.421261391033662225e+00
2.374197454756310055e+00
2.374197454756310055e+00
2.258131412701803509e+00
2.258131412701803509e+00
2.044937406537064906e+00
2.044937406537064906e+00
2.314570635090182460e+00
2.314570635090182460e+00
2.314570635090182460e+00
2.426699056978057101e+00
2.426699056978057101e+00
2.182754112369151844e+00
2.182754112369151844e+00
2.154440748313852350e+00
2.154440748313852350e+00
2.145627979369487459e+00
2.145627979369487459e+00
2.133627613147373925e+00
2.133627613147373925e+00
2.175816400646992221e+00
2.175816400646992221e+00
2.315508163701284872e+00
2.315508163701284872e+00
2.335196264534440402e+00
2.335196264534440402e+00
2.210692464980010374e+00
2.210692464980010374e+00
2.210692464980010374e+00
2.209004913480026033e+00
2.209004913480026033e+00
2.301445234534745587e+00
2.301445234534745587e+00
2.176753929258095077e+00
2.176753929258095077e+00
2.021311685537278358e+00
2.021311685537278358e+00
2.465700247199926753e+00
2.465700247199926753e+00
2.358821985534226506e+00
2.358821985534226506e+00
2.207504867702261730e+00
2.207504867702261730e+00
2.211629993591112786e+00
2.211629993591112786e+00
2.211629993591112786e+00
2.214630085146641392e+00
2.214630085146641392e+00
2.175816400646992221e+00
2.175816400646992221e+00
2.177503952146977007e+00
2.177503952146977007e+00
2.235630726035340299e+00
2.235630726035340299e+00
2.189504318369090985e+00
2.189504318369090985e+00
2.207317361980041248e+00
2.207317361980041248e+00
2.207317361980041248e+00
2.290382396923734465e+00
2.290382396923734465e+00
2.126314889980773337e+00
2.126314889980773337e+00
2.156128299813837135e+00
2.156128299813837135e+00
2.630517777031769810e+00
2.630517777031769810e+00
2.398010681478316641e+00
2.398010681478316641e+00
2.305570360423596643e+00
2.305570360423596643e+00
2.348884182256538722e+00
2.348884182256538722e+00
2.442824549089022579e+00
2.442824549089022579e+00
2.557015533921323414e+00
2.557015533921323414e+00
2.557015533921323414e+00
2.543327616199224650e+00
2.543327616199224650e+00
2.602579424420911280e+00
2.602579424420911280e+00
2.319445783867915889e+00
2.319445783867915889e+00
2.226442945646534444e+00
2.226442945646534444e+00
2.162691000091555793e+00
2.162691000091555793e+00
2.118627155369731785e+00
2.118627155369731785e+00
1.916870998260445047e+00
1.916870998260445047e+00
2.105501754814294912e+00
2.105501754814294912e+00
2.105501754814294912e+00
2.428199102755821404e+00
2.428199102755821404e+00
2.248006103701895242e+00
2.248006103701895242e+00
2.244443494979705633e+00
2.244443494979705633e+00
2.265819147312845505e+00
2.265819147312845505e+00
2.291507431257057803e+00
2.291507431257057803e+00
2.340633930478835278e+00
2.340633930478835278e+00
2.410386059144871140e+00
2.410386059144871140e+00
2.451637318033387469e+00
2.451637318033387469e+00
2.254943815424054865e+00
2.254943815424054865e+00
2.254943815424054865e+00
2.176566423535874595e+00
2.176566423535874595e+00
2.199442121646778769e+00
2.199442121646778769e+00
2.152378185369426600e+00
2.152378185369426600e+00
2.008936307870723859e+00
2.008936307870723859e+00
2.343259010589922919e+00
2.343259010589922919e+00
2.416761253700369316e+00
2.416761253700369316e+00
2.287194799645985377e+00
2.287194799645985377e+00
2.324883449812311209e+00
2.324883449812311209e+00
2.324883449812311209e+00
2.352821802423169739e+00
2.352821802423169739e+00
2.350196722312082542e+00
2.350196722312082542e+00
2.309882992034669069e+00
2.309882992034669069e+00
2.390697958311716054e+00
2.390697958311716054e+00
2.315883175145725836e+00
2.315883175145725836e+00
2.222505325479903426e+00
2.222505325479903426e+00
2.188941801202429094e+00
2.188941801202429094e+00
2.208442396313364142e+00
2.208442396313364142e+00
2.050187566759239299e+00
2.050187566759239299e+00
2.050187566759239299e+00
1.976497817926572642e+00
1.976497817926572642e+00
2.475825556199835464e+00
2.475825556199835464e+00
2.274444410534989469e+00
2.274444410534989469e+00
2.137940244758446351e+00
2.137940244758446351e+00
2.084501113925596005e+00
2.084501113925596005e+00
2.094626422925504272e+00
2.094626422925504272e+00
2.125752372814111890e+00
2.125752372814111890e+00
2.171691274758141166e+00
2.171691274758141166e+00
2.432699240089114312e+00
2.432699240089114312e+00
2.319820795312356854e+00
2.319820795312356854e+00
2.319820795312356854e+00
2.345884090701010116e+00
2.345884090701010116e+00
2.461200109866634289e+00
2.461200109866634289e+00
2.569015900143436948e+00
2.569015900143436948e+00
2.316070680867946319e+00
2.316070680867946319e+00
2.362572099978637485e+00
2.362572099978637485e+00
2.677394207586901498e+00
2.677394207586901498e+00
2.354321848200934042e+00
2.354321848200934042e+00
2.276131962034974254e+00
2.276131962034974254e+00
2.276131962034974254e+00
2.256443861201819168e+00
2.256443861201819168e+00
2.227567979979857782e+00
2.227567979979857782e+00
2.279132053590502860e+00
2.279132053590502860e+00
2.337821344645527599e+00
2.337821344645527599e+00
2.421448896755882263e+00
2.421448896755882263e+00
2.182379100924710880e+00
2.182379100924710880e+00
2.121439741203039464e+00
2.121439741203039464e+00
2.131752555925168657e+00
2.131752555925168657e+00
2.129502487258521981e+00
2.129502487258521981e+00
2.129502487258521981e+00
2.004061159092989985e+00
2.004061159092989985e+00
2.279694570757164307e+00
2.279694570757164307e+00
2.473012970366527341e+00
2.473012970366527341e+00
2.273506881923887057e+00
2.273506881923887057e+00
2.248193609424115724e+00
2.248193609424115724e+00
2.178816492202520827e+00
2.178816492202520827e+00
2.140190313425092139e+00
2.140190313425092139e+00
2.160440931424909561e+00
2.160440931424909561e+00
2.160440931424909561e+00
2.260943998535111632e+00
2.258881435590685438e+00
2.099501571703238145e+00
2.099501571703238145e+00
2.104939237647633021e+00
2.104939237647633021e+00
2.199442121646778769e+00
2.199442121646778769e+00
2.126127384258552855e+00
2.126127384258552855e+00
2.126127384258552855e+00
1.993373332926419828e+00
1.993373332926419828e+00
2.487825922421948999e+00
2.487825922421948999e+00
2.505076448866237371e+00
2.505076448866237371e+00
2.416386242255928352e+00
2.416386242255928352e+00
2.461950132755516218e+00
2.461950132755516218e+00
2.442824549089022579e+00
2.442824549089022579e+00
2.405698416089358194e+00
2.405698416089358194e+00
2.391447981200597983e+00
2.391447981200597983e+00
2.533389812921536866e+00
2.533389812921536866e+00
2.533389812921536866e+00
2.455949949644459451e+00
2.455949949644459451e+00
2.352259285256507848e+00
2.352259285256507848e+00
2.276131962034974254e+00
2.276131962034974254e+00
2.279507065034943825e+00
2.279507065034943825e+00
2.122564775536362802e+00
2.122564775536362802e+00
2.119939695425275605e+00
2.119939695425275605e+00
2.574453566087832268e+00
2.574453566087832268e+00
2.337821344645527599e+00
2.337821344645527599e+00
2.337821344645527599e+00
2.231318094424268317e+00
2.231318094424268317e+00
2.204129764702292160e+00
2.204129764702292160e+00
2.185754203924680450e+00
2.185754203924680450e+00
2.230193060090945423e+00
2.230193060090945423e+00
2.265256630146183614e+00
2.265256630146183614e+00
2.458575029755546648e+00
2.458575029755546648e+00
2.263944090090640238e+00
2.263944090090640238e+00
2.197942075869014911e+00
2.197942075869014911e+00
2.197942075869014911e+00
2.176753929258095077e+00
2.176753929258095077e+00
2.144502945036164565e+00
2.144502945036164565e+00
1.902995574816126023e+00
1.902995574816126023e+00
2.061250404370250422e+00
2.061250404370250422e+00
2.399510727256080500e+00
2.399510727256080500e+00
2.170378734702597345e+00
2.170378734702597345e+00
2.162315988647114828e+00
2.162315988647114828e+00
2.241068391979735619e+00
2.241068391979735619e+00
2.302195257423627517e+00
2.302195257423627517e+00
2.302195257423627517e+00
2.374009949034089573e+00
2.374009949034089573e+00
2.399698232978301426e+00
2.399698232978301426e+00
2.471137913144322074e+00
2.471137913144322074e+00
2.290382396923734465e+00
2.290382396923734465e+00
2.233943174535355514e+00
2.233943174535355514e+00
2.192879421369060555e+00
2.192879421369060555e+00
2.110939420758690233e+00
2.110939420758690233e+00
1.986435621204260427e+00
1.986435621204260427e+00
2.328258552812280335e+00
2.328258552812280335e+00
2.437011871700186294e+00
2.437011871700186294e+00
2.307257911923581428e+00
2.307257911923581428e+00
2.307257911923581428e+00
2.314008117923521013e+00
2.314008117923521013e+00
2.312320566423536228e+00
2.312320566423536228e+00
2.362197088534196077e+00
2.362197088534196077e+00
2.409636036255989211e+00
2.409636036255989211e+00
2.506013977477339782e+00
2.506013977477339782e+00
2.452012329477828434e+00
2.452012329477828434e+00
2.317008209479048730e+00
2.317008209479048730e+00
2.268444227423932702e+00
2.268444227423932702e+00
2.268444227423932702e+00
2.267319193090609808e+00
2.267319193090609808e+00
2.132502578814050587e+00
2.132502578814050587e+00
2.049062532425916405e+00
2.049062532425916405e+00
2.504888943144016888e+00
2.504888943144016888e+00
2.383010223700674501e+00
2.383010223700674501e+00
2.245756035035248566e+00
2.245756035035248566e+00
2.258693929868464956e+00
2.258693929868464956e+00
2.258506424146244473e+00
2.258506424146244473e+00
2.258506424146244473e+00
2.264319101535081202e+00
2.264319101535081202e+00
2.265069124423963132e+00
2.265069124423963132e+00
2.419386333811456957e+00
2.419386333811456957e+00
2.292444959868159771e+00
2.292444959868159771e+00
2.256068849757378203e+00
2.256068849757378203e+00
2.241630909146397510e+00
2.241630909146397510e+00
2.266944181646168399e+00
2.266944181646168399e+00
2.079625965147862576e+00
2.079625965147862576e+00
2.152940702536088047e+00
2.152940702536088047e+00
2.152940702536088047e+00
2.562640705587938772e+00
2.562640705587938772e+00
2.305195348979155678e+00
2.305195348979155678e+00
2.233943174535355514e+00
2.233943174535355514e+00
2.218567705313272853e+00
2.218567705313272853e+00
2.204879787591174090e+00
2.204879787591174090e+00
2.209754936368907963e+00
2.209754936368907963e+00
2.235818231757560781e+00
2.235818231757560781e+00
2.408135990478225352e+00
2.245381023590808045e+00
2.243130954924161813e+00
2.243130954924161813e+00
2.227380474257637299e+00
2.227380474257637299e+00
2.205254799035615054e+00
2.205254799035615054e+00
2.036124637592700015e+00
2.036124637592700015e+00
2.256068849757378203e+00
2.256068849757378203e+00
2.256068849757378203e+00
2.496638691366313889e+00
2.496638691366313889e+00
2.275569444868312807e+00
2.275569444868312807e+00
2.237880794701986531e+00
2.237880794701986531e+00
2.203379741813409787e+00
2.203379741813409787e+00
2.185754203924680450e+00
2.185754203924680450e+00
2.250443678090761956e+00
2.250443678090761956e+00
2.373822443311869090e+00
2.373822443311869090e+00
2.390322946867275089e+00
2.390322946867275089e+00
2.390322946867275089e+00
2.205442304757835537e+00
2.205442304757835537e+00
2.161565965758232455e+00
2.161565965758232455e+00
2.199442121646778769e+00
2.199442121646778769e+00
2.143752922147282192e+00
2.143752922147282192e+00
2.027124362926114642e+00
2.027124362926114642e+00
2.449012237922299828e+00
2.449012237922299828e+00
2.460075075533310951e+00
2.460075075533310951e+00
2.308570451979125249e+00
2.308570451979125249e+00
2.281194616534928166e+00
2.281194616534928166e+00
2.281194616534928166e+00
2.260756492812891150e+00
2.260756492812891150e+00
2.247818597979674760e+00
2.247818597979674760e+00
2.261694021423993561e+00
2.261694021423993561e+00
2.398948210089419053e+00
2.398948210089419053e+00
2.349446699423200169e+00
2.349446699423200169e+00
2.299195165868098911e+00
2.299195165868098911e+00
2.328071047090059853e+00
2.328071047090059853e+00
2.402135807367168141e+00
2.402135807367168141e+00
2.402135807367168141e+00
2.210504959257789892e+00
2.210504959257789892e+00
2.110564409314249268e+00
2.110564409314249268e+00
2.580266243476668553e+00
2.580266243476668553e+00
2.377760063478499664e+00
2.377760063478499664e+00
2.267881710257271255e+00
2.267881710257271255e+00
2.238443311868648422e+00
2.238443311868648422e+00
2.214067567979979945e+00
2.214067567979979945e+00
2.249693655201880027e+00
2.249693655201880027e+00
2.249693655201880027e+00
2.297132602923673161e+00
2.297132602923673161e+00
2.476950590533158358e+00
2.304820337534714714e+00
2.304820337534714714e+00
2.239380840479750834e+00
2.239380840479750834e+00
2.239380840479750834e+00
2.208629902035584625e+00
2.208629902035584625e+00
2.227192968535416817e+00
2.227192968535416817e+00
2.048500015259254514e+00
2.048500015259254514e+00
2.179754020813623683e+00
2.179754020813623683e+00
2.525139561143833866e+00
2.525139561143833866e+00
2.284382213812677254e+00
2.284382213812677254e+00
2.243693472090823260e+00
2.243693472090823260e+00
2.239005829035309869e+00
2.239005829035309869e+00
2.239005829035309869e+00
2.225317911313211550e+00
2.225317911313211550e+00
2.251193700979644330e+00
2.251193700979644330e+00
2.303507797479171337e+00
2.303507797479171337e+00
2.427449079866939474e+00
2.427449079866939474e+00
2.263381572923978347e+00
2.263381572923978347e+00
2.262631550035096417e+00
2.262631550035096417e+00
2.273506881923887057e+00
2.273506881923887057e+00
2.199817133091219734e+00
2.199817133091219734e+00
2.035562120426038124e+00
2.035562120426038124e+00
2.035562120426038124e+00
2.313633106479079604e+00
2.313633106479079604e+00
2.449949766533402684e+00
2.449949766533402684e+00
2.222692831202123909e+00
2.222692831202123909e+00
2.203379741813409787e+00
2.203379741813409787e+00
2.206004821924497428e+00
2.206004821924497428e+00
2.230755577257606870e+00
2.230755577257606870e+00
2.286257271034882521e+00
2.286257271034882521e+00
2.404385876033814373e+00
2.404385876033814373e+00
2.404385876033814373e+00
2.419011322367015993e+00
2.419011322367015993e+00
2.308195440534684284e+00
2.308195440534684284e+00
2.271444318979460864e+00
2.271444318979460864e+00
2.267694204535050773e+00
2.267694204535050773e+00
2.126689901425214746e+00
2.126689901425214746e+00
2.006686239204077182e+00
2.006686239204077182e+00
2.438324411755729670e+00
2.438324411755729670e+00
2.351321756645405436e+00
2.351321756645405436e+00
2.240318369090853690e+00
2.240318369090853690e+00
2.240318369090853690e+00
2.228505508590960638e+00
2.228505508590960638e+00
2.211067476424451339e+00
2.211067476424451339e+00
2.247631092257453833e+00
2.247631092257453833e+00
2.280257087923826198e+00
2.280257087923826198e+00
2.434199285866878171e+00
2.434199285866878171e+00
2.327508529923398850e+00
2.256256355479598685e+00
2.256256355479598685e+00
2.243693472090823260e+00
2.243693472090823260e+00
2.291882442701498768e+00
2.291882442701498768e+00
2.148253059480575100e+00
2.148253059480575100e+00
2.179003997924741309e+00
2.179003997924741309e+00
2.623205053865169223e+00
2.623205053865169223e+00
2.623205053865169223e+00
2.386760338145085036e+00
2.386760338145085036e+00
2.304257820368053267e+00
2.304257820368053267e+00
2.293945005645924073e+00
2.293945005645924073e+00
2.249881160924100509e+00
2.249881160924100509e+00
2.229255531479842567e+00
2.229255531479842567e+00
2.206754844813379357e+00
2.206754844813379357e+00
2.380760155034028269e+00
2.380760155034028269e+00
2.196817041535691573e+00
2.196817041535691573e+00
2.154065736869411385e+00
2.154065736869411385e+00
2.154065736869411385e+00
2.144315439313944083e+00
2.144315439313944083e+00
2.181629078035828950e+00
2.181629078035828950e+00
2.025061799981688893e+00
2.025061799981688893e+00
2.266569170201727434e+00
2.266569170201727434e+00
2.573891048921170377e+00
2.573891048921170377e+00
2.362947111423078006e+00
2.362947111423078006e+00
2.326758507034516477e+00
2.326758507034516477e+00
2.300882717368083696e+00
2.300882717368083696e+00
2.300882717368083696e+00
2.279882076479384789e+00
2.279882076479384789e+00
2.289444868312631609e+00
2.289444868312631609e+00
2.335196264534440402e+00
2.335196264534440402e+00
2.392948026978362286e+00
2.392948026978362286e+00
2.251756218146305777e+00
2.251756218146305777e+00
2.263006561479537382e+00
2.263006561479537382e+00
2.301257728812525105e+00
2.301257728812525105e+00
2.233380657368694511e+00
2.233380657368694511e+00
2.233380657368694511e+00
2.090876308481094181e+00
2.090876308481094181e+00
2.443762077700125435e+00
2.443762077700125435e+00
2.472450453199865894e+00
2.472450453199865894e+00
2.292444959868159771e+00
2.262819055757316900e+00
2.262819055757316900e+00
2.229630542924283532e+00
2.229630542924283532e+00
2.229630542924283532e+00
2.217817682424390480e+00
2.217817682424390480e+00
2.241255897701956545e+00
2.241255897701956545e+00
2.360134525589770327e+00
2.360134525589770327e+00
2.317758232367931104e+00
2.317758232367931104e+00
2.232068117313150690e+00
2.232068117313150690e+00
2.206192327646717910e+00
2.206192327646717910e+00
2.238630817590868904e+00
2.238630817590868904e+00
2.111689443647572162e+00
2.111689443647572162e+00
2.056562761314737475e+00
2.056562761314737475e+00
2.056562761314737475e+00
2.543702627643666059e+00
2.543702627643666059e+00
2.374384960478530537e+00
2.374384960478530537e+00
2.271256813257240381e+00
2.271256813257240381e+00
2.263381572923978347e+00
2.263381572923978347e+00
2.244818506424146598e+00
2.244818506424146598e+00
2.233755668813135031e+00
2.233755668813135031e+00
2.258131412701803509e+00
2.258131412701803509e+00
2.413386150700399746e+00
2.413386150700399746e+00
2.413386150700399746e+00
2.266194158757286470e+00
2.266194158757286470e+00
2.225880428479872997e+00
2.225880428479872997e+00
2.231693105868709726e+00
2.231693105868709726e+00
2.277632007812738557e+00
2.277632007812738557e+00
2.097626514481032878e+00
2.097626514481032878e+00
2.195879512924588717e+00
2.195879512924588717e+00
2.573516037476729856e+00
2.573516037476729856e+00
2.330883632923367976e+00
2.330883632923367976e+00
2.330883632923367976e+00
2.291694936979278285e+00
2.291694936979278285e+00
2.258318918424023991e+00
2.258318918424023991e+00
2.210879970702230857e+00
2.210879970702230857e+00
2.221192785424360050e+00
2.221192785424360050e+00
2.256818872646260132e+00
2.256818872646260132e+00
2.402135807367168141e+00
2.402135807367168141e+00
2.247256080813012868e+00
2.247256080813012868e+00
2.241255897701956545e+00
2.241255897701956545e+00
2.270881801812799416e+00
2.236568254646443155e+00
2.236568254646443155e+00
2.064625507370219992e+00
2.322070863979003530e+00
2.322070863979003530e+00
2.494576128421887695e+00
2.270131778923917043e+00
2.270131778923917043e+00
2.262819055757316900e+00
2.260568987090670667e+00
2.260568987090670667e+00
2.269194250312814631e+00
2.293194982757042144e+00
2.293194982757042144e+00
2.371572374645222414e+00
2.371384868923001932e+00
2.371384868923001932e+00
2.236380748924222672e+00
2.230005554368724940e+00
2.230005554368724940e+00
2.256068849757378203e+00
2.161003448591571008e+00
2.161003448591571008e+00
2.053750175481429796e+00
2.479763176366466482e+00
2.479763176366466482e+00
2.418448805200354101e+00
2.272756859035004684e+00
2.272756859035004684e+00
2.269381756035035114e+00
2.239193334757530351e+00
2.239193334757530351e+00
2.231505600146489243e+00
2.245006012146367080e+00
2.245006012146367080e+00
2.392573015533921321e+00
2.295070039979247412e+00
2.295070039979247412e+00
2.203754753257850751e+00
2.205067293313394572e+00
2.205067293313394572e+00
2.282694662312692468e+00
2.148440565202795582e+00
2.148440565202795582e+00
2.146940519425031280e+00
2.599954344309823639e+00
2.599954344309823639e+00
2.365384685811944721e+00
2.272194341868343237e+00
2.272194341868343237e+00
2.259631458479567812e+00
2.222130314035462462e+00
2.222130314035462462e+00
2.219692739646595747e+00
2.249881160924100509e+00
2.249881160924100509e+00
2.418448805200354101e+00
2.248943632312997654e+00
2.248943632312997654e+00
2.226630451368755370e+00
2.240130863368633207e+00
2.240130863368633207e+00
2.278944547868282378e+00
2.101564134647663895e+00
2.101564134647663895e+00
2.241630909146397510e+00
2.523264503921628599e+00
2.523264503921628599e+00
2.306132877590258534e+00
2.296570085757011714e+00
2.296570085757011714e+00
2.284757225257118218e+00
2.284757225257118218e+00
2.258693929868464956e+00
2.258881435590685438e+00
2.317570726645710621e+00
2.317570726645710621e+00
2.403073335978270997e+00
2.240880886257515137e+00
2.240880886257515137e+00
2.222130314035462462e+00
2.235818231757560781e+00
2.235818231757560781e+00
2.181066560869167059e+00
2.181066560869167059e+00
2.050000061037018817e+00
2.365759697256386129e+00
2.365759697256386129e+00
2.451074800866725578e+00
2.268819238868374111e+00
2.268819238868374111e+00
2.251006195257423848e+00
2.219317728202154782e+00
2.219317728202154782e+00
2.223630359813226764e+00
2.265069124423963132e+00
2.265069124423963132e+00
2.392948026978362286e+00
2.369134800256355700e+00
2.369134800256355700e+00
2.268444227423932702e+00
2.251756218146305777e+00
2.251756218146305777e+00
2.274444410534989469e+00
2.145065462202826012e+00
2.145065462202826012e+00
2.058625324259163225e+00
2.542390087588122238e+00
2.542390087588122238e+00
2.405885921811578676e+00
2.276881984923856628e+00
2.276881984923856628e+00
2.266381664479506952e+00
2.265631641590625023e+00
2.265631641590625023e+00
2.268631733146153184e+00
2.250631183812982439e+00
2.250631183812982439e+00
2.406635944700461049e+00
2.269944273201696561e+00
2.269944273201696561e+00
2.220817773979919085e+00
2.220442762535478121e+00
2.220442762535478121e+00
2.275194433423871843e+00
2.275194433423871843e+00
2.082251045258949329e+00
2.082251045258949329e+00
2.160065919980468152e+00
2.160065919980468152e+00
2.160065919980468152e+00
2.576516129032258018e+00
2.576516129032258018e+00
2.332383678701132279e+00
2.332383678701132279e+00
2.268256721701712220e+00
2.268256721701712220e+00
2.262819055757316900e+00
2.262819055757316900e+00
2.242568437757499922e+00
2.242568437757499922e+00
2.263569078646198829e+00
2.263569078646198829e+00
2.287382305368205859e+00
2.287382305368205859e+00
2.437199377422406776e+00
2.437199377422406776e+00
2.276319467757194737e+00
2.276319467757194737e+00
2.244631000701926116e+00
2.244631000701926116e+00
2.236568254646443155e+00
2.236568254646443155e+00
2.236568254646443155e+00
2.218192693868831444e+00
2.218192693868831444e+00
2.046437452314828764e+00
2.046437452314828764e+00
2.279319559312723342e+00
2.279319559312723342e+00
2.502263863032929692e+00
2.502263863032929692e+00
2.276881984923856628e+00
2.276881984923856628e+00
2.252693746757408633e+00
2.252693746757408633e+00
2.259068941312906365e+00
2.259068941312906365e+00
2.269194250312814631e+00
2.269194250312814631e+00
2.269194250312814631e+00
2.289069856868190644e+00
2.289069856868190644e+00
2.360134525589770327e+00
2.360134525589770327e+00
2.382635212256233537e+00
2.382635212256233537e+00
2.236755760368663637e+00
2.236755760368663637e+00
2.213317545091097571e+00
2.213317545091097571e+00
2.232818140202032620e+00
2.232818140202032620e+00
2.160815942869350526e+00
2.160815942869350526e+00
2.074188299203466812e+00
2.074188299203466812e+00
2.074188299203466812e+00
2.479388164922025517e+00
2.479388164922025517e+00
2.446199652088991705e+00
2.446199652088991705e+00
2.277256996368297592e+00
2.277256996368297592e+00
2.266944181646168399e+00
2.266944181646168399e+00
2.244068483535264225e+00
2.244068483535264225e+00
2.241630909146397510e+00
2.241630909146397510e+00
2.271069307535019899e+00
2.271069307535019899e+00
2.402698324533829588e+00
2.402698324533829588e+00
2.338196356089969008e+00
2.338196356089969008e+00
2.338196356089969008e+00
2.247068575090792386e+00
2.247068575090792386e+00
2.233193151646474028e+00
2.233193151646474028e+00
2.262444044312875935e+00
2.262444044312875935e+00
2.108126834925382109e+00
2.108126834925382109e+00
2.079063447981200685e+00
2.079063447981200685e+00
2.555702993865779593e+00
2.555702993865779593e+00
2.351884273812066883e+00
2.351884273812066883e+00
2.266194158757286470e+00
2.266194158757286470e+00
2.266194158757286470e+00
2.258881435590685438e+00
2.258881435590685438e+00
2.246318552201910457e+00
2.246318552201910457e+00
2.254943815424054865e+00
2.254943815424054865e+00
2.261694021423993561e+00
2.261694021423993561e+00
2.437949400311288706e+00
2.437949400311288706e+00
2.271631824701681346e+00
2.271631824701681346e+00
2.240130863368633207e+00
2.240130863368633207e+00
2.227567979979857782e+00
2.227567979979857782e+00
2.257006378368480615e+00
2.257006378368480615e+00
2.065000518814661401e+00
2.065000518814661401e+00
2.065000518814661401e+00
2.211442487868892304e+00
2.211442487868892304e+00
2.552327890865810023e+00
2.552327890865810023e+00
2.304070314645832784e+00
2.304070314645832784e+00
2.263381572923978347e+00
2.263381572923978347e+00
2.250068666646320992e+00
2.250068666646320992e+00
2.221942808313242423e+00
2.221942808313242423e+00
2.237505783257545566e+00
2.237505783257545566e+00
2.288319833979308715e+00
2.288319833979308715e+00
2.288319833979308715e+00
2.390322946867275089e+00
2.390322946867275089e+00
2.244068483535264225e+00
2.244068483535264225e+00
2.226630451368755370e+00
2.226630451368755370e+00
2.259631458479567812e+00
2.259631458479567812e+00
2.233755668813135031e+00
2.233755668813135031e+00
2.080000976592303541e+00
2.080000976592303541e+00
2.381135166478469234e+00
2.381135166478469234e+00
2.492513565477461945e+00
2.492513565477461945e+00
2.492513565477461945e+00
2.281757133701590057e+00
2.281757133701590057e+00
2.271069307535019899e+00
2.271069307535019899e+00
2.252881252479629115e+00
2.252881252479629115e+00
2.234318185979796478e+00
2.234318185979796478e+00
2.262631550035096417e+00
2.262631550035096417e+00
