2.230380565813165905e+00
2.255693838312936794e+00
2.255693838312936794e+00
2.255693838312936794e+00
2.203567247535630269e+00
2.203567247535630269e+00
2.203567247535630269e+00
2.203567247535630269e+00
2.103439191869869163e+00
2.103439191869869163e+00
2.103439191869869163e+00
2.425761528366954689e+00
2.425761528366954689e+00
2.425761528366954689e+00
2.430449171422468080e+00
2.430449171422468080e+00
2.430449171422468080e+00
2.430449171422468080e+00
2.264319101535081202e+00
2.264319101535081202e+00
2.264319101535081202e+00
2.251568712424085295e+00
2.251568712424085295e+00
2.251568712424085295e+00
2.227192968535416817e+00
2.227192968535416817e+00
2.227192968535416817e+00
2.227192968535416817e+00
2.226255439924313961e+00
2.226255439924313961e+00
2.226255439924313961e+00
2.256818872646260132e+00
2.256818872646260132e+00
2.256818872646260132e+00
2.256818872646260132e+00
2.356196905423139309e+00
2.356196905423139309e+00
2.356196905423139309e+00
2.323945921201208797e+00
2.323945921201208797e+00
2.323945921201208797e+00
2.248568620868556689e+00
2.248568620868556689e+00
2.248568620868556689e+00
2.248568620868556689e+00
2.236005737479781263e+00
2.236005737479781263e+00
2.236005737479781263e+00
2.265819147312845505e+00
2.265819147312845505e+00
2.265819147312845505e+00
2.151628162480544670e+00
2.151628162480544670e+00
2.151628162480544670e+00
2.104751731925412539e+00
2.104751731925412539e+00
2.104751731925412539e+00
2.104751731925412539e+00
2.541640064699239865e+00
2.541640064699239865e+00
2.541640064699239865e+00
2.344009033478804849e+00
2.344009033478804849e+00
2.344009033478804849e+00
2.249318643757439062e+00
2.249318643757439062e+00
2.249318643757439062e+00
2.249318643757439062e+00
2.242755943479720404e+00
2.242755943479720404e+00
2.242755943479720404e+00
2.221942808313242423e+00
2.221942808313242423e+00
2.221942808313242423e+00
2.221942808313242423e+00
2.231318094424268317e+00
2.231318094424268317e+00
2.231318094424268317e+00
2.243130954924161813e+00
2.243130954924161813e+00
2.243130954924161813e+00
2.397260658589434712e+00
2.397260658589434712e+00
2.397260658589434712e+00
2.397260658589434712e+00
2.271631824701681346e+00
2.271631824701681346e+00
2.271631824701681346e+00
2.245193517868587563e+00
2.245193517868587563e+00
2.248193609424115724e+00
2.248193609424115724e+00
2.248193609424115724e+00
2.277819513534959039e+00
2.277819513534959039e+00
2.277819513534959039e+00
2.277819513534959039e+00
2.088251228370006540e+00
2.088251228370006540e+00
2.088251228370006540e+00
2.196067018646809643e+00
2.196067018646809643e+00
2.196067018646809643e+00
2.534139835810419239e+00
2.534139835810419239e+00
2.534139835810419239e+00
2.534139835810419239e+00
2.299382671590319838e+00
2.299382671590319838e+00
2.299382671590319838e+00
2.267694204535050773e+00
2.267694204535050773e+00
2.267694204535050773e+00
2.253818781090731527e+00
2.253818781090731527e+00
2.253818781090731527e+00
2.253818781090731527e+00
2.241255897701956545e+00
2.241255897701956545e+00
2.241255897701956545e+00
2.257756401257362544e+00
2.257756401257362544e+00
2.257756401257362544e+00
2.288507339701529197e+00
2.288507339701529197e+00
2.288507339701529197e+00
2.288507339701529197e+00
2.402885830256050514e+00
2.402885830256050514e+00
2.402885830256050514e+00
2.260006469924008776e+00
2.260006469924008776e+00
2.260006469924008776e+00
2.258693929868464956e+00
2.258693929868464956e+00
2.258693929868464956e+00
2.277256996368297592e+00
2.277256996368297592e+00
2.277256996368297592e+00
2.230568071535386387e+00
2.230568071535386387e+00
2.230568071535386387e+00
2.230568071535386387e+00
2.099876583147679110e+00
2.099876583147679110e+00
2.099876583147679110e+00
2.347571642200994901e+00
2.347571642200994901e+00
2.347571642200994901e+00
2.463075167088839557e+00
2.463075167088839557e+00
2.463075167088839557e+00
2.248756126590777171e+00
2.248756126590777171e+00
2.248756126590777171e+00
2.248756126590777171e+00
2.234130680257575996e+00
2.234130680257575996e+00
2.234130680257575996e+00
2.230943082979827352e+00
2.230943082979827352e+00
2.230943082979827352e+00
2.235630726035340299e+00
2.235630726035340299e+00
2.235630726035340299e+00
2.235630726035340299e+00
2.265819147312845505e+00
2.265819147312845505e+00
2.265819147312845505e+00
2.357321939756462204e+00
2.357321939756462204e+00
2.357321939756462204e+00
2.346634113589892490e+00
2.346634113589892490e+00
2.346634113589892490e+00
2.346634113589892490e+00
2.256443861201819168e+00
2.256443861201819168e+00
2.256443861201819168e+00
2.237318277535325084e+00
2.237318277535325084e+00
2.237318277535325084e+00
2.259631458479567812e+00
2.259631458479567812e+00
2.259631458479567812e+00
2.169253700369274007e+00
2.169253700369274007e+00
2.169253700369274007e+00
2.082063539536728847e+00
2.082063539536728847e+00
2.082063539536728847e+00
2.082063539536728847e+00
2.484825830866420393e+00
2.484825830866420393e+00
2.484825830866420393e+00
2.383385235145115466e+00
2.383385235145115466e+00
2.383385235145115466e+00
2.254006286812952009e+00
2.254006286812952009e+00
2.254006286812952009e+00
2.254006286812952009e+00
2.251193700979644330e+00
2.251193700979644330e+00
2.251193700979644330e+00
2.225505417035432032e+00
2.225505417035432032e+00
2.225505417035432032e+00
2.216505142368846659e+00
2.216505142368846659e+00
2.216505142368846659e+00
2.216505142368846659e+00
2.256256355479598685e+00
2.256256355479598685e+00
2.256256355479598685e+00
2.406635944700461049e+00
2.406635944700461049e+00
2.406635944700461049e+00
2.406635944700461049e+00
2.306695394756919981e+00
2.306695394756919981e+00
2.306695394756919981e+00
2.265819147312845505e+00
2.265819147312845505e+00
2.265819147312845505e+00
2.250256172368541474e+00
2.250256172368541474e+00
2.250256172368541474e+00
2.250256172368541474e+00
2.281382122257148648e+00
2.281382122257148648e+00
2.281382122257148648e+00
2.119564683980834197e+00
2.119564683980834197e+00
2.119564683980834197e+00
2.138690267647328280e+00
2.138690267647328280e+00
2.138690267647328280e+00
2.138690267647328280e+00
2.558328073976867234e+00
2.558328073976867234e+00
2.558328073976867234e+00
2.325445966978973100e+00
2.325445966978973100e+00
2.325445966978973100e+00
2.251756218146305777e+00
2.251756218146305777e+00
2.251756218146305777e+00
2.251756218146305777e+00
2.246693563646351421e+00
2.246693563646351421e+00
2.246693563646351421e+00
2.225880428479872997e+00
2.225880428479872997e+00
2.225880428479872997e+00
2.243693472090823260e+00
2.243693472090823260e+00
2.243693472090823260e+00
2.243693472090823260e+00
2.264131595812860720e+00
2.264131595812860720e+00
2.264131595812860720e+00
2.415448713644825496e+00
2.415448713644825496e+00
2.415448713644825496e+00
2.261506515701773079e+00
2.261506515701773079e+00
2.261506515701773079e+00
2.261506515701773079e+00
2.242005920590838475e+00
2.242005920590838475e+00
2.242005920590838475e+00
2.248006103701895242e+00
2.248006103701895242e+00
2.248006103701895242e+00
2.249506149479659545e+00
2.249506149479659545e+00
2.249506149479659545e+00
2.249506149479659545e+00
2.085251136814477935e+00
2.085251136814477935e+00
2.085251136814477935e+00
2.263569078646198829e+00
2.263569078646198829e+00
2.263569078646198829e+00
2.263569078646198829e+00
2.502076357310709209e+00
2.502076357310709209e+00
2.502076357310709209e+00
2.276131962034974254e+00
2.276131962034974254e+00
2.276131962034974254e+00
2.243880977813043742e+00
2.243880977813043742e+00
2.243880977813043742e+00
2.243880977813043742e+00
2.221380291146580532e+00
2.221380291146580532e+00
2.221380291146580532e+00
2.206567339091158875e+00
2.206567339091158875e+00
2.206567339091158875e+00
2.240693380535294654e+00
2.240693380535294654e+00
2.240693380535294654e+00
2.240693380535294654e+00
2.327696035645618888e+00
2.327696035645618888e+00
2.327696035645618888e+00
2.396323129978331856e+00
2.396323129978331856e+00
2.396323129978331856e+00
2.266006653035065987e+00
2.266006653035065987e+00
2.266006653035065987e+00
2.266006653035065987e+00
2.253256263924070080e+00
2.253256263924070080e+00
2.253256263924070080e+00
2.268069215979491737e+00
2.268069215979491737e+00
2.268069215979491737e+00
2.200379650257881181e+00
2.200379650257881181e+00
2.200379650257881181e+00
2.200379650257881181e+00
2.094438917203283790e+00
2.094438917203283790e+00
2.094438917203283790e+00
2.426699056978057101e+00
2.426699056978057101e+00
2.426699056978057101e+00
2.435136814477980582e+00
2.435136814477980582e+00
2.435136814477980582e+00
2.435136814477980582e+00
2.270881801812799416e+00
2.270881801812799416e+00
2.270881801812799416e+00
2.255693838312936794e+00
2.255693838312936794e+00
2.255693838312936794e+00
2.228693014313181120e+00
2.228693014313181120e+00
2.228693014313181120e+00
2.228693014313181120e+00
2.224567888424329176e+00
2.224567888424329176e+00
2.224567888424329176e+00
2.256256355479598685e+00
2.256256355479598685e+00
2.256256355479598685e+00
2.370634846034120002e+00
2.370634846034120002e+00
2.370634846034120002e+00
2.370634846034120002e+00
2.323758415478988315e+00
2.323758415478988315e+00
2.323758415478988315e+00
2.246693563646351421e+00
2.246693563646351421e+00
2.246693563646351421e+00
2.246693563646351421e+00
2.229255531479842567e+00
2.229255531479842567e+00
2.229255531479842567e+00
2.263569078646198829e+00
2.263569078646198829e+00
2.263569078646198829e+00
2.128377452925199087e+00
2.128377452925199087e+00
2.128377452925199087e+00
2.128377452925199087e+00
2.072688253425702509e+00
2.072688253425702509e+00
2.072688253425702509e+00
2.499076265755180604e+00
2.499076265755180604e+00
2.499076265755180604e+00
2.329946104312265120e+00
2.329946104312265120e+00
2.329946104312265120e+00
2.329946104312265120e+00
2.259631458479567812e+00
2.259631458479567812e+00
2.259631458479567812e+00
2.267319193090609808e+00
2.267319193090609808e+00
2.267319193090609808e+00
2.246881069368571904e+00
2.246881069368571904e+00
2.246881069368571904e+00
2.246881069368571904e+00
2.253068758201849597e+00
2.253068758201849597e+00
2.253068758201849597e+00
2.275194433423871843e+00
2.275194433423871843e+00
2.275194433423871843e+00
2.439824457533493973e+00
2.439824457533493973e+00
2.439824457533493973e+00
2.439824457533493973e+00
2.296570085757011714e+00
2.296570085757011714e+00
2.296570085757011714e+00
2.267881710257271255e+00
2.267881710257271255e+00
2.267881710257271255e+00
2.262819055757316900e+00
2.262819055757316900e+00
2.262819055757316900e+00
2.281757133701590057e+00
2.281757133701590057e+00
2.281757133701590057e+00
2.281757133701590057e+00
2.098189031647694325e+00
2.098189031647694325e+00
2.098189031647694325e+00
2.203942258980071234e+00
2.203942258980071234e+00
2.203942258980071234e+00
2.203942258980071234e+00
2.540327524643696488e+00
2.540327524643696488e+00
2.540327524643696488e+00
2.295632557145908859e+00
2.295632557145908859e+00
2.295632557145908859e+00
2.254193792535172935e+00
2.254193792535172935e+00
2.254193792535172935e+00
2.241443403424177028e+00
2.241443403424177028e+00
2.241443403424177028e+00
2.241443403424177028e+00
2.218567705313272853e+00
2.218567705313272853e+00
2.218567705313272853e+00
2.244068483535264225e+00
2.244068483535264225e+00
2.244068483535264225e+00
2.283257179479354360e+00
2.283257179479354360e+00
2.283257179479354360e+00
2.283257179479354360e+00
2.398948210089419053e+00
2.398948210089419053e+00
2.398948210089419053e+00
2.247818597979674760e+00
2.247818597979674760e+00
2.247818597979674760e+00
2.247818597979674760e+00
2.229068025757622085e+00
2.229068025757622085e+00
2.229068025757622085e+00
2.257381389812921579e+00
2.257381389812921579e+00
2.257381389812921579e+00
2.224942899868770141e+00
2.224942899868770141e+00
2.224942899868770141e+00
2.224942899868770141e+00
2.096501480147709540e+00
2.096501480147709540e+00
2.096501480147709540e+00
2.342508987701040546e+00
2.342508987701040546e+00
2.342508987701040546e+00
2.476575579088717394e+00
2.476575579088717394e+00
2.476575579088717394e+00
2.476575579088717394e+00
2.277819513534959039e+00
2.277819513534959039e+00
2.277819513534959039e+00
2.257756401257362544e+00
2.257756401257362544e+00
2.257756401257362544e+00
2.235443220313119816e+00
2.235443220313119816e+00
2.235443220313119816e+00
2.235443220313119816e+00
2.214442579424420909e+00
2.214442579424420909e+00
2.214442579424420909e+00
2.236193243202001746e+00
2.236193243202001746e+00
2.236193243202001746e+00
2.331446150090029423e+00
2.331446150090029423e+00
2.331446150090029423e+00
2.331446150090029423e+00
2.348321665089877275e+00
2.348321665089877275e+00
2.348321665089877275e+00
2.260006469924008776e+00
2.260006469924008776e+00
2.260006469924008776e+00
2.240693380535294654e+00
2.240693380535294654e+00
2.240693380535294654e+00
2.240693380535294654e+00
2.268631733146153184e+00
2.268631733146153184e+00
2.268631733146153184e+00
2.170378734702597345e+00
2.170378734702597345e+00
2.170378734702597345e+00
2.088813745536667987e+00
2.088813745536667987e+00
2.088813745536667987e+00
2.088813745536667987e+00
2.489325968199713301e+00
2.489325968199713301e+00
2.489325968199713301e+00
2.385260292367321178e+00
2.385260292367321178e+00
2.385260292367321178e+00
2.260381481368449741e+00
2.260381481368449741e+00
2.260381481368449741e+00
2.260381481368449741e+00
2.253256263924070080e+00
2.253256263924070080e+00
2.253256263924070080e+00
2.227005462813196335e+00
2.227005462813196335e+00
2.227005462813196335e+00
2.226255439924313961e+00
2.226255439924313961e+00
2.226255439924313961e+00
2.226255439924313961e+00
2.248381115146336207e+00
2.248381115146336207e+00
2.248381115146336207e+00
2.387885372478407930e+00
2.387885372478407930e+00
2.387885372478407930e+00
2.387885372478407930e+00
2.294132511368144556e+00
2.294132511368144556e+00
2.294132511368144556e+00
2.245006012146367080e+00
2.245006012146367080e+00
2.245006012146367080e+00
2.242943449201941331e+00
2.242943449201941331e+00
2.242943449201941331e+00
2.242943449201941331e+00
2.280819605090487201e+00
2.280819605090487201e+00
2.280819605090487201e+00
2.112814477980895500e+00
2.112814477980895500e+00
2.112814477980895500e+00
2.143190404980620745e+00
2.143190404980620745e+00
2.143190404980620745e+00
2.143190404980620745e+00
2.558515579699087716e+00
2.558515579699087716e+00
2.558515579699087716e+00
2.333321207312235135e+00
2.333321207312235135e+00
2.333321207312235135e+00
2.270694296090578934e+00
2.270694296090578934e+00
2.270694296090578934e+00
2.270694296090578934e+00
2.251943723868526259e+00
2.251943723868526259e+00
2.251943723868526259e+00
2.222130314035462462e+00
2.222130314035462462e+00
2.222130314035462462e+00
2.222130314035462462e+00
2.241255897701956545e+00
2.241255897701956545e+00
2.241255897701956545e+00
2.264319101535081202e+00
2.264319101535081202e+00
2.264319101535081202e+00
2.417698782311472172e+00
2.417698782311472172e+00
2.417698782311472172e+00
2.417698782311472172e+00
2.260568987090670667e+00
2.260568987090670667e+00
2.260568987090670667e+00
2.242943449201941331e+00
2.242943449201941331e+00
2.242943449201941331e+00
2.250256172368541474e+00
2.250256172368541474e+00
2.250256172368541474e+00
2.250256172368541474e+00
2.255131321146275347e+00
2.255131321146275347e+00
2.255131321146275347e+00
2.094063905758842381e+00
2.094063905758842381e+00
2.094063905758842381e+00
2.275194433423871843e+00
2.275194433423871843e+00
2.275194433423871843e+00
2.275194433423871843e+00
2.503013885921811621e+00
2.503013885921811621e+00
2.503013885921811621e+00
2.284382213812677254e+00
2.284382213812677254e+00
2.284382213812677254e+00
2.253818781090731527e+00
2.253818781090731527e+00
2.253818781090731527e+00
2.253818781090731527e+00
2.233005645924253102e+00
2.233005645924253102e+00
2.233005645924253102e+00
2.216317636646626177e+00
2.216317636646626177e+00
2.216317636646626177e+00
2.244068483535264225e+00
2.244068483535264225e+00
2.244068483535264225e+00
2.244068483535264225e+00
2.311570543534653854e+00
2.311570543534653854e+00
2.311570543534653854e+00
2.373447431867427682e+00
2.373447431867427682e+00
2.373447431867427682e+00
2.263194067201757864e+00
2.263194067201757864e+00
2.263194067201757864e+00
2.263194067201757864e+00
2.251943723868526259e+00
2.251943723868526259e+00
2.251943723868526259e+00
2.252131229590746742e+00
2.252131229590746742e+00
2.252131229590746742e+00
2.252131229590746742e+00
2.184441663869136629e+00
2.184441663869136629e+00
2.184441663869136629e+00
2.075500839259010633e+00
2.075500839259010633e+00
2.075500839259010633e+00
2.408698507644886799e+00
2.408698507644886799e+00
2.408698507644886799e+00
2.408698507644886799e+00
2.423698965422528495e+00
2.423698965422528495e+00
2.423698965422528495e+00
2.275194433423871843e+00
2.275194433423871843e+00
2.275194433423871843e+00
2.260193975646229259e+00
2.260193975646229259e+00
2.260193975646229259e+00
2.260193975646229259e+00
2.230005554368724940e+00
2.230005554368724940e+00
2.230005554368724940e+00
2.232443128757591655e+00
2.232443128757591655e+00
2.232443128757591655e+00
2.265069124423963132e+00
2.265069124423963132e+00
2.265069124423963132e+00
2.265069124423963132e+00
2.383572740867336393e+00
2.383572740867336393e+00
2.383572740867336393e+00
2.335008758812219920e+00
2.335008758812219920e+00
2.335008758812219920e+00
2.261506515701773079e+00
2.261506515701773079e+00
2.261506515701773079e+00
2.261506515701773079e+00
2.245756035035248566e+00
2.245756035035248566e+00
2.245756035035248566e+00
2.277256996368297592e+00
2.277256996368297592e+00
2.277256996368297592e+00
2.145627979369487459e+00
2.145627979369487459e+00
2.145627979369487459e+00
2.107189306314279698e+00
2.107189306314279698e+00
2.107189306314279698e+00
2.107189306314279698e+00
2.543140110477004168e+00
2.543140110477004168e+00
2.543140110477004168e+00
2.352071779534287366e+00
2.352071779534287366e+00
2.352071779534287366e+00
2.352071779534287366e+00
2.254756309701834383e+00
2.254756309701834383e+00
2.254756309701834383e+00
2.242005920590838475e+00
2.242005920590838475e+00
2.242005920590838475e+00
2.219130222479934300e+00
2.219130222479934300e+00
2.219130222479934300e+00
2.219130222479934300e+00
2.237693288979766049e+00
2.237693288979766049e+00
2.237693288979766049e+00
2.254756309701834383e+00
2.254756309701834383e+00
2.254756309701834383e+00
2.410011047700430176e+00
2.410011047700430176e+00
2.410011047700430176e+00
2.410011047700430176e+00
2.270694296090578934e+00
2.270694296090578934e+00
2.270694296090578934e+00
2.236380748924222672e+00
2.236380748924222672e+00
2.236380748924222672e+00
2.233755668813135031e+00
2.233755668813135031e+00
2.233755668813135031e+00
2.233755668813135031e+00
2.268819238868374111e+00
2.268819238868374111e+00
2.268819238868374111e+00
2.092751365703299449e+00
2.092751365703299449e+00
2.092751365703299449e+00
2.201317178868984037e+00
2.201317178868984037e+00
2.201317178868984037e+00
2.201317178868984037e+00
2.534514847254860204e+00
2.534514847254860204e+00
2.534514847254860204e+00
2.299382671590319838e+00
2.299382671590319838e+00
2.299382671590319838e+00
2.263944090090640238e+00
2.263944090090640238e+00
2.263944090090640238e+00
2.263944090090640238e+00
2.251006195257423848e+00
2.251006195257423848e+00
2.251006195257423848e+00
2.222880336924344391e+00
2.222880336924344391e+00
2.222880336924344391e+00
2.243693472090823260e+00
2.243693472090823260e+00
2.243693472090823260e+00
2.243693472090823260e+00
2.298632648701437464e+00
2.298632648701437464e+00
2.298632648701437464e+00
2.401010773033844803e+00
2.401010773033844803e+00
2.401010773033844803e+00
2.255693838312936794e+00
2.255693838312936794e+00
2.255693838312936794e+00
2.255693838312936794e+00
2.238818323313089387e+00
2.238818323313089387e+00
2.238818323313089387e+00
2.264694112979522167e+00
2.264694112979522167e+00
2.264694112979522167e+00
2.229068025757622085e+00
2.229068025757622085e+00
2.229068025757622085e+00
2.229068025757622085e+00
2.095938962981048093e+00
2.095938962981048093e+00
2.095938962981048093e+00
2.358446974089785542e+00
2.358446974089785542e+00
2.358446974089785542e+00
2.474888027588732609e+00
2.474888027588732609e+00
2.474888027588732609e+00
2.474888027588732609e+00
2.270881801812799416e+00
2.270881801812799416e+00
2.270881801812799416e+00
2.254568803979613900e+00
2.254568803979613900e+00
2.254568803979613900e+00
2.254568803979613900e+00
2.230568071535386387e+00
2.230568071535386387e+00
2.230568071535386387e+00
2.218755211035493335e+00
2.218755211035493335e+00
2.218755211035493335e+00
2.251568712424085295e+00
2.251568712424085295e+00
2.251568712424085295e+00
2.251568712424085295e+00
2.332571184423352761e+00
2.332571184423352761e+00
2.332571184423352761e+00
2.338758873256630455e+00
2.338758873256630455e+00
2.338758873256630455e+00
2.239943357646412725e+00
2.239943357646412725e+00
2.239943357646412725e+00
2.239943357646412725e+00
2.220255256813257638e+00
2.220255256813257638e+00
2.220255256813257638e+00
2.257568895535142062e+00
2.257568895535142062e+00
2.257568895535142062e+00
2.170191228980376863e+00
2.170191228980376863e+00
2.170191228980376863e+00
2.170191228980376863e+00
2.098751548814355772e+00
2.098751548814355772e+00
2.098751548814355772e+00
2.509389080477309353e+00
2.509389080477309353e+00
2.509389080477309353e+00
2.399135715811639535e+00
2.399135715811639535e+00
2.399135715811639535e+00
2.399135715811639535e+00
2.270506790368358452e+00
2.270506790368358452e+00
2.270506790368358452e+00
2.253443769646290562e+00
2.253443769646290562e+00
2.253443769646290562e+00
2.228505508590960638e+00
2.228505508590960638e+00
2.228505508590960638e+00
2.228505508590960638e+00
2.232068117313150690e+00
2.232068117313150690e+00
2.232068117313150690e+00
2.257943906979583026e+00
2.257943906979583026e+00
2.257943906979583026e+00
2.403823358867152926e+00
2.403823358867152926e+00
2.403823358867152926e+00
2.403823358867152926e+00
2.305382854701376161e+00
2.305382854701376161e+00
2.305382854701376161e+00
2.255318826868495830e+00
2.255318826868495830e+00
2.255318826868495830e+00
2.255318826868495830e+00
2.240505874813074172e+00
2.240505874813074172e+00
2.240505874813074172e+00
2.268069215979491737e+00
2.268069215979491737e+00
2.268069215979491737e+00
2.111689443647572162e+00
2.111689443647572162e+00
2.111689443647572162e+00
2.111689443647572162e+00
2.144315439313944083e+00
2.144315439313944083e+00
2.144315439313944083e+00
2.554952970976897664e+00
2.554952970976897664e+00
2.554952970976897664e+00
2.326008484145634547e+00
2.326008484145634547e+00
2.326008484145634547e+00
2.326008484145634547e+00
2.246131046479689974e+00
2.246131046479689974e+00
2.246131046479689974e+00
2.236005737479781263e+00
2.236005737479781263e+00
2.236005737479781263e+00
2.221942808313242423e+00
2.221942808313242423e+00
2.221942808313242423e+00
2.221942808313242423e+00
2.245381023590808045e+00
2.245381023590808045e+00
2.245381023590808045e+00
2.258693929868464956e+00
2.258693929868464956e+00
2.258693929868464956e+00
2.413948667867061193e+00
2.413948667867061193e+00
2.413948667867061193e+00
2.413948667867061193e+00
2.264694112979522167e+00
2.264694112979522167e+00
2.264694112979522167e+00
2.253068758201849597e+00
2.253068758201849597e+00
2.253068758201849597e+00
2.262819055757316900e+00
2.262819055757316900e+00
2.262819055757316900e+00
2.262819055757316900e+00
2.258881435590685438e+00
2.258881435590685438e+00
2.258881435590685438e+00
2.101939146092104860e+00
2.101939146092104860e+00
2.101939146092104860e+00
2.101939146092104860e+00
2.286069765312662039e+00
2.286069765312662039e+00
2.286069765312662039e+00
2.503201391644032547e+00
2.503201391644032547e+00
2.503201391644032547e+00
2.283257179479354360e+00
2.283257179479354360e+00
2.283257179479354360e+00
2.283257179479354360e+00
2.250818689535202921e+00
2.250818689535202921e+00
2.250818689535202921e+00
2.228880520035401602e+00
2.228880520035401602e+00
2.228880520035401602e+00
2.220442762535478121e+00
2.220442762535478121e+00
2.220442762535478121e+00
2.220442762535478121e+00
2.240318369090853690e+00
2.240318369090853690e+00
2.240318369090853690e+00
2.304632831812494231e+00
2.304632831812494231e+00
2.304632831812494231e+00
2.357696951200903612e+00
2.357696951200903612e+00
2.357696951200903612e+00
2.357696951200903612e+00
2.248568620868556689e+00
2.248568620868556689e+00
2.248568620868556689e+00
2.227380474257637299e+00
2.227380474257637299e+00
2.227380474257637299e+00
2.260756492812891150e+00
2.260756492812891150e+00
2.260756492812891150e+00
2.206567339091158875e+00
2.206567339091158875e+00
2.206567339091158875e+00
2.206567339091158875e+00
2.100439100314340557e+00
2.100439100314340557e+00
2.100439100314340557e+00
2.427449079866939474e+00
2.427449079866939474e+00
2.427449079866939474e+00
2.425574022644734207e+00
2.425574022644734207e+00
2.425574022644734207e+00
2.425574022644734207e+00
2.265631641590625023e+00
2.265631641590625023e+00
2.265631641590625023e+00
2.248193609424115724e+00
2.248193609424115724e+00
2.248193609424115724e+00
2.215005096591082356e+00
2.215005096591082356e+00
2.215005096591082356e+00
2.215005096591082356e+00
2.221567796868801015e+00
2.221567796868801015e+00
2.221567796868801015e+00
2.251756218146305777e+00
2.251756218146305777e+00
2.251756218146305777e+00
2.362947111423078006e+00
2.362947111423078006e+00
2.362947111423078006e+00
2.362947111423078006e+00
2.305945371868038052e+00
2.305945371868038052e+00
2.305945371868038052e+00
2.253631275368511044e+00
2.253631275368511044e+00
2.253631275368511044e+00
2.254943815424054865e+00
2.254943815424054865e+00
2.254943815424054865e+00
2.254943815424054865e+00
2.289444868312631609e+00
2.289444868312631609e+00
2.289444868312631609e+00
2.153503219702749494e+00
2.153503219702749494e+00
2.153503219702749494e+00
2.153503219702749494e+00
2.115627063814203623e+00
2.115627063814203623e+00
2.115627063814203623e+00
2.559453108310190128e+00
2.559453108310190128e+00
2.559453108310190128e+00
2.359759514145329362e+00
2.359759514145329362e+00
2.359759514145329362e+00
2.359759514145329362e+00
2.261319009979552597e+00
2.261319009979552597e+00
2.261319009979552597e+00
2.251568712424085295e+00
2.251568712424085295e+00
2.251568712424085295e+00
2.227567979979857782e+00
2.227567979979857782e+00
2.227567979979857782e+00
2.227567979979857782e+00
2.238068300424207457e+00
2.238068300424207457e+00
2.238068300424207457e+00
2.252693746757408633e+00
2.252693746757408633e+00
2.252693746757408633e+00
2.415636219367045978e+00
2.415636219367045978e+00
2.415636219367045978e+00
2.415636219367045978e+00
2.279507065034943825e+00
2.279507065034943825e+00
2.279507065034943825e+00
2.235255714590899334e+00
2.235255714590899334e+00
2.235255714590899334e+00
2.239005829035309869e+00
2.239005829035309869e+00
2.239005829035309869e+00
2.239005829035309869e+00
2.266381664479506952e+00
2.266381664479506952e+00
2.266381664479506952e+00
2.085251136814477935e+00
2.085251136814477935e+00
2.085251136814477935e+00
2.208629902035584625e+00
2.208629902035584625e+00
2.208629902035584625e+00
2.208629902035584625e+00
2.531327249977111116e+00
2.531327249977111116e+00
2.531327249977111116e+00
2.310258003479110034e+00
2.310258003479110034e+00
2.310258003479110034e+00
2.310258003479110034e+00
2.250443678090761956e+00
2.250443678090761956e+00
2.250443678090761956e+00
2.237505783257545566e+00
2.237505783257545566e+00
2.237505783257545566e+00
2.220817773979919085e+00
2.220817773979919085e+00
2.220817773979919085e+00
2.238255806146427940e+00
2.238255806146427940e+00
2.238255806146427940e+00
2.238255806146427940e+00
2.286632282479323930e+00
2.286632282479323930e+00
2.286632282479323930e+00
2.395385601367229444e+00
2.395385601367229444e+00
2.395385601367229444e+00
2.261506515701773079e+00
2.261506515701773079e+00
2.261506515701773079e+00
2.261506515701773079e+00
2.252506241035188150e+00
2.252506241035188150e+00
2.252506241035188150e+00
2.273319376201666131e+00
2.273319376201666131e+00
2.273319376201666131e+00
2.237318277535325084e+00
2.237318277535325084e+00
2.237318277535325084e+00
2.237318277535325084e+00
2.104001709036531054e+00
2.104001709036531054e+00
2.104001709036531054e+00
2.351321756645405436e+00
2.351321756645405436e+00
2.351321756645405436e+00
2.460262581255531433e+00
2.460262581255531433e+00
2.460262581255531433e+00
2.460262581255531433e+00
2.270694296090578934e+00
2.270694296090578934e+00
2.270694296090578934e+00
2.248006103701895242e+00
2.248006103701895242e+00
2.248006103701895242e+00
2.228318002868740155e+00
2.228318002868740155e+00
2.228318002868740155e+00
2.228318002868740155e+00
2.210129947813348927e+00
2.210129947813348927e+00
2.210129947813348927e+00
2.231693105868709726e+00
2.231693105868709726e+00
2.231693105868709726e+00
2.324695944090090727e+00
2.324695944090090727e+00
2.324695944090090727e+00
2.324695944090090727e+00
2.341383953367717208e+00
2.341383953367717208e+00
2.341383953367717208e+00
2.257756401257362544e+00
2.257756401257362544e+00
2.257756401257362544e+00
2.257756401257362544e+00
2.242755943479720404e+00
2.242755943479720404e+00
2.242755943479720404e+00
2.268631733146153184e+00
2.268631733146153184e+00
2.268631733146153184e+00
2.173191320535905025e+00
2.173191320535905025e+00
2.173191320535905025e+00
2.173191320535905025e+00
2.108501846369823074e+00
2.108501846369823074e+00
2.108501846369823074e+00
2.511264137699515064e+00
2.511264137699515064e+00
2.511264137699515064e+00
2.396510635700552783e+00
2.396510635700552783e+00
2.396510635700552783e+00
2.396510635700552783e+00
2.257193884090700653e+00
2.257193884090700653e+00
2.257193884090700653e+00
2.236568254646443155e+00
2.236568254646443155e+00
2.236568254646443155e+00
2.220817773979919085e+00
2.220817773979919085e+00
2.220817773979919085e+00
2.220817773979919085e+00
2.228693014313181120e+00
2.228693014313181120e+00
2.228693014313181120e+00
2.256443861201819168e+00
2.256443861201819168e+00
2.256443861201819168e+00
2.399698232978301426e+00
2.399698232978301426e+00
2.399698232978301426e+00
2.399698232978301426e+00
2.297507614368114126e+00
2.297507614368114126e+00
2.297507614368114126e+00
2.251006195257423848e+00
2.251006195257423848e+00
2.251006195257423848e+00
2.230755577257606870e+00
2.230755577257606870e+00
2.230755577257606870e+00
2.230755577257606870e+00
2.267131687368389326e+00
2.267131687368389326e+00
2.267131687368389326e+00
2.114502029480880285e+00
2.114502029480880285e+00
2.114502029480880285e+00
2.114502029480880285e+00
2.158753379924924776e+00
2.158753379924924776e+00
2.158753379924924776e+00
2.572578508865627445e+00
2.572578508865627445e+00
2.572578508865627445e+00
2.342883999145481511e+00
2.342883999145481511e+00
2.342883999145481511e+00
2.258318918424023991e+00
2.258318918424023991e+00
2.258318918424023991e+00
2.238630817590868904e+00
2.238630817590868904e+00
2.238630817590868904e+00
2.238630817590868904e+00
2.216317636646626177e+00
2.216317636646626177e+00
2.216317636646626177e+00
2.234880703146458369e+00
2.234880703146458369e+00
2.234880703146458369e+00
2.265069124423963132e+00
2.265069124423963132e+00
2.265069124423963132e+00
2.265069124423963132e+00
2.405135898922696747e+00
2.405135898922696747e+00
2.405135898922696747e+00
2.257381389812921579e+00
2.257381389812921579e+00
2.257381389812921579e+00
2.243318460646382295e+00
2.243318460646382295e+00
2.243318460646382295e+00
2.243318460646382295e+00
2.259818964201788294e+00
2.259818964201788294e+00
2.259818964201788294e+00
2.256256355479598685e+00
2.256256355479598685e+00
2.256256355479598685e+00
2.087126194036683202e+00
2.087126194036683202e+00
2.087126194036683202e+00
2.281944639423810539e+00
2.281944639423810539e+00
2.281944639423810539e+00
2.281944639423810539e+00
2.504513931699575480e+00
2.504513931699575480e+00
2.504513931699575480e+00
2.293569994201483109e+00
2.293569994201483109e+00
2.293569994201483109e+00
2.263194067201757864e+00
2.263194067201757864e+00
2.263194067201757864e+00
2.263194067201757864e+00
2.241068391979735619e+00
2.241068391979735619e+00
2.241068391979735619e+00
2.215942625202185212e+00
2.215942625202185212e+00
2.215942625202185212e+00
2.215942625202185212e+00
2.247068575090792386e+00
2.247068575090792386e+00
2.247068575090792386e+00
2.319445783867915889e+00
2.319445783867915889e+00
2.319445783867915889e+00
2.360509537034211291e+00
2.360509537034211291e+00
2.360509537034211291e+00
2.360509537034211291e+00
2.242943449201941331e+00
2.242943449201941331e+00
2.242943449201941331e+00
2.236380748924222672e+00
2.236380748924222672e+00
2.236380748924222672e+00
2.266944181646168399e+00
2.266944181646168399e+00
2.266944181646168399e+00
2.266944181646168399e+00
2.191191869869075770e+00
2.191191869869075770e+00
2.191191869869075770e+00
2.086376171147801273e+00
2.086376171147801273e+00
2.086376171147801273e+00
2.421823908200323228e+00
2.421823908200323228e+00
2.421823908200323228e+00
2.421823908200323228e+00
2.416573747978148834e+00
2.416573747978148834e+00
2.416573747978148834e+00
2.259818964201788294e+00
2.259818964201788294e+00
2.259818964201788294e+00
2.243880977813043742e+00
2.243880977813043742e+00
2.243880977813043742e+00
2.243880977813043742e+00
2.227380474257637299e+00
2.227380474257637299e+00
2.227380474257637299e+00
2.224380382702108694e+00
2.224380382702108694e+00
2.224380382702108694e+00
2.252881252479629115e+00
2.252881252479629115e+00
2.252881252479629115e+00
2.252881252479629115e+00
2.379260109256263966e+00
2.379260109256263966e+00
2.379260109256263966e+00
2.333133701590014208e+00
2.333133701590014208e+00
2.333133701590014208e+00
2.271444318979460864e+00
2.271444318979460864e+00
2.271444318979460864e+00
2.271444318979460864e+00
2.240505874813074172e+00
2.240505874813074172e+00
2.240505874813074172e+00
2.282132145146031021e+00
2.282132145146031021e+00
2.282132145146031021e+00
2.282132145146031021e+00
2.131377544480727693e+00
2.131377544480727693e+00
2.131377544480727693e+00
2.091813837092196593e+00
2.091813837092196593e+00
2.091813837092196593e+00
2.546327707754753256e+00
2.546327707754753256e+00
2.546327707754753256e+00
2.546327707754753256e+00
2.358259468367565059e+00
2.358259468367565059e+00
2.358259468367565059e+00
2.256256355479598685e+00
2.256256355479598685e+00
2.256256355479598685e+00
2.251568712424085295e+00
2.251568712424085295e+00
2.251568712424085295e+00
2.251568712424085295e+00
2.213505050813318054e+00
2.213505050813318054e+00
2.213505050813318054e+00
2.224005371257667729e+00
2.224005371257667729e+00
2.224005371257667729e+00
2.255881344035157721e+00
2.255881344035157721e+00
2.255881344035157721e+00
2.255881344035157721e+00
2.431949217200232383e+00
2.431949217200232383e+00
2.431949217200232383e+00
2.300507705923642732e+00
2.300507705923642732e+00
2.300507705923642732e+00
2.271444318979460864e+00
2.271444318979460864e+00
2.271444318979460864e+00
2.271444318979460864e+00
2.252881252479629115e+00
2.252881252479629115e+00
2.252881252479629115e+00
2.276506973479415219e+00
2.276506973479415219e+00
2.276506973479415219e+00
2.093876400036621899e+00
2.093876400036621899e+00
2.093876400036621899e+00
2.093876400036621899e+00
2.211817499313333268e+00
2.211817499313333268e+00
2.211817499313333268e+00
2.525702078310495757e+00
2.525702078310495757e+00
2.525702078310495757e+00
2.302570268868068482e+00
2.302570268868068482e+00
2.302570268868068482e+00
2.302570268868068482e+00
2.245568529313028083e+00
2.245568529313028083e+00
2.245568529313028083e+00
2.230380565813165905e+00
2.230380565813165905e+00
2.230380565813165905e+00
2.214630085146641392e+00
2.214630085146641392e+00
2.214630085146641392e+00
2.214630085146641392e+00
2.237318277535325084e+00
2.237318277535325084e+00
2.237318277535325084e+00
2.283632190923795324e+00
2.283632190923795324e+00
2.283632190923795324e+00
2.393510544145024177e+00
2.393510544145024177e+00
2.393510544145024177e+00
2.393510544145024177e+00
2.252693746757408633e+00
2.252693746757408633e+00
2.252693746757408633e+00
2.239755851924192243e+00
2.239755851924192243e+00
2.239755851924192243e+00
2.266194158757286470e+00
2.266194158757286470e+00
2.266194158757286470e+00
2.266194158757286470e+00
2.226255439924313961e+00
2.226255439924313961e+00
2.226255439924313961e+00
2.101376628925443413e+00
2.101376628925443413e+00
2.101376628925443413e+00
2.101376628925443413e+00
2.358634479812006024e+00
2.358634479812006024e+00
2.358634479812006024e+00
2.463825189977721486e+00
2.463825189977721486e+00
2.463825189977721486e+00
2.291694936979278285e+00
2.291694936979278285e+00
2.291694936979278285e+00
2.291694936979278285e+00
2.260568987090670667e+00
2.260568987090670667e+00
2.260568987090670667e+00
2.242755943479720404e+00
2.242755943479720404e+00
2.242755943479720404e+00
2.232443128757591655e+00
2.232443128757591655e+00
2.232443128757591655e+00
2.232443128757591655e+00
2.253256263924070080e+00
2.253256263924070080e+00
2.253256263924070080e+00
2.346259102145451525e+00
2.346259102145451525e+00
2.346259102145451525e+00
2.349634205145421095e+00
2.349634205145421095e+00
2.349634205145421095e+00
2.349634205145421095e+00
2.253818781090731527e+00
2.253818781090731527e+00
2.253818781090731527e+00
2.231693105868709726e+00
2.231693105868709726e+00
2.231693105868709726e+00
2.267319193090609808e+00
2.267319193090609808e+00
2.267319193090609808e+00
2.267319193090609808e+00
2.180879055146946577e+00
2.180879055146946577e+00
2.180879055146946577e+00
2.109064363536484965e+00
2.109064363536484965e+00
2.109064363536484965e+00
2.515389263588366120e+00
2.515389263588366120e+00
2.515389263588366120e+00
2.515389263588366120e+00
2.391447981200597983e+00
2.391447981200597983e+00
2.391447981200597983e+00
2.281569627979369130e+00
2.281569627979369130e+00
2.281569627979369130e+00
2.269194250312814631e+00
2.269194250312814631e+00
2.269194250312814631e+00
2.269194250312814631e+00
2.235255714590899334e+00
2.235255714590899334e+00
2.235255714590899334e+00
2.233943174535355514e+00
2.233943174535355514e+00
2.233943174535355514e+00
2.233943174535355514e+00
2.251568712424085295e+00
2.251568712424085295e+00
2.251568712424085295e+00
2.391072969756157018e+00
2.391072969756157018e+00
2.391072969756157018e+00
2.272006836146122755e+00
2.272006836146122755e+00
2.272006836146122755e+00
2.272006836146122755e+00
2.227567979979857782e+00
2.227567979979857782e+00
2.227567979979857782e+00
2.221005279702139568e+00
2.221005279702139568e+00
2.221005279702139568e+00
2.254006286812952009e+00
2.254006286812952009e+00
2.254006286812952009e+00
2.084313608203375079e+00
2.084313608203375079e+00
2.084313608203375079e+00
2.084313608203375079e+00
2.122752281258583285e+00
2.122752281258583285e+00
2.122752281258583285e+00
2.528514664143802992e+00
2.528514664143802992e+00
2.528514664143802992e+00
2.308195440534684284e+00
2.308195440534684284e+00
2.308195440534684284e+00
2.308195440534684284e+00
2.247256080813012868e+00
2.247256080813012868e+00
2.247256080813012868e+00
2.266381664479506952e+00
2.266381664479506952e+00
2.266381664479506952e+00
2.253068758201849597e+00
2.253068758201849597e+00
2.253068758201849597e+00
2.253068758201849597e+00
2.261694021423993561e+00
2.261694021423993561e+00
2.261694021423993561e+00
2.277819513534959039e+00
2.277819513534959039e+00
2.277819513534959039e+00
2.418073793755913137e+00
2.418073793755913137e+00
2.418073793755913137e+00
2.418073793755913137e+00
2.264506607257301685e+00
2.264506607257301685e+00
2.264506607257301685e+00
2.243318460646382295e+00
2.243318460646382295e+00
2.243318460646382295e+00
2.251381206701864812e+00
2.251381206701864812e+00
2.251381206701864812e+00
2.251381206701864812e+00
2.240130863368633207e+00
2.240130863368633207e+00
2.240130863368633207e+00
2.087501205481124167e+00
2.087501205481124167e+00
2.087501205481124167e+00
2.288882351145970162e+00
2.288882351145970162e+00
2.288882351145970162e+00
2.288882351145970162e+00
2.505826471755119300e+00
2.505826471755119300e+00
2.505826471755119300e+00
2.293382488479262626e+00
2.293382488479262626e+00
2.293382488479262626e+00
2.293382488479262626e+00
2.254568803979613900e+00
2.254568803979613900e+00
2.254568803979613900e+00
2.234505691702016961e+00
2.234505691702016961e+00
2.234505691702016961e+00
2.216692648091067142e+00
2.216692648091067142e+00
2.216692648091067142e+00
2.216692648091067142e+00
2.251193700979644330e+00
2.251193700979644330e+00
2.251193700979644330e+00
2.311945554979094819e+00
2.311945554979094819e+00
2.311945554979094819e+00
2.363322122867518971e+00
2.363322122867518971e+00
2.363322122867518971e+00
2.363322122867518971e+00
2.253443769646290562e+00
2.253443769646290562e+00
2.253443769646290562e+00
2.234693197424237443e+00
2.234693197424237443e+00
2.234693197424237443e+00
2.267881710257271255e+00
2.267881710257271255e+00
2.267881710257271255e+00
2.267881710257271255e+00
2.203942258980071234e+00
2.203942258980071234e+00
2.203942258980071234e+00
2.115439558091983141e+00
2.115439558091983141e+00
2.115439558091983141e+00
2.433261757255775315e+00
2.433261757255775315e+00
2.433261757255775315e+00
2.433261757255775315e+00
2.404010864589373409e+00
2.404010864589373409e+00
2.404010864589373409e+00
2.256068849757378203e+00
2.256068849757378203e+00
2.256068849757378203e+00
2.250256172368541474e+00
2.250256172368541474e+00
2.250256172368541474e+00
2.250256172368541474e+00
2.235818231757560781e+00
2.235818231757560781e+00
2.235818231757560781e+00
2.226255439924313961e+00
2.226255439924313961e+00
2.226255439924313961e+00
2.253443769646290562e+00
2.253443769646290562e+00
2.253443769646290562e+00
2.253443769646290562e+00
2.376822534867396808e+00
2.376822534867396808e+00
2.376822534867396808e+00
2.323570909756767389e+00
2.323570909756767389e+00
2.323570909756767389e+00
2.323570909756767389e+00
2.254943815424054865e+00
2.254943815424054865e+00
2.254943815424054865e+00
2.226817957090975852e+00
2.226817957090975852e+00
2.226817957090975852e+00
2.256443861201819168e+00
2.256443861201819168e+00
2.256443861201819168e+00
2.256443861201819168e+00
2.126877407147435228e+00
2.126877407147435228e+00
2.126877407147435228e+00
2.111689443647572162e+00
2.111689443647572162e+00
2.111689443647572162e+00
2.551015350810266202e+00
2.551015350810266202e+00
2.551015350810266202e+00
2.551015350810266202e+00
2.368384777367473326e+00
2.368384777367473326e+00
2.368384777367473326e+00
2.266756675923947917e+00
2.266756675923947917e+00
2.266756675923947917e+00
2.257943906979583026e+00
2.257943906979583026e+00
2.257943906979583026e+00
2.257943906979583026e+00
2.229443037202063049e+00
2.229443037202063049e+00
2.229443037202063049e+00
2.245943540757469048e+00
2.245943540757469048e+00
2.245943540757469048e+00
2.262069032868434526e+00
2.262069032868434526e+00
2.262069032868434526e+00
2.262069032868434526e+00
2.418823816644795066e+00
2.418823816644795066e+00
2.418823816644795066e+00
2.281007110812707683e+00
2.281007110812707683e+00
2.281007110812707683e+00
2.248006103701895242e+00
2.248006103701895242e+00
2.248006103701895242e+00
2.248006103701895242e+00
2.237880794701986531e+00
2.237880794701986531e+00
2.237880794701986531e+00
2.263006561479537382e+00
2.263006561479537382e+00
2.263006561479537382e+00
2.082438550981169811e+00
2.082438550981169811e+00
2.082438550981169811e+00
2.082438550981169811e+00
2.203192236091189304e+00
2.203192236091189304e+00
2.203192236091189304e+00
2.506201483199560265e+00
2.506201483199560265e+00
2.506201483199560265e+00
2.506201483199560265e+00
2.282694662312692468e+00
2.282694662312692468e+00
2.282694662312692468e+00
2.240880886257515137e+00
2.240880886257515137e+00
2.240880886257515137e+00
2.238068300424207457e+00
2.238068300424207457e+00
2.238068300424207457e+00
2.238068300424207457e+00
2.218005188146610962e+00
2.218005188146610962e+00
2.218005188146610962e+00
2.240693380535294654e+00
2.240693380535294654e+00
2.240693380535294654e+00
2.288319833979308715e+00
2.288319833979308715e+00
2.288319833979308715e+00
2.288319833979308715e+00
2.400260750144962874e+00
2.400260750144962874e+00
2.400260750144962874e+00
2.260006469924008776e+00
2.260006469924008776e+00
2.260006469924008776e+00
2.248193609424115724e+00
2.248193609424115724e+00
2.248193609424115724e+00
2.248193609424115724e+00
2.269569261757255596e+00
2.269569261757255596e+00
2.269569261757255596e+00
2.219317728202154782e+00
2.219317728202154782e+00
2.097814020203253360e+00
2.097814020203253360e+00
2.375322489089632505e+00
2.375322489089632505e+00
2.375322489089632505e+00
2.468137821588793912e+00
2.468137821588793912e+00
2.266944181646168399e+00
2.266944181646168399e+00
2.234505691702016961e+00
2.234505691702016961e+00
2.220817773979919085e+00
2.220817773979919085e+00
2.224942899868770141e+00
2.224942899868770141e+00
2.261506515701773079e+00
2.261506515701773079e+00
2.359759514145329362e+00
2.359759514145329362e+00
2.356384411145359792e+00
2.356384411145359792e+00
2.356384411145359792e+00
2.262444044312875935e+00
2.262444044312875935e+00
2.245193517868587563e+00
2.245193517868587563e+00
2.267694204535050773e+00
2.267694204535050773e+00
2.170941251869258792e+00
2.170941251869258792e+00
2.102126651814325342e+00
2.102126651814325342e+00
2.522701986754967152e+00
2.522701986754967152e+00
2.397823175756096159e+00
2.397823175756096159e+00
2.272944364757225166e+00
2.272944364757225166e+00
2.241443403424177028e+00
2.241443403424177028e+00
2.221755302591021497e+00
2.221755302591021497e+00
2.221755302591021497e+00
2.225130405590991067e+00
2.225130405590991067e+00
2.236380748924222672e+00
2.236380748924222672e+00
2.381885189367351607e+00
2.381885189367351607e+00
2.277444502090518075e+00
2.277444502090518075e+00
2.242380932035279439e+00
2.242380932035279439e+00
2.243880977813043742e+00
2.243880977813043742e+00
2.280069582201605716e+00
2.280069582201605716e+00
2.116002075258644588e+00
2.116002075258644588e+00
2.116002075258644588e+00
2.166066103091524919e+00
2.166066103091524919e+00
2.546702719199194664e+00
2.546702719199194664e+00
2.324883449812311209e+00
2.324883449812311209e+00
2.271069307535019899e+00
2.271069307535019899e+00
2.239755851924192243e+00
2.239755851924192243e+00
2.213130039368877089e+00
2.213130039368877089e+00
2.227005462813196335e+00
2.227005462813196335e+00
2.241255897701956545e+00
2.241255897701956545e+00
2.241255897701956545e+00
2.382260200811792572e+00
2.382260200811792572e+00
2.240880886257515137e+00
2.240880886257515137e+00
2.229068025757622085e+00
2.229068025757622085e+00
2.264506607257301685e+00
2.264506607257301685e+00
2.271069307535019899e+00
2.271069307535019899e+00
2.119377178258613714e+00
2.119377178258613714e+00
2.316445692312387283e+00
2.316445692312387283e+00
2.540327524643696488e+00
2.540327524643696488e+00
2.339696401867732423e+00
2.339696401867732423e+00
2.339696401867732423e+00
2.291694936979278285e+00
2.291694936979278285e+00
2.259443952757347329e+00
2.259443952757347329e+00
2.231693105868709726e+00
2.231693105868709726e+00
2.228130497146519229e+00
2.228130497146519229e+00
2.278007019257179522e+00
2.278007019257179522e+00
2.313445600756859122e+00
2.313445600756859122e+00
2.227005462813196335e+00
2.227005462813196335e+00
2.224005371257667729e+00
2.224005371257667729e+00
2.253256263924070080e+00
2.253256263924070080e+00
2.193629444257942485e+00
2.193629444257942485e+00
2.079250953703421168e+00
2.079250953703421168e+00
2.079250953703421168e+00
2.434011780144657688e+00
2.434011780144657688e+00
2.411323587755973996e+00
2.411323587755973996e+00
2.251568712424085295e+00
2.251568712424085295e+00
2.213880062257759462e+00
2.213880062257759462e+00
2.205254799035615054e+00
2.205254799035615054e+00
2.217442670979949515e+00
2.217442670979949515e+00
2.247068575090792386e+00
2.247068575090792386e+00
2.381697683645130681e+00
2.381697683645130681e+00
2.381697683645130681e+00
2.327321024201178368e+00
2.327321024201178368e+00
2.254568803979613900e+00
2.254568803979613900e+00
2.217067659535508550e+00
2.217067659535508550e+00
2.254568803979613900e+00
2.254568803979613900e+00
2.120127201147496088e+00
2.120127201147496088e+00
2.084876125370036970e+00
2.084876125370036970e+00
2.522514481032746669e+00
2.522514481032746669e+00
2.522514481032746669e+00
2.337258827478866152e+00
2.337258827478866152e+00
2.247068575090792386e+00
2.247068575090792386e+00
2.234880703146458369e+00
2.234880703146458369e+00
2.210879970702230857e+00
2.210879970702230857e+00
2.237880794701986531e+00
2.237880794701986531e+00
2.262444044312875935e+00
2.262444044312875935e+00
2.413761162144840711e+00
2.413761162144840711e+00
2.292069948423719250e+00
2.292069948423719250e+00
2.286632282479323930e+00
2.286632282479323930e+00
2.286632282479323930e+00
2.269381756035035114e+00
2.269381756035035114e+00
2.299195165868098911e+00
2.299195165868098911e+00
2.136627704702902530e+00
2.136627704702902530e+00
2.242193426313058957e+00
2.242193426313058957e+00
2.524577043977172419e+00
2.524577043977172419e+00
2.288132328257088233e+00
2.288132328257088233e+00
2.256443861201819168e+00
2.256443861201819168e+00
2.230943082979827352e+00
2.230943082979827352e+00
2.230943082979827352e+00
2.189504318369090985e+00
2.189504318369090985e+00
2.202817224646748340e+00
2.202817224646748340e+00
2.270694296090578934e+00
2.270694296090578934e+00
2.383947752311777357e+00
2.383947752311777357e+00
2.261319009979552597e+00
2.261319009979552597e+00
2.276319467757194737e+00
2.276319467757194737e+00
2.342883999145481511e+00
2.342883999145481511e+00
2.338946378978850937e+00
2.338946378978850937e+00
2.207129856257820322e+00
2.207129856257820322e+00
2.437199377422406776e+00
2.437199377422406776e+00
2.437199377422406776e+00
2.471887936033204003e+00
2.471887936033204003e+00
2.250068666646320992e+00
2.250068666646320992e+00
2.215192602313302839e+00
2.215192602313302839e+00
2.229068025757622085e+00
2.229068025757622085e+00
2.262819055757316900e+00
2.262819055757316900e+00
2.316258186590166801e+00
2.316258186590166801e+00
2.396510635700552783e+00
2.396510635700552783e+00
2.360134525589770327e+00
2.360134525589770327e+00
2.241068391979735619e+00
2.241068391979735619e+00
2.228880520035401602e+00
2.228880520035401602e+00
2.228880520035401602e+00
2.233005645924253102e+00
2.233005645924253102e+00
2.103626697592089645e+00
2.103626697592089645e+00
2.048500015259254514e+00
2.048500015259254514e+00
2.475825556199835464e+00
2.475825556199835464e+00
2.349634205145421095e+00
2.349634205145421095e+00
2.273694387646107540e+00
2.273694387646107540e+00
2.294320017090365038e+00
2.294320017090365038e+00
2.277632007812738557e+00
2.277632007812738557e+00
2.277632007812738557e+00
2.289257362590411127e+00
2.289257362590411127e+00
2.318508255256813033e+00
2.318508255256813033e+00
2.450137272255623166e+00
2.450137272255623166e+00
2.304257820368053267e+00
2.304257820368053267e+00
2.209754936368907963e+00
2.209754936368907963e+00
2.149565599536118921e+00
2.149565599536118921e+00
2.158565874202703849e+00
2.158565874202703849e+00
1.998810998870815148e+00
1.998810998870815148e+00
1.998810998870815148e+00
2.086938688314462720e+00
2.086938688314462720e+00
2.487263405255287552e+00
2.487263405255287552e+00
2.284944730979339145e+00
2.284944730979339145e+00
2.244443494979705633e+00
2.244443494979705633e+00
2.224005371257667729e+00
2.224005371257667729e+00
2.221755302591021497e+00
2.221755302591021497e+00
2.278007019257179522e+00
2.278007019257179522e+00
2.300882717368083696e+00
2.300882717368083696e+00
2.300882717368083696e+00
2.411886104922635443e+00
2.411886104922635443e+00
2.252318735312967224e+00
2.252318735312967224e+00
2.313258095034638639e+00
2.313258095034638639e+00
2.349634205145421095e+00
2.349634205145421095e+00
2.296945097201452679e+00
2.296945097201452679e+00
2.134565141758476781e+00
2.134565141758476781e+00
2.330508621478927012e+00
2.330508621478927012e+00
2.542577593310342721e+00
2.542577593310342721e+00
2.542577593310342721e+00
2.304820337534714714e+00
2.304820337534714714e+00
2.269006744590594149e+00
2.269006744590594149e+00
2.202629718924527857e+00
2.202629718924527857e+00
2.180879055146946577e+00
2.180879055146946577e+00
2.219692739646595747e+00
2.219692739646595747e+00
2.299195165868098911e+00
2.299195165868098911e+00
2.318883266701254442e+00
2.318883266701254442e+00
2.179379009369182274e+00
2.179379009369182274e+00
2.179379009369182274e+00
2.167003631702627775e+00
2.167003631702627775e+00
2.220067751091036712e+00
2.220067751091036712e+00
2.168316171758171151e+00
2.168316171758171151e+00
2.065750541703543330e+00
2.065750541703543330e+00
2.429699148533585706e+00
2.429699148533585706e+00
2.426511551255836618e+00
2.426511551255836618e+00
2.287757316812646824e+00
2.287757316812646824e+00
2.269194250312814631e+00
2.269194250312814631e+00
2.269194250312814631e+00
2.253818781090731527e+00
2.253818781090731527e+00
2.267319193090609808e+00
2.267319193090609808e+00
2.308570451979125249e+00
2.308570451979125249e+00
2.431011688589129527e+00
2.431011688589129527e+00
2.332571184423352761e+00
2.332571184423352761e+00
2.269569261757255596e+00
2.269569261757255596e+00
2.252881252479629115e+00
2.252881252479629115e+00
2.278194524979400004e+00
2.278194524979400004e+00
2.278194524979400004e+00
2.129877498702963390e+00
2.129877498702963390e+00
2.108126834925382109e+00
2.108126834925382109e+00
2.539014984588152668e+00
2.539014984588152668e+00
2.346259102145451525e+00
2.346259102145451525e+00
2.268631733146153184e+00
2.268631733146153184e+00
2.231693105868709726e+00
2.231693105868709726e+00
2.196817041535691573e+00
2.196817041535691573e+00
2.191379375591296252e+00
2.191379375591296252e+00
2.191379375591296252e+00
2.204692281868953607e+00
2.204692281868953607e+00
2.374759971922971058e+00
2.374759971922971058e+00
2.234505691702016961e+00
2.234505691702016961e+00
2.242755943479720404e+00
2.242755943479720404e+00
2.261881527146214044e+00
2.261881527146214044e+00
2.295820062868129341e+00
2.295820062868129341e+00
2.147315530869472244e+00
2.147315530869472244e+00
2.305195348979155678e+00
2.305195348979155678e+00
2.617204870754112456e+00
2.617204870754112456e+00
2.375322489089632505e+00
2.375322489089632505e+00
2.375322489089632505e+00
2.369884823145237629e+00
2.369884823145237629e+00
2.310445509201330516e+00
2.310445509201330516e+00
2.246318552201910457e+00
2.246318552201910457e+00
2.208817407757805107e+00
2.208817407757805107e+00
2.208442396313364142e+00
2.208442396313364142e+00
2.277069490646077110e+00
2.277069490646077110e+00
2.131940061647389140e+00
2.131940061647389140e+00
2.135315164647358710e+00
2.135315164647358710e+00
2.135315164647358710e+00
2.166441114535965884e+00
2.166441114535965884e+00
2.122189764091921838e+00
2.122189764091921838e+00
2.030874477370525177e+00
2.030874477370525177e+00
2.350946745200964472e+00
2.350946745200964472e+00
2.442262031922361132e+00
2.442262031922361132e+00
2.291132419812616394e+00
2.291132419812616394e+00
2.320195806756797818e+00
2.320195806756797818e+00
2.312508072145756710e+00
2.312508072145756710e+00
2.330321115756706529e+00
2.330321115756706529e+00
2.330321115756706529e+00
2.359759514145329362e+00
2.359759514145329362e+00
2.423511459700308013e+00
2.423511459700308013e+00
2.368947294534135217e+00
2.368947294534135217e+00
2.273881893368328022e+00
2.273881893368328022e+00
2.260006469924008776e+00
2.260006469924008776e+00
2.282132145146031021e+00
2.282132145146031021e+00
2.153128208258308529e+00
2.153128208258308529e+00
2.153128208258308529e+00
2.055062715536973172e+00
2.055062715536973172e+00
2.489513473921933784e+00
2.489513473921933784e+00
2.358634479812006024e+00
2.358634479812006024e+00
2.238068300424207457e+00
2.238068300424207457e+00
2.251943723868526259e+00
2.251943723868526259e+00
2.240505874813074172e+00
2.240505874813074172e+00
2.283069673757133433e+00
2.283069673757133433e+00
2.321133335367900674e+00
2.321133335367900674e+00
2.466262764366588645e+00
2.466262764366588645e+00
2.320758323923459709e+00
2.320758323923459709e+00
2.320758323923459709e+00
2.234693197424237443e+00
2.234693197424237443e+00
2.189316812646870059e+00
2.189316812646870059e+00
2.247443586535233351e+00
2.247443586535233351e+00
2.063125461592455689e+00
2.063125461592455689e+00
2.136815210425123013e+00
2.136815210425123013e+00
2.579703726310007106e+00
2.579703726310007106e+00
2.347759147923215384e+00
2.347759147923215384e+00
2.241068391979735619e+00
2.241068391979735619e+00
2.205254799035615054e+00
2.205254799035615054e+00
2.225505417035432032e+00
2.225505417035432032e+00
2.225505417035432032e+00
2.189879329813531950e+00
2.189879329813531950e+00
2.165691091647083955e+00
2.165691091647083955e+00
2.322258369701224012e+00
2.322258369701224012e+00
2.177878963591417971e+00
2.177878963591417971e+00
2.187441755424664791e+00
2.187441755424664791e+00
2.249881160924100509e+00
2.249881160924100509e+00
2.257381389812921579e+00
2.257381389812921579e+00
2.104564226203192501e+00
2.104564226203192501e+00
2.333696218756676100e+00
2.333696218756676100e+00
2.333696218756676100e+00
2.550077822199164235e+00
2.550077822199164235e+00
2.359196996978667915e+00
2.359196996978667915e+00
2.355446882534256936e+00
2.355446882534256936e+00
2.312133060701315301e+00
2.312133060701315301e+00
2.271444318979460864e+00
2.271444318979460864e+00
2.238630817590868904e+00
2.238630817590868904e+00
2.278194524979400004e+00
2.278194524979400004e+00
2.278194524979400004e+00
2.321320841090121156e+00
2.321320841090121156e+00
2.121252235480818982e+00
2.121252235480818982e+00
2.043812372203741567e+00
2.043812372203741567e+00
2.053937681203650278e+00
2.053937681203650278e+00
2.006498733481856700e+00
2.006498733481856700e+00
1.938809167760246588e+00
1.938809167760246588e+00
2.367072237311929506e+00
2.367072237311929506e+00
2.366134708700827094e+00
2.366134708700827094e+00
2.268631733146153184e+00
2.268631733146153184e+00
2.268631733146153184e+00
2.326008484145634547e+00
2.326008484145634547e+00
2.326008484145634547e+00
2.326008484145634547e+00
2.356384411145359792e+00
2.356384411145359792e+00
2.431949217200232383e+00
2.431949217200232383e+00
2.553077913754691952e+00
2.553077913754691952e+00
2.449199743644520311e+00
2.449199743644520311e+00
2.284757225257118218e+00
2.284757225257118218e+00
2.204504776146733125e+00
2.204504776146733125e+00
2.204504776146733125e+00
2.211629993591112786e+00
2.211629993591112786e+00
2.084501113925596005e+00
2.084501113925596005e+00
2.090126285592211808e+00
2.090126285592211808e+00
2.537889950254829774e+00
2.537889950254829774e+00
2.307820429090243319e+00
2.307820429090243319e+00
2.210129947813348927e+00
2.210129947813348927e+00
2.179566515091402756e+00
2.179566515091402756e+00
2.162315988647114828e+00
2.162315988647114828e+00
2.205817316202276945e+00
2.205817316202276945e+00
2.205817316202276945e+00
2.247631092257453833e+00
2.247631092257453833e+00
2.406635944700461049e+00
2.406635944700461049e+00
2.218380199591051927e+00
2.218380199591051927e+00
2.188754295480208611e+00
2.188754295480208611e+00
2.191566881313516735e+00
2.191566881313516735e+00
2.240318369090853690e+00
2.240318369090853690e+00
2.139815301980651618e+00
2.139815301980651618e+00
2.382072695089572090e+00
2.382072695089572090e+00
2.382072695089572090e+00
2.723708120975371738e+00
2.723708120975371738e+00
2.515389263588366120e+00
2.515389263588366120e+00
2.465137730033265306e+00
2.465137730033265306e+00
2.399885738700521909e+00
2.399885738700521909e+00
2.340258919034394314e+00
2.340258919034394314e+00
2.305570360423596643e+00
2.305570360423596643e+00
2.306507889034699499e+00
2.306507889034699499e+00
2.372509903256325270e+00
2.372509903256325270e+00
2.372509903256325270e+00
2.218380199591051927e+00
2.218380199591051927e+00
2.230568071535386387e+00
2.230568071535386387e+00
2.291882442701498768e+00
2.291882442701498768e+00
2.208629902035584625e+00
2.208629902035584625e+00
2.072875759147922992e+00
2.072875759147922992e+00
2.352634296700948813e+00
2.352634296700948813e+00
2.421261391033662225e+00
2.421261391033662225e+00
2.229255531479842567e+00
2.229255531479842567e+00
2.229255531479842567e+00
2.229068025757622085e+00
2.229068025757622085e+00
2.183129123813593253e+00
2.183129123813593253e+00
2.169816217535935454e+00
2.169816217535935454e+00
2.181441572313608468e+00
2.181441572313608468e+00
2.258506424146244473e+00
2.258506424146244473e+00
2.251568712424085295e+00
2.251568712424085295e+00
2.204317270424512643e+00
2.204317270424512643e+00
2.216692648091067142e+00
2.216692648091067142e+00
2.216692648091067142e+00
2.264694112979522167e+00
2.264694112979522167e+00
2.168878688924833043e+00
2.168878688924833043e+00
2.124064821314127105e+00
2.124064821314127105e+00
2.548577776421399932e+00
2.548577776421399932e+00
2.351696768089846401e+00
2.351696768089846401e+00
2.240318369090853690e+00
2.240318369090853690e+00
2.294882534257026929e+00
2.294882534257026929e+00
2.310445509201330516e+00
2.310445509201330516e+00
2.357509445478682686e+00
2.357509445478682686e+00
2.408135990478225352e+00
2.408135990478225352e+00
2.408135990478225352e+00
2.586453932309945802e+00
2.586453932309945802e+00
2.433074251533554833e+00
2.433074251533554833e+00
2.311945554979094819e+00
2.311945554979094819e+00
2.140940336313974068e+00
2.140940336313974068e+00
2.066125553147984295e+00
2.066125553147984295e+00
1.854994109927671220e+00
1.854994109927671220e+00
1.947059419537949809e+00
1.947059419537949809e+00
2.365384685811944721e+00
2.365384685811944721e+00
2.365384685811944721e+00
2.157815851313821920e+00
2.157815851313821920e+00
2.146940519425031280e+00
2.146940519425031280e+00
2.204504776146733125e+00
2.204504776146733125e+00
2.245193517868587563e+00
2.245193517868587563e+00
2.366884731589709023e+00
2.366884731589709023e+00
2.410573564867091623e+00
2.410573564867091623e+00
2.465512741477706271e+00
2.465512741477706271e+00
2.203754753257850751e+00
2.203754753257850751e+00
2.203754753257850751e+00
2.191191869869075770e+00
2.191191869869075770e+00
2.201692190313425002e+00
2.201692190313425002e+00
2.120877224036378017e+00
2.120877224036378017e+00
1.938059144871364436e+00
1.938059144871364436e+00
2.284569719534897736e+00
2.284569719534897736e+00
2.511639149143956029e+00
2.511639149143956029e+00
2.299007660145878429e+00
2.299007660145878429e+00
2.299007660145878429e+00
2.299007660145878429e+00
2.299007660145878429e+00
2.316445692312387283e+00
2.316445692312387283e+00
2.290194891201513983e+00
2.290194891201513983e+00
2.367822260200811879e+00
2.367822260200811879e+00
2.515951780755027567e+00
2.515951780755027567e+00
2.532077272865993045e+00
2.532077272865993045e+00
2.366884731589709023e+00
2.366884731589709023e+00
2.321508346812341639e+00
2.321508346812341639e+00
2.333883724478896582e+00
2.333883724478896582e+00
2.201504684591204519e+00
2.201504684591204519e+00
2.201504684591204519e+00
2.076813379314554453e+00
2.076813379314554453e+00
2.410198553422650658e+00
2.410198553422650658e+00
2.346634113589892490e+00
2.346634113589892490e+00
2.209567430646687480e+00
2.209567430646687480e+00
2.233005645924253102e+00
2.233005645924253102e+00
2.221005279702139568e+00
2.221005279702139568e+00
2.168128666035950669e+00
2.168128666035950669e+00
2.175441389202551257e+00
2.175441389202551257e+00
2.307257911923581428e+00
2.307257911923581428e+00
2.307257911923581428e+00
2.227942991424298746e+00
2.227942991424298746e+00
2.250256172368541474e+00
2.250256172368541474e+00
2.280819605090487201e+00
2.280819605090487201e+00
2.259818964201788294e+00
2.259818964201788294e+00
2.010436353648488161e+00
2.010436353648488161e+00
1.945371868037965024e+00
1.945371868037965024e+00
2.385635303811762142e+00
2.385635303811762142e+00
2.227755485702078264e+00
2.227755485702078264e+00
2.227755485702078264e+00
2.216692648091067142e+00
2.216692648091067142e+00
2.266194158757286470e+00
2.266194158757286470e+00
2.298445142979216982e+00
2.298445142979216982e+00
2.318320749534592551e+00
2.318320749534592551e+00
2.385822809533982625e+00
2.385822809533982625e+00
2.666143864253669893e+00
2.666143864253669893e+00
2.515201757866145638e+00
2.515201757866145638e+00
2.323758415478988315e+00
2.323758415478988315e+00
2.323758415478988315e+00
2.120127201147496088e+00
2.120127201147496088e+00
2.168691183202612560e+00
2.168691183202612560e+00
2.088438734092227023e+00
2.088438734092227023e+00
2.242943449201941331e+00
2.242943449201941331e+00
2.488950956755272337e+00
2.488950956755272337e+00
2.242755943479720404e+00
2.242755943479720404e+00
2.267131687368389326e+00
2.267131687368389326e+00
2.274819421979430434e+00
2.274819421979430434e+00
2.274819421979430434e+00
2.247443586535233351e+00
2.247443586535233351e+00
2.317945738090151586e+00
2.317945738090151586e+00
2.424261482589190386e+00
2.424261482589190386e+00
2.510889126255073656e+00
2.510889126255073656e+00
2.347384136478774419e+00
2.347384136478774419e+00
2.300882717368083696e+00
2.300882717368083696e+00
2.240693380535294654e+00
2.240693380535294654e+00
2.186316721091342341e+00
2.186316721091342341e+00
2.186316721091342341e+00
2.089938779869991325e+00
2.089938779869991325e+00
2.408323496200445835e+00
2.408323496200445835e+00
2.489138462477492819e+00
2.489138462477492819e+00
2.232443128757591655e+00
2.232443128757591655e+00
2.098376537369914807e+00
2.098376537369914807e+00
2.037812189092684800e+00
2.037812189092684800e+00
2.040624774925992480e+00
2.040624774925992480e+00
2.165691091647083955e+00
2.165691091647083955e+00
2.165691091647083955e+00
2.418073793755913137e+00
2.418073793755913137e+00
2.578016174810022321e+00
2.578016174810022321e+00
2.484075807977538464e+00
2.484075807977538464e+00
2.210317453535568966e+00
2.210317453535568966e+00
2.010623859370708644e+00
2.010623859370708644e+00
1.730302804651020931e+00
1.730302804651020931e+00
1.733302896206549315e+00
1.733302896206549315e+00
2.411136082033753514e+00
2.411136082033753514e+00
2.411136082033753514e+00
2.452762352366710363e+00
2.452762352366710363e+00
2.384510269478438804e+00
2.384510269478438804e+00
2.134940153202917745e+00
2.134940153202917745e+00
1.917433515427106494e+00
1.917433515427106494e+00
1.894557817316202319e+00
1.894557817316202319e+00
1.978372875148777910e+00
1.978372875148777910e+00
2.180691549424726094e+00
2.180691549424726094e+00
2.163253517258217240e+00
2.163253517258217240e+00
2.163253517258217240e+00
2.399135715811639535e+00
2.399135715811639535e+00
2.500388805810724424e+00
2.500388805810724424e+00
2.595079195532090210e+00
2.595079195532090210e+00
2.480138187810907002e+00
2.480138187810907002e+00
2.487450910977508034e+00
2.487450910977508034e+00
2.721083040864284097e+00
2.721083040864284097e+00
2.399510727256080500e+00
2.399510727256080500e+00
2.337821344645527599e+00
2.337821344645527599e+00
2.276131962034974254e+00
2.276131962034974254e+00
2.276131962034974254e+00
2.321133335367900674e+00
2.321133335367900674e+00
2.493638599810785283e+00
2.493638599810785283e+00
2.637267983031708951e+00
2.637267983031708951e+00
2.721833063753166471e+00
2.721833063753166471e+00
2.371197363200781449e+00
2.371197363200781449e+00
1.993560838648640532e+00
1.993560838648640532e+00
1.682488845484786610e+00
1.682488845484786610e+00
1.528171636097293007e+00
1.528171636097293007e+00
1.528171636097293007e+00
1.430856166264839580e+00
1.430856166264839580e+00
1.940684224982451855e+00
1.940684224982451855e+00
2.469450361644337288e+00
2.469450361644337288e+00
2.465512741477706271e+00
2.465512741477706271e+00
2.516889309366130423e+00
2.516889309366130423e+00
2.458012512588885201e+00
2.458012512588885201e+00
2.402698324533829588e+00
2.402698324533829588e+00
2.370447340311899076e+00
2.370447340311899076e+00
2.393323038422803695e+00
2.393323038422803695e+00
2.393323038422803695e+00
2.460262581255531433e+00
2.460262581255531433e+00
2.396510635700552783e+00
2.396510635700552783e+00
2.436074343089083438e+00
2.436074343089083438e+00
2.518201849421674243e+00
2.518201849421674243e+00
2.357134434034241721e+00
2.357134434034241721e+00
2.194754478591265823e+00
2.194754478591265823e+00
2.501701345866268245e+00
2.501701345866268245e+00
2.501701345866268245e+00
2.215380108035523765e+00
2.215380108035523765e+00
1.807742667928098568e+00
1.807742667928098568e+00
1.773616626483962344e+00
1.773616626483962344e+00
1.895682851649525658e+00
1.895682851649525658e+00
2.091626331369976111e+00
2.091626331369976111e+00
2.273506881923887057e+00
2.273506881923887057e+00
2.556453016754661967e+00
2.556453016754661967e+00
2.522701986754967152e+00
2.522701986754967152e+00
2.522701986754967152e+00
2.487450910977508034e+00
2.487450910977508034e+00
2.490263496810816157e+00
2.490263496810816157e+00
2.439636951811273491e+00
2.439636951811273491e+00
2.194941984313486305e+00
2.194941984313486305e+00
2.176941434980315559e+00
2.176941434980315559e+00
2.549702810754722826e+00
2.549702810754722826e+00
2.241255897701956545e+00
2.241255897701956545e+00
2.233755668813135031e+00
2.233755668813135031e+00
2.233755668813135031e+00
2.336133793145542814e+00
2.336133793145542814e+00
2.403823358867152926e+00
2.403823358867152926e+00
2.446387157811212187e+00
2.446387157811212187e+00
2.390322946867275089e+00
2.390322946867275089e+00
2.326008484145634547e+00
2.326008484145634547e+00
2.094813928647724754e+00
2.094813928647724754e+00
1.993748344370861014e+00
1.993748344370861014e+00
2.016624042481765411e+00
2.016624042481765411e+00
2.016624042481765411e+00
2.027311868648335125e+00
2.027311868648335125e+00
1.766303903317361979e+00
1.766303903317361979e+00
1.950059511093478193e+00
1.950059511093478193e+00
2.202629718924527857e+00
2.202629718924527857e+00
2.101751640369884377e+00
2.101751640369884377e+00
2.191754387035737217e+00
2.191754387035737217e+00
2.485950865199743731e+00
2.485950865199743731e+00
2.731208349864192808e+00
2.731208349864192808e+00
2.731208349864192808e+00
2.829273842585528165e+00
2.829273842585528165e+00
2.830211371196631021e+00
2.830211371196631021e+00
2.431761711478011456e+00
2.431761711478011456e+00
1.912370860927152361e+00
1.912370860927152361e+00
1.841306192205572678e+00
1.841306192205572678e+00
1.943684316537980239e+00
1.943684316537980239e+00
2.066313058870204777e+00
2.066313058870204777e+00
2.233005645924253102e+00
2.233005645924253102e+00
2.233005645924253102e+00
2.658081118198186932e+00
2.658081118198186932e+00
2.545765190588091809e+00
2.545765190588091809e+00
2.211254982146671821e+00
2.211254982146671821e+00
2.225880428479872997e+00
2.225880428479872997e+00
2.134002624591814889e+00
2.134002624591814889e+00
2.039687246314890068e+00
2.039687246314890068e+00
2.146565507980590315e+00
2.146565507980590315e+00
2.146565507980590315e+00
2.315508163701284872e+00
2.315508163701284872e+00
2.028249397259437981e+00
2.028249397259437981e+00
1.852369029816583801e+00
1.852369029816583801e+00
2.060312875759148010e+00
2.060312875759148010e+00
2.213880062257759462e+00
2.213880062257759462e+00
2.290569902645954947e+00
2.290569902645954947e+00
2.348509170812097757e+00
2.348509170812097757e+00
2.777897274697104013e+00
2.777897274697104013e+00
2.611204687643055244e+00
2.611204687643055244e+00
2.611204687643055244e+00
2.513701712088381779e+00
2.513701712088381779e+00
2.486138370921964214e+00
2.486138370921964214e+00
2.308195440534684284e+00
2.308195440534684284e+00
2.162878505813776275e+00
2.162878505813776275e+00
2.214067567979979945e+00
2.214067567979979945e+00
2.435699331644642474e+00
2.435699331644642474e+00
2.274444410534989469e+00
2.274444410534989469e+00
2.274444410534989469e+00
2.131940061647389140e+00
2.131940061647389140e+00
2.120877224036378017e+00
2.120877224036378017e+00
2.042312326425977265e+00
2.042312326425977265e+00
1.812430310983611736e+00
1.812430310983611736e+00
1.893245277260658721e+00
1.893245277260658721e+00
2.198879604480116878e+00
2.198879604480116878e+00
2.003873653370769503e+00
2.003873653370769503e+00
2.019061616870632125e+00
2.019061616870632125e+00
2.247256080813012868e+00
2.247256080813012868e+00
2.448637226477858864e+00
2.448637226477858864e+00
2.448637226477858864e+00
2.596766747032074996e+00
2.596766747032074996e+00
2.477700613422040732e+00
2.477700613422040732e+00
2.364259651478621826e+00
2.364259651478621826e+00
2.093501388592180934e+00
2.093501388592180934e+00
2.207317361980041248e+00
2.207317361980041248e+00
2.425761528366954689e+00
2.425761528366954689e+00
2.555890499588000075e+00
2.555890499588000075e+00
2.457637501144443792e+00
2.457637501144443792e+00
2.457637501144443792e+00
2.847274391918698466e+00
2.847274391918698466e+00
3.064593523972289457e+00
3.064593523972289457e+00
2.747146336252937804e+00
2.747146336252937804e+00
2.527389629810480098e+00
2.527389629810480098e+00
2.356384411145359792e+00
2.356384411145359792e+00
2.194566972869045340e+00
2.194566972869045340e+00
2.238630817590868904e+00
2.238630817590868904e+00
2.293945005645924073e+00
2.293945005645924073e+00
2.293945005645924073e+00
2.112064455092013571e+00
2.112064455092013571e+00
1.898120426038392372e+00
1.898120426038392372e+00
1.917058503982665529e+00
1.917058503982665529e+00
2.312133060701315301e+00
2.312133060701315301e+00
2.536764915921506436e+00
2.536764915921506436e+00
2.097626514481032878e+00
2.097626514481032878e+00
2.142627887813959298e+00
2.142627887813959298e+00
2.049437543870357370e+00
2.049437543870357370e+00
2.049437543870357370e+00
2.059562852870265637e+00
2.059562852870265637e+00
2.068188116092410045e+00
2.068188116092410045e+00
1.977997863704336723e+00
1.977997863704336723e+00
1.683051362651448057e+00
1.683051362651448057e+00
1.513171178319650867e+00
1.513171178319650867e+00
1.483545274208807774e+00
1.483545274208807774e+00
1.465919736320078215e+00
1.465919736320078215e+00
1.772679097872859932e+00
1.772679097872859932e+00
2.203379741813409787e+00
2.203379741813409787e+00
2.203379741813409787e+00
2.651705923642689200e+00
2.651705923642689200e+00
2.805835627307962543e+00
2.805835627307962543e+00
2.972715720084230906e+00
2.972715720084230906e+00
3.529420209356974869e+00
3.529420209356974869e+00
3.198097598193304414e+00
3.198097598193304414e+00
3.040405285805841462e+00
3.040405285805841462e+00
2.985278603473006331e+00
2.985278603473006331e+00
2.876712790307321743e+00
2.876712790307321743e+00
2.662206244087038876e+00
2.662206244087038876e+00
2.662206244087038876e+00
2.292257454145939732e+00
2.292257454145939732e+00
2.357321939756462204e+00
2.357321939756462204e+00
2.105689260536515395e+00
2.105689260536515395e+00
1.567922849208044811e+00
1.567922849208044811e+00
9.605918149357585145e-01
9.605918149357585145e-01
9.523415631580554042e-01
9.523415631580554042e-01
9.583417462691122823e-01
9.583417462691122823e-01
1.464794701986754877e+00
1.464794701986754877e+00
1.464794701986754877e+00
2.134002624591814889e+00
2.134002624591814889e+00
2.248756126590777171e+00
2.248756126590777171e+00
2.692207159642323155e+00
2.692207159642323155e+00
3.065156041138950904e+00
3.065156041138950904e+00
3.061780938138981334e+00
3.061780938138981334e+00
3.073031281472212939e+00
3.073031281472212939e+00
3.048655537583544461e+00
3.048655537583544461e+00
2.941589770195623732e+00
2.941589770195623732e+00
2.941589770195623732e+00
2.640643086031678521e+00
2.640643086031678521e+00
2.491201025421918569e+00
2.491201025421918569e+00
2.351509262367625919e+00
2.351509262367625919e+00
2.054687704092532208e+00
2.054687704092532208e+00
1.874119693594164859e+00
1.874119693594164859e+00
2.230943082979827352e+00
2.230943082979827352e+00
2.210504959257789892e+00
2.210504959257789892e+00
1.975185277871028822e+00
1.975185277871028822e+00
1.975185277871028822e+00
2.040812280648213406e+00
2.040812280648213406e+00
2.166253608813745402e+00
2.166253608813745402e+00
2.112626972258675018e+00
2.112626972258675018e+00
2.240880886257515137e+00
2.240880886257515137e+00
2.592079103976562049e+00
2.592079103976562049e+00
2.544077639088107023e+00
2.544077639088107023e+00
2.477138096255378841e+00
2.477138096255378841e+00
2.381322672200689716e+00
2.381322672200689716e+00
2.313445600756859122e+00
2.313445600756859122e+00
2.313445600756859122e+00
1.977247840815454571e+00
1.977247840815454571e+00
1.857244178594317452e+00
1.857244178594317452e+00
2.305570360423596643e+00
2.305570360423596643e+00
2.083751091036713632e+00
2.083751091036713632e+00
1.903933103427228657e+00
1.903933103427228657e+00
2.047749992370372585e+00
2.047749992370372585e+00
2.375885006256294396e+00
2.375885006256294396e+00
2.454074892422254184e+00
2.454074892422254184e+00
2.350571733756523507e+00
2.350571733756523507e+00
2.491951048310800498e+00
2.491951048310800498e+00
2.491951048310800498e+00
2.328258552812280335e+00
2.328258552812280335e+00
2.302757774590289408e+00
2.302757774590289408e+00
2.402885830256050514e+00
2.402885830256050514e+00
2.695019745475630835e+00
2.695019745475630835e+00
2.701769951475569975e+00
2.701769951475569975e+00
2.779209814752647389e+00
2.779209814752647389e+00
2.840899197363201178e+00
2.840899197363201178e+00
2.376447523422955843e+00
2.376447523422955843e+00
2.376447523422955843e+00
2.287382305368205859e+00
2.287382305368205859e+00
2.209567430646687480e+00
2.209567430646687480e+00
2.142815393536179780e+00
2.142815393536179780e+00
2.129502487258521981e+00
2.129502487258521981e+00
2.113189489425336465e+00
2.113189489425336465e+00
2.243880977813043742e+00
2.243880977813043742e+00
2.096126468703268575e+00
2.096126468703268575e+00
2.137002716147343495e+00
2.137002716147343495e+00
2.195879512924588717e+00
2.195879512924588717e+00
2.195879512924588717e+00
2.181629078035828950e+00
2.181629078035828950e+00
2.073438276314584883e+00
2.073438276314584883e+00
2.214255073702200427e+00
2.214255073702200427e+00
2.156128299813837135e+00
2.156128299813837135e+00
2.011936399426252020e+00
2.011936399426252020e+00
2.053000152592547423e+00
2.053000152592547423e+00
2.071000701925717724e+00
2.071000701925717724e+00
2.072125736259041062e+00
2.072125736259041062e+00
2.072125736259041062e+00
2.233380657368694511e+00
2.233380657368694511e+00
2.512576677755058441e+00
2.512576677755058441e+00
2.627330179754020723e+00
2.627330179754020723e+00
2.486138370921964214e+00
2.486138370921964214e+00
2.306507889034699499e+00
2.306507889034699499e+00
2.180691549424726094e+00
2.180691549424726094e+00
2.017749076815088305e+00
2.017749076815088305e+00
1.829680837427900109e+00
1.829680837427900109e+00
1.829680837427900109e+00
2.328258552812280335e+00
2.328258552812280335e+00
2.519889400921659028e+00
2.519889400921659028e+00
2.451449812311166987e+00
2.451449812311166987e+00
2.503013885921811621e+00
2.503013885921811621e+00
2.320570818201239227e+00
2.320570818201239227e+00
2.066500564592425260e+00
2.066500564592425260e+00
2.109626880703146412e+00
2.109626880703146412e+00
2.368572283089693808e+00
2.368572283089693808e+00
2.368572283089693808e+00
2.359384502700888397e+00
2.359384502700888397e+00
2.360509537034211291e+00
2.360509537034211291e+00
2.281944639423810539e+00
2.281944639423810539e+00
2.310633014923550999e+00
2.310633014923550999e+00
2.102501663258766751e+00
2.102501663258766751e+00
1.908995757927182790e+00
1.908995757927182790e+00
2.273506881923887057e+00
2.273506881923887057e+00
2.035187108981597159e+00
2.035187108981597159e+00
2.035187108981597159e+00
1.947059419537949809e+00
1.947059419537949809e+00
1.922308664204840145e+00
1.922308664204840145e+00
2.046812463759269729e+00
2.046812463759269729e+00
2.302570268868068482e+00
2.302570268868068482e+00
2.564890774254585448e+00
2.564890774254585448e+00
2.807148167363506364e+00
2.807148167363506364e+00
2.586828943754386767e+00
2.586828943754386767e+00
2.431386700033570492e+00
2.431386700033570492e+00
2.431386700033570492e+00
2.387697866756187448e+00
2.387697866756187448e+00
2.347009125034333454e+00
2.347009125034333454e+00
1.947996948149052443e+00
1.947996948149052443e+00
2.050750083925901190e+00
2.050750083925901190e+00
2.429324137089144742e+00
2.429324137089144742e+00
2.321320841090121156e+00
2.321320841090121156e+00
2.363134617145298488e+00
2.363134617145298488e+00
2.495138645588549586e+00
2.495138645588549586e+00
2.495138645588549586e+00
2.633142857142857007e+00
2.633142857142857007e+00
2.574453566087832268e+00
2.574453566087832268e+00
2.497763725699636783e+00
2.497763725699636783e+00
2.535639881588183542e+00
2.535639881588183542e+00
2.395948118533890892e+00
2.395948118533890892e+00
2.259068941312906365e+00
2.259068941312906365e+00
2.038749717703787212e+00
2.038749717703787212e+00
1.857431684316537934e+00
1.857431684316537934e+00
1.857431684316537934e+00
1.776241706595049985e+00
1.776241706595049985e+00
2.131565050202948175e+00
2.131565050202948175e+00
2.130627521591845319e+00
2.130627521591845319e+00
2.120502212591937052e+00
2.120502212591937052e+00
2.419386333811456957e+00
2.419386333811456957e+00
2.509576586199530279e+00
2.509576586199530279e+00
2.504513931699575480e+00
2.504513931699575480e+00
2.476950590533158358e+00
2.476950590533158358e+00
2.484825830866420393e+00
2.484825830866420393e+00
2.484825830866420393e+00
2.281944639423810539e+00
2.281944639423810539e+00
2.166628620258186366e+00
2.166628620258186366e+00
2.094251411481063307e+00
2.094251411481063307e+00
2.068938138981292418e+00
2.068938138981292418e+00
1.972747703482162107e+00
1.972747703482162107e+00
2.059750358592486119e+00
2.059750358592486119e+00
2.623767571031830670e+00
2.623767571031830670e+00
2.528889675588243957e+00
2.528889675588243957e+00
2.528889675588243957e+00
2.446949674977874079e+00
2.446949674977874079e+00
2.486888393810846587e+00
2.486888393810846587e+00
2.525139561143833866e+00
2.525139561143833866e+00
2.482388256477553679e+00
2.482388256477553679e+00
2.374197454756310055e+00
2.374197454756310055e+00
2.450324777977843649e+00
2.450324777977843649e+00
2.304445326090273749e+00
2.304445326090273749e+00
2.258693929868464956e+00
2.258693929868464956e+00
2.213317545091097571e+00
2.213317545091097571e+00
2.213317545091097571e+00
2.257006378368480615e+00
2.257006378368480615e+00
1.977997863704336723e+00
1.977997863704336723e+00
1.965997497482223189e+00
1.965997497482223189e+00
2.301632740256966070e+00
2.301632740256966070e+00
2.130440015869624837e+00
2.130440015869624837e+00
2.075688344981231115e+00
2.075688344981231115e+00
1.989810724204229997e+00
1.989810724204229997e+00
1.990748252815332409e+00
1.990748252815332409e+00
1.990748252815332409e+00
2.078500930814539238e+00
2.078500930814539238e+00
2.114127018036439321e+00
2.114127018036439321e+00
2.316445692312387283e+00
2.316445692312387283e+00
2.273694387646107540e+00
2.273694387646107540e+00
2.401573290200506694e+00
2.401573290200506694e+00
2.554765465254677181e+00
2.554765465254677181e+00
2.270506790368358452e+00
2.270506790368358452e+00
2.270506790368358452e+00
1.868119510483107870e+00
1.868119510483107870e+00
2.050562578203680708e+00
2.050562578203680708e+00
2.248193609424115724e+00
2.248193609424115724e+00
2.137002716147343495e+00
2.137002716147343495e+00
2.178066469313638454e+00
2.178066469313638454e+00
2.262444044312875935e+00
2.262444044312875935e+00
2.375509994811853431e+00
2.375509994811853431e+00
2.415823725089266905e+00
2.415823725089266905e+00
2.415823725089266905e+00
2.567328348643452163e+00
2.567328348643452163e+00
2.710207708975493901e+00
2.710207708975493901e+00
2.665206335642567481e+00
2.665206335642567481e+00
2.639705557420575666e+00
2.639705557420575666e+00
2.432511734366893830e+00
2.432511734366893830e+00
2.113564500869777874e+00
2.113564500869777874e+00
1.939746696371349222e+00
1.939746696371349222e+00
2.332758690145573244e+00
2.332758690145573244e+00
2.332758690145573244e+00
2.240880886257515137e+00
2.240880886257515137e+00
2.222505325479903426e+00
2.222505325479903426e+00
2.369884823145237629e+00
2.369884823145237629e+00
2.444512100589007364e+00
2.444512100589007364e+00
2.398948210089419053e+00
2.398948210089419053e+00
2.261131504257332114e+00
2.261131504257332114e+00
2.242755943479720404e+00
2.242755943479720404e+00
2.014373973815118735e+00
2.014373973815118735e+00
2.014373973815118735e+00
1.877307290871913947e+00
1.877307290871913947e+00
1.935246559038056535e+00
1.935246559038056535e+00
2.074563310647907777e+00
2.074563310647907777e+00
2.104001709036531054e+00
2.104001709036531054e+00
2.299570177312540320e+00
2.299570177312540320e+00
2.753521530808435092e+00
2.753521530808435092e+00
2.496451185644092963e+00
2.496451185644092963e+00
2.378510086367381593e+00
2.378510086367381593e+00
2.378510086367381593e+00
2.371197363200781449e+00
2.371197363200781449e+00
2.327321024201178368e+00
2.327321024201178368e+00
2.335571275978881367e+00
2.335571275978881367e+00
2.386947843867305519e+00
2.386947843867305519e+00
2.542577593310342721e+00
2.542577593310342721e+00
2.384697775200659287e+00
2.384697775200659287e+00
2.294132511368144556e+00
2.294132511368144556e+00
2.210879970702230857e+00
2.210879970702230857e+00
2.210879970702230857e+00
2.150128116702780368e+00
2.150128116702780368e+00
1.971060151982177322e+00
1.971060151982177322e+00
2.146190496536149350e+00
2.146190496536149350e+00
2.351509262367625919e+00
2.351509262367625919e+00
2.120877224036378017e+00
2.120877224036378017e+00
2.169628711813714972e+00
2.169628711813714972e+00
2.271069307535019899e+00
2.271069307535019899e+00
2.343446516312143402e+00
2.343446516312143402e+00
2.389010406811731269e+00
2.389010406811731269e+00
2.410198553422650658e+00
2.410198553422650658e+00
2.410198553422650658e+00
2.400073244422742391e+00
2.400073244422742391e+00
2.155940794091616652e+00
2.155940794091616652e+00
2.053750175481429796e+00
2.053750175481429796e+00
2.044374889370403459e+00
2.044374889370403459e+00
1.967122531815546083e+00
1.967122531815546083e+00
1.943871822260200721e+00
1.943871822260200721e+00
2.370634846034120002e+00
2.370634846034120002e+00
2.428011597033600921e+00
2.428011597033600921e+00
2.428011597033600921e+00
2.338758873256630455e+00
2.338758873256630455e+00
2.487263405255287552e+00
2.487263405255287552e+00
2.595829218420972584e+00
2.595829218420972584e+00
2.557765556810205343e+00
2.557765556810205343e+00
2.438699423200171079e+00
2.438699423200171079e+00
2.515389263588366120e+00
2.515389263588366120e+00
2.424261482589190386e+00
2.424261482589190386e+00
2.312320566423536228e+00
2.312320566423536228e+00
2.312320566423536228e+00
2.253818781090731527e+00
2.253818781090731527e+00
2.241630909146397510e+00
2.241630909146397510e+00
2.101751640369884377e+00
2.101751640369884377e+00
2.040062257759331033e+00
2.040062257759331033e+00
2.438699423200171079e+00
2.438699423200171079e+00
2.225317911313211550e+00
2.225317911313211550e+00
2.121814752647480873e+00
2.121814752647480873e+00
2.079625965147862576e+00
2.079625965147862576e+00
2.079625965147862576e+00
2.000123538926358524e+00
2.000123538926358524e+00
2.002186101870784718e+00
2.002186101870784718e+00
2.125939878536332373e+00
2.125939878536332373e+00
2.433824274422437206e+00
2.433824274422437206e+00
2.269756767479476078e+00
2.269756767479476078e+00
2.232068117313150690e+00
2.232068117313150690e+00
2.272944364757225166e+00
2.272944364757225166e+00
2.378322580645161111e+00
2.378322580645161111e+00
2.187254249702444309e+00
2.187254249702444309e+00
2.187254249702444309e+00
2.341196447645496725e+00
2.341196447645496725e+00
2.691832148197881747e+00
2.691832148197881747e+00
2.269944273201696561e+00
2.269944273201696561e+00
2.085813653981139382e+00
2.085813653981139382e+00
2.116002075258644588e+00
2.116002075258644588e+00
2.206379833368938392e+00
2.206379833368938392e+00
2.178253975035859380e+00
2.178253975035859380e+00
2.124439832758568070e+00
2.124439832758568070e+00
2.127252418591876193e+00
2.127252418591876193e+00
2.127252418591876193e+00
1.880494888149662813e+00
1.880494888149662813e+00
1.920808618427076064e+00
1.920808618427076064e+00
2.008186284981841485e+00
2.008186284981841485e+00
2.147315530869472244e+00
2.147315530869472244e+00
2.188191778313547164e+00
2.188191778313547164e+00
2.592079103976562049e+00
2.592079103976562049e+00
2.885900570696127154e+00
2.885900570696127154e+00
2.885900570696127154e+00
2.814273384807886025e+00
2.814273384807886025e+00
2.698957365642262296e+00
2.698957365642262296e+00
2.392385509811700839e+00
2.392385509811700839e+00
2.209754936368907963e+00
2.209754936368907963e+00
2.157628345591601438e+00
2.157628345591601438e+00
2.221942808313242423e+00
2.221942808313242423e+00
2.252506241035188150e+00
2.252506241035188150e+00
2.268631733146153184e+00
2.268631733146153184e+00
2.399885738700521909e+00
2.399885738700521909e+00
2.399885738700521909e+00
2.523264503921628599e+00
2.523264503921628599e+00
2.382635212256233537e+00
2.382635212256233537e+00
2.173003814813684542e+00
2.173003814813684542e+00
2.505076448866237371e+00
2.505076448866237371e+00
2.263194067201757864e+00
2.263194067201757864e+00
2.070438184759056277e+00
2.070438184759056277e+00
2.078313425092318756e+00
2.078313425092318756e+00
2.087876216925565576e+00
2.087876216925565576e+00
2.087876216925565576e+00
2.196817041535691573e+00
2.196817041535691573e+00
2.312508072145756710e+00
2.312508072145756710e+00
2.500013794366283459e+00
2.500013794366283459e+00
2.325633472701193583e+00
2.325633472701193583e+00
2.224567888424329176e+00
2.224567888424329176e+00
2.218192693868831444e+00
2.218192693868831444e+00
2.278569536423841413e+00
2.278569536423841413e+00
2.163253517258217240e+00
2.163253517258217240e+00
2.235818231757560781e+00
2.235818231757560781e+00
2.609704641865290942e+00
2.609704641865290942e+00
2.300695211645863214e+00
2.300695211645863214e+00
2.192504409924619146e+00
2.192504409924619146e+00
2.192504409924619146e+00
2.146002990813928868e+00
2.146002990813928868e+00
2.119752189703054679e+00
2.119752189703054679e+00
2.164003540147099169e+00
2.164003540147099169e+00
2.272569353312784202e+00
2.272569353312784202e+00
2.531514755699331598e+00
2.531514755699331598e+00
2.405698416089358194e+00
2.405698416089358194e+00
2.402135807367168141e+00
2.402135807367168141e+00
2.409823541978209693e+00
2.409823541978209693e+00
2.366697225867488541e+00
2.366697225867488541e+00
2.366697225867488541e+00
2.085063631092257452e+00
2.085063631092257452e+00
2.126502395702994264e+00
2.126502395702994264e+00
2.321320841090121156e+00
2.321320841090121156e+00
2.093688894314401416e+00
2.093688894314401416e+00
2.099501571703238145e+00
2.099501571703238145e+00
2.196254524369030126e+00
2.196254524369030126e+00
2.284569719534897736e+00
2.284569719534897736e+00
2.403448347422711961e+00
2.403448347422711961e+00
2.403448347422711961e+00
2.506576494644001674e+00
2.506576494644001674e+00
2.542577593310342721e+00
2.542577593310342721e+00
2.305007843256935196e+00
2.305007843256935196e+00
2.151253151036103706e+00
2.151253151036103706e+00
2.195316995757927270e+00
2.195316995757927270e+00
2.193254432813501520e+00
2.193254432813501520e+00
2.114314523758659803e+00
2.114314523758659803e+00
2.392198004089480357e+00
2.392198004089480357e+00
2.392198004089480357e+00
2.308945463423566213e+00
2.308945463423566213e+00
2.148253059480575100e+00
2.148253059480575100e+00
2.124814844203009478e+00
2.124814844203009478e+00
1.972372692037720920e+00
1.972372692037720920e+00
1.914058412427137146e+00
1.914058412427137146e+00
1.865119418927579709e+00
1.865119418927579709e+00
2.017186559648426858e+00
2.017186559648426858e+00
2.121439741203039464e+00
2.121439741203039464e+00
2.121439741203039464e+00
2.280257087923826198e+00
2.280257087923826198e+00
2.439449446089053009e+00
2.439449446089053009e+00
2.556640522476882449e+00
2.556640522476882449e+00
2.397823175756096159e+00
2.397823175756096159e+00
2.302945280312509890e+00
2.302945280312509890e+00
2.721083040864284097e+00
2.721083040864284097e+00
2.461200109866634289e+00
2.461200109866634289e+00
2.372134891811884305e+00
2.372134891811884305e+00
2.372134891811884305e+00
2.384135258033997840e+00
2.384135258033997840e+00
2.263381572923978347e+00
2.263381572923978347e+00
2.150128116702780368e+00
2.150128116702780368e+00
2.062375438703573760e+00
2.062375438703573760e+00
2.088813745536667987e+00
2.088813745536667987e+00
1.929433881649220250e+00
1.929433881649220250e+00
1.955684682760093995e+00
1.955684682760093995e+00
1.971997680593279956e+00
1.971997680593279956e+00
1.971997680593279956e+00
2.132690084536271069e+00
2.132690084536271069e+00
2.228130497146519229e+00
2.228130497146519229e+00
2.597891781365397890e+00
2.597891781365397890e+00
3.047342997528000641e+00
3.047342997528000641e+00
2.812585833307901240e+00
2.812585833307901240e+00
2.638018005920590880e+00
2.638018005920590880e+00
2.539577501754814115e+00
2.539577501754814115e+00
2.441324503311258276e+00
2.441324503311258276e+00
2.441324503311258276e+00
2.429324137089144742e+00
2.429324137089144742e+00
2.416011230811487387e+00
2.416011230811487387e+00
2.495701162755211033e+00
2.495701162755211033e+00
2.302195257423627517e+00
2.302195257423627517e+00
2.249131138035218136e+00
2.249131138035218136e+00
2.200754661702322146e+00
2.200754661702322146e+00
2.125002349925229961e+00
2.125002349925229961e+00
1.989623218482009515e+00
1.989623218482009515e+00
1.989623218482009515e+00
2.283069673757133433e+00
2.283069673757133433e+00
2.409073519089327764e+00
2.409073519089327764e+00
2.216880153813287624e+00
2.216880153813287624e+00
2.193816949980162967e+00
2.193816949980162967e+00
2.198692098757896396e+00
2.198692098757896396e+00
2.173566331980346433e+00
2.173566331980346433e+00
2.173191320535905025e+00
2.173191320535905025e+00
2.293382488479262626e+00
2.293382488479262626e+00
2.305757866145817125e+00
2.305757866145817125e+00
2.305757866145817125e+00
2.206942350535599839e+00
2.206942350535599839e+00
2.217255165257729033e+00
2.217255165257729033e+00
2.260568987090670667e+00
2.260568987090670667e+00
2.132877590258491995e+00
2.132877590258491995e+00
2.020374156926175946e+00
2.020374156926175946e+00
2.449762260811182202e+00
2.449762260811182202e+00
2.304257820368053267e+00
2.304257820368053267e+00
2.143002899258400262e+00
2.143002899258400262e+00
2.143002899258400262e+00
2.143565416425061709e+00
2.143565416425061709e+00
2.140002807702871657e+00
2.140002807702871657e+00
2.145440473647266977e+00
2.145440473647266977e+00
2.173191320535905025e+00
2.173191320535905025e+00
2.401948301644947659e+00
2.401948301644947659e+00
2.396323129978331856e+00
2.396323129978331856e+00
2.394448072756126589e+00
2.394448072756126589e+00
2.361259559923093665e+00
2.361259559923093665e+00
2.331071138645588459e+00
2.331071138645588459e+00
2.109626880703146412e+00
2.109626880703146412e+00
2.109626880703146412e+00
2.107939329203161627e+00
2.107939329203161627e+00
2.539202490310373150e+00
2.539202490310373150e+00
2.297320108645893644e+00
2.297320108645893644e+00
2.230943082979827352e+00
2.230943082979827352e+00
2.277256996368297592e+00
2.277256996368297592e+00
2.309132969145787140e+00
2.309132969145787140e+00
2.364072145756401344e+00
2.364072145756401344e+00
2.344196539201025331e+00
2.344196539201025331e+00
2.452949858088931290e+00
2.452949858088931290e+00
2.452949858088931290e+00
2.262444044312875935e+00
2.262444044312875935e+00
2.238255806146427940e+00
2.238255806146427940e+00
2.221005279702139568e+00
2.221005279702139568e+00
2.201879696035645484e+00
2.201879696035645484e+00
2.042874843592639156e+00
2.042874843592639156e+00
2.270506790368358452e+00
2.270506790368358452e+00
2.521389446699423331e+00
2.521389446699423331e+00
2.262256538590655452e+00
2.262256538590655452e+00
2.179191503646961792e+00
2.179191503646961792e+00
2.179191503646961792e+00
2.055812738425855546e+00
2.055812738425855546e+00
2.001998596148564236e+00
2.001998596148564236e+00
2.060125370036927084e+00
2.060125370036927084e+00
2.184066652424695665e+00
2.184066652424695665e+00
2.298070131534776017e+00
2.298070131534776017e+00
2.283069673757133433e+00
2.283069673757133433e+00
2.424636494033631351e+00
2.424636494033631351e+00
2.533577318643757348e+00
2.533577318643757348e+00
2.533577318643757348e+00
2.439261940366832526e+00
2.439261940366832526e+00
2.300132694479201767e+00
2.300132694479201767e+00
2.588704000976592479e+00
2.588704000976592479e+00
2.533389812921536866e+00
2.533389812921536866e+00
2.340633930478835278e+00
2.340633930478835278e+00
2.274069399090548504e+00
2.274069399090548504e+00
2.182004089480269915e+00
2.182004089480269915e+00
2.107001800592058771e+00
2.107001800592058771e+00
2.107001800592058771e+00
2.082438550981169811e+00
2.082438550981169811e+00
2.212567522202215642e+00
2.212567522202215642e+00
2.180129032258064647e+00
2.180129032258064647e+00
2.148440565202795582e+00
2.148440565202795582e+00
2.179941526535844165e+00
2.179941526535844165e+00
2.288507339701529197e+00
2.288507339701529197e+00
2.194191961424603932e+00
2.194191961424603932e+00
2.182754112369151844e+00
2.182754112369151844e+00
2.182754112369151844e+00
2.618142399365215311e+00
2.618142399365215311e+00
2.414886196478164049e+00
2.414886196478164049e+00
2.329383587145603673e+00
2.329383587145603673e+00
2.285319742423780109e+00
2.285319742423780109e+00
2.221755302591021497e+00
2.221755302591021497e+00
2.168316171758171151e+00
2.168316171758171151e+00
2.160815942869350526e+00
2.160815942869350526e+00
2.340258919034394314e+00
2.340258919034394314e+00
2.340258919034394314e+00
2.228318002868740155e+00
2.228318002868740155e+00
2.222880336924344391e+00
2.222880336924344391e+00
2.252318735312967224e+00
2.252318735312967224e+00
2.313820612201300086e+00
2.313820612201300086e+00
2.146378002258369833e+00
2.146378002258369833e+00
2.259631458479567812e+00
2.259631458479567812e+00
2.565828302865687860e+00
2.565828302865687860e+00
2.306695394756919981e+00
2.306695394756919981e+00
2.306695394756919981e+00
2.239943357646412725e+00
2.239943357646412725e+00
2.213317545091097571e+00
2.213317545091097571e+00
2.209567430646687480e+00
2.209567430646687480e+00
2.269194250312814631e+00
2.269194250312814631e+00
2.371197363200781449e+00
2.371197363200781449e+00
2.523452009643849081e+00
2.523452009643849081e+00
2.365572191534165203e+00
2.365572191534165203e+00
2.365572191534165203e+00
2.281757133701590057e+00
2.281757133701590057e+00
2.245943540757469048e+00
2.245943540757469048e+00
2.193816949980162967e+00
2.193816949980162967e+00
2.064625507370219992e+00
2.064625507370219992e+00
2.329196081423383191e+00
2.329196081423383191e+00
2.435886837366862956e+00
2.435886837366862956e+00
2.257943906979583026e+00
2.257943906979583026e+00
2.285319742423780109e+00
2.285319742423780109e+00
2.285319742423780109e+00
2.272944364757225166e+00
2.272944364757225166e+00
2.274069399090548504e+00
2.274069399090548504e+00
2.308382946256904766e+00
2.308382946256904766e+00
2.368947294534135217e+00
2.368947294534135217e+00
2.302195257423627517e+00
2.302195257423627517e+00
2.155378276924954761e+00
2.155378276924954761e+00
2.130815027314065802e+00
2.130815027314065802e+00
2.200004638813440216e+00
2.200004638813440216e+00
2.119939695425275605e+00
2.119939695425275605e+00
2.119939695425275605e+00
2.051687612537003602e+00
2.051687612537003602e+00
2.510701620532853173e+00
2.510701620532853173e+00
2.412073610644855925e+00
2.412073610644855925e+00
2.294320017090365038e+00
2.294320017090365038e+00
2.261319009979552597e+00
2.261319009979552597e+00
2.192879421369060555e+00
2.192879421369060555e+00
2.154253242591631867e+00
2.154253242591631867e+00
2.161940977202673420e+00
2.161940977202673420e+00
2.161940977202673420e+00
2.346446607867672007e+00
2.346446607867672007e+00
2.275194433423871843e+00
2.275194433423871843e+00
2.263381572923978347e+00
2.263381572923978347e+00
2.244818506424146598e+00
2.244818506424146598e+00
2.276881984923856628e+00
2.276881984923856628e+00
2.085251136814477935e+00
2.085251136814477935e+00
2.155003265480513797e+00
2.155003265480513797e+00
2.589829035309915373e+00
2.589829035309915373e+00
2.589829035309915373e+00
2.371947386089663379e+00
2.371947386089663379e+00
2.311570543534653854e+00
2.311570543534653854e+00
2.298257637256996500e+00
2.298257637256996500e+00
2.248943632312997654e+00
2.248943632312997654e+00
2.231505600146489243e+00
2.231505600146489243e+00
2.208254890591143660e+00
2.208254890591143660e+00
2.305757866145817125e+00
2.305757866145817125e+00
2.127252418591876193e+00
2.127252418591876193e+00
2.127252418591876193e+00
2.104001709036531054e+00
2.104001709036531054e+00
2.134002624591814889e+00
2.134002624591814889e+00
2.159878414258247670e+00
2.159878414258247670e+00
2.027686880092776089e+00
2.027686880092776089e+00
2.284757225257118218e+00
2.284757225257118218e+00
2.551390362254707167e+00
2.551390362254707167e+00
2.389572923978392716e+00
2.389572923978392716e+00
2.350946745200964472e+00
2.350946745200964472e+00
2.292632465590380253e+00
2.292632465590380253e+00
2.323758415478988315e+00
2.323758415478988315e+00
2.323758415478988315e+00
2.326008484145634547e+00
2.326008484145634547e+00
2.405323404644917229e+00
2.405323404644917229e+00
2.440386974700155864e+00
2.440386974700155864e+00
2.330508621478927012e+00
2.330508621478927012e+00
2.284944730979339145e+00
2.284944730979339145e+00
2.349071687978759204e+00
2.349071687978759204e+00
2.302382763145847999e+00
2.302382763145847999e+00
2.257756401257362544e+00
2.257756401257362544e+00
2.257756401257362544e+00
2.600704367198706013e+00
2.600704367198706013e+00
2.488950956755272337e+00
2.488950956755272337e+00
2.266569170201727434e+00
2.266569170201727434e+00
2.213505050813318054e+00
2.213505050813318054e+00
2.169441206091494490e+00
2.169441206091494490e+00
2.170566240424817828e+00
2.170566240424817828e+00
2.213880062257759462e+00
2.213880062257759462e+00
2.337071321756645670e+00
2.337071321756645670e+00
2.337071321756645670e+00
2.273131870479445649e+00
2.273131870479445649e+00
2.198692098757896396e+00
2.198692098757896396e+00
2.181816583758049433e+00
2.181816583758049433e+00
2.191941892757957699e+00
2.191941892757957699e+00
2.053187658314767905e+00
2.053187658314767905e+00
2.058437818536942299e+00
2.058437818536942299e+00
2.531139744254890633e+00
2.531139744254890633e+00
2.341758964812158617e+00
2.341758964812158617e+00
2.341758964812158617e+00
2.272006836146122755e+00
2.272006836146122755e+00
2.272381847590563719e+00
2.272381847590563719e+00
2.235068208868678852e+00
2.235068208868678852e+00
2.219692739646595747e+00
2.219692739646595747e+00
2.232443128757591655e+00
2.232443128757591655e+00
2.396698141422773265e+00
2.396698141422773265e+00
2.244068483535264225e+00
2.244068483535264225e+00
2.212942533646656607e+00
2.212942533646656607e+00
2.212942533646656607e+00
2.217817682424390480e+00
2.217817682424390480e+00
2.241630909146397510e+00
2.241630909146397510e+00
2.078125919370098273e+00
2.078125919370098273e+00
2.229630542924283532e+00
2.229630542924283532e+00
2.574828577532273233e+00
2.574828577532273233e+00
2.344196539201025331e+00
2.344196539201025331e+00
2.296945097201452679e+00
2.296945097201452679e+00
2.270131778923917043e+00
2.270131778923917043e+00
2.236568254646443155e+00
2.236568254646443155e+00
2.236568254646443155e+00
2.240505874813074172e+00
2.240505874813074172e+00
2.275006927701650916e+00
2.275006927701650916e+00
2.363322122867518971e+00
2.363322122867518971e+00
2.222692831202123909e+00
2.222692831202123909e+00
2.223442854091006282e+00
2.223442854091006282e+00
2.260756492812891150e+00
2.260756492812891150e+00
2.224567888424329176e+00
2.224567888424329176e+00
2.090688802758873255e+00
2.090688802758873255e+00
2.090688802758873255e+00
2.364822168645283273e+00
2.364822168645283273e+00
2.448824732200079346e+00
2.448824732200079346e+00
2.248381115146336207e+00
2.248381115146336207e+00
2.216317636646626177e+00
2.216317636646626177e+00
2.200379650257881181e+00
2.200379650257881181e+00
2.181629078035828950e+00
2.181629078035828950e+00
2.206754844813379357e+00
2.206754844813379357e+00
2.339883907589953349e+00
2.339883907589953349e+00
2.339883907589953349e+00
2.355821893978697901e+00
2.355821893978697901e+00
2.262256538590655452e+00
2.262256538590655452e+00
2.252693746757408633e+00
2.252693746757408633e+00
2.283444685201574842e+00
2.283444685201574842e+00
2.189316812646870059e+00
2.189316812646870059e+00
2.131002533036286284e+00
2.131002533036286284e+00
2.542202581865901756e+00
2.542202581865901756e+00
2.387322855311746483e+00
2.387322855311746483e+00
2.387322855311746483e+00
2.262444044312875935e+00
2.262444044312875935e+00
2.252693746757408633e+00
2.252693746757408633e+00
2.232068117313150690e+00
2.232068117313150690e+00
2.236755760368663637e+00
2.236755760368663637e+00
2.290382396923734465e+00
2.290382396923734465e+00
2.437199377422406776e+00
2.437199377422406776e+00
2.310820520645771925e+00
2.310820520645771925e+00
2.267131687368389326e+00
2.267131687368389326e+00
2.267131687368389326e+00
2.242943449201941331e+00
2.242943449201941331e+00
2.261319009979552597e+00
2.261319009979552597e+00
2.095188940092165719e+00
2.095188940092165719e+00
2.160440931424909561e+00
2.160440931424909561e+00
2.552515396588030505e+00
2.552515396588030505e+00
2.304445326090273749e+00
2.304445326090273749e+00
2.231505600146489243e+00
2.231505600146489243e+00
2.227005462813196335e+00
2.227005462813196335e+00
2.227005462813196335e+00
2.209379924924466998e+00
2.209379924924466998e+00
2.239943357646412725e+00
2.239943357646412725e+00
2.289257362590411127e+00
2.289257362590411127e+00
2.430824182866909045e+00
2.430824182866909045e+00
2.265444135868404540e+00
2.265444135868404540e+00
2.213130039368877089e+00
2.213130039368877089e+00
2.200942167424543072e+00
2.200942167424543072e+00
2.195692007202368234e+00
2.195692007202368234e+00
2.195692007202368234e+00
2.051312601092562637e+00
2.051312601092562637e+00
2.280632099368266719e+00
2.280632099368266719e+00
2.481450727866450823e+00
2.481450727866450823e+00
2.307445417645802355e+00
2.307445417645802355e+00
2.300132694479201767e+00
2.300132694479201767e+00
2.301632740256966070e+00
2.301632740256966070e+00
2.259256447035126847e+00
2.259256447035126847e+00
2.251381206701864812e+00
2.251381206701864812e+00
2.251381206701864812e+00
2.315883175145725836e+00
2.315883175145725836e+00
2.360509537034211291e+00
2.360509537034211291e+00
2.254756309701834383e+00
2.254756309701834383e+00
2.257006378368480615e+00
2.257006378368480615e+00
2.284944730979339145e+00
2.284944730979339145e+00
2.178253975035859380e+00
2.178253975035859380e+00
2.078313425092318756e+00
2.078313425092318756e+00
2.452762352366710363e+00
2.452762352366710363e+00
2.452762352366710363e+00
2.410011047700430176e+00
2.410011047700430176e+00
2.245756035035248566e+00
2.245756035035248566e+00
2.239568346201971760e+00
2.239568346201971760e+00
2.234318185979796478e+00
2.234318185979796478e+00
2.215942625202185212e+00
2.215942625202185212e+00
2.235630726035340299e+00
2.235630726035340299e+00
2.339133884701071420e+00
2.339133884701071420e+00
2.279507065034943825e+00
2.279507065034943825e+00
2.231880611590930208e+00
2.231880611590930208e+00
2.231880611590930208e+00
2.223067842646564873e+00
2.223067842646564873e+00
2.273319376201666131e+00
2.273319376201666131e+00
2.140940336313974068e+00
2.140940336313974068e+00
2.136252693258461566e+00
2.136252693258461566e+00
2.573141026032288892e+00
2.573141026032288892e+00
2.366884731589709023e+00
2.366884731589709023e+00
2.290757408368175430e+00
2.290757408368175430e+00
2.292069948423719250e+00
2.292069948423719250e+00
2.292069948423719250e+00
2.279132053590502860e+00
2.279132053590502860e+00
2.260568987090670667e+00
2.260568987090670667e+00
2.281194616534928166e+00
2.281194616534928166e+00
2.420511368144779851e+00
2.420511368144779851e+00
2.263756584368419311e+00
2.263756584368419311e+00
2.244255989257484707e+00
2.244255989257484707e+00
2.251943723868526259e+00
2.251943723868526259e+00
2.273506881923887057e+00
2.273506881923887057e+00
2.085251136814477935e+00
2.085251136814477935e+00
2.231880611590930208e+00
2.231880611590930208e+00
2.231880611590930208e+00
2.525889584032716240e+00
2.525889584032716240e+00
2.279694570757164307e+00
2.279694570757164307e+00
2.244255989257484707e+00
2.244255989257484707e+00
2.230005554368724940e+00
2.230005554368724940e+00
2.221005279702139568e+00
2.221005279702139568e+00
2.251756218146305777e+00
2.251756218146305777e+00
2.304820337534714714e+00
2.304820337534714714e+00
2.393510544145024177e+00
2.393510544145024177e+00
2.393510544145024177e+00
2.253068758201849597e+00
2.253068758201849597e+00
2.216880153813287624e+00
2.216880153813287624e+00
2.233005645924253102e+00
2.233005645924253102e+00
2.188379284035767647e+00
2.188379284035767647e+00
2.084876125370036970e+00
2.084876125370036970e+00
2.377947569200720146e+00
2.377947569200720146e+00
2.450512283700064131e+00
2.450512283700064131e+00
2.275006927701650916e+00
2.275006927701650916e+00
2.275006927701650916e+00
2.257193884090700653e+00
2.257193884090700653e+00
2.249506149479659545e+00
2.249506149479659545e+00
2.251381206701864812e+00
2.251381206701864812e+00
2.263756584368419311e+00
2.263756584368419311e+00
2.370072328867458111e+00
2.370072328867458111e+00
2.343259010589922919e+00
2.343259010589922919e+00
2.264694112979522167e+00
2.264694112979522167e+00
2.242193426313058957e+00
2.242193426313058957e+00
2.242193426313058957e+00
2.258693929868464956e+00
2.258693929868464956e+00
2.134002624591814889e+00
2.134002624591814889e+00
2.061250404370250422e+00
2.061250404370250422e+00
2.497763725699636783e+00
2.497763725699636783e+00
2.362572099978637485e+00
2.362572099978637485e+00
2.249318643757439062e+00
2.249318643757439062e+00
2.246693563646351421e+00
2.246693563646351421e+00
2.221005279702139568e+00
2.221005279702139568e+00
2.221005279702139568e+00
2.222505325479903426e+00
2.222505325479903426e+00
2.266006653035065987e+00
2.266006653035065987e+00
2.426324045533616136e+00
2.426324045533616136e+00
2.288882351145970162e+00
2.288882351145970162e+00
2.254943815424054865e+00
2.254943815424054865e+00
2.242568437757499922e+00
2.242568437757499922e+00
2.272569353312784202e+00
2.272569353312784202e+00
2.092001342814417075e+00
2.092001342814417075e+00
2.092001342814417075e+00
2.148628070925016065e+00
2.148628070925016065e+00
2.552140385143589540e+00
2.552140385143589540e+00
2.326758507034516477e+00
2.326758507034516477e+00
2.258131412701803509e+00
2.258131412701803509e+00
2.226442945646534444e+00
2.226442945646534444e+00
2.222880336924344391e+00
2.222880336924344391e+00
2.231505600146489243e+00
2.231505600146489243e+00
2.263569078646198829e+00
2.263569078646198829e+00
2.263569078646198829e+00
2.408698507644886799e+00
2.408698507644886799e+00
2.253068758201849597e+00
2.253068758201849597e+00
2.263194067201757864e+00
2.263194067201757864e+00
2.294695028534806447e+00
2.294695028534806447e+00
2.273694387646107540e+00
2.273694387646107540e+00
2.118627155369731785e+00
2.118627155369731785e+00
2.332383678701132279e+00
2.332383678701132279e+00
2.332383678701132279e+00
2.507326517532883603e+00
2.507326517532883603e+00
2.285132236701559627e+00
2.285132236701559627e+00
2.252693746757408633e+00
2.252693746757408633e+00
2.246131046479689974e+00
2.246131046479689974e+00
2.236755760368663637e+00
2.236755760368663637e+00
2.258881435590685438e+00
2.258881435590685438e+00
2.340633930478835278e+00
2.340633930478835278e+00
2.359384502700888397e+00
2.359384502700888397e+00
2.359384502700888397e+00
2.242005920590838475e+00
2.242005920590838475e+00
2.216130130924405695e+00
2.216130130924405695e+00
2.240505874813074172e+00
2.240505874813074172e+00
2.153878231147190458e+00
2.153878231147190458e+00
2.064813013092440475e+00
2.064813013092440475e+00
2.440199468977935382e+00
2.440199468977935382e+00
2.394635578478347071e+00
2.394635578478347071e+00
2.248943632312997654e+00
2.248943632312997654e+00
2.248943632312997654e+00
2.251756218146305777e+00
2.251756218146305777e+00
2.241630909146397510e+00
2.241630909146397510e+00
2.237880794701986531e+00
2.237880794701986531e+00
2.278944547868282378e+00
2.278944547868282378e+00
2.417323770867030763e+00
2.417323770867030763e+00
2.329571092867824156e+00
2.329571092867824156e+00
2.253256263924070080e+00
2.253256263924070080e+00
2.225692922757652514e+00
2.225692922757652514e+00
2.255131321146275347e+00
2.255131321146275347e+00
2.255131321146275347e+00
2.125002349925229961e+00
2.125002349925229961e+00
2.136627704702902530e+00
2.136627704702902530e+00
2.558140568254646752e+00
2.558140568254646752e+00
2.334071230201117064e+00
2.334071230201117064e+00
2.241068391979735619e+00
2.241068391979735619e+00
2.235255714590899334e+00
2.235255714590899334e+00
2.224005371257667729e+00
2.224005371257667729e+00
2.241255897701956545e+00
2.241255897701956545e+00
2.241255897701956545e+00
2.271819330423901828e+00
2.271819330423901828e+00
2.437949400311288706e+00
2.437949400311288706e+00
2.279319559312723342e+00
2.279319559312723342e+00
2.251193700979644330e+00
2.251193700979644330e+00
2.235630726035340299e+00
2.235630726035340299e+00
2.240693380535294654e+00
2.240693380535294654e+00
2.065938047425763813e+00
2.065938047425763813e+00
2.225692922757652514e+00
2.225692922757652514e+00
2.225692922757652514e+00
2.520264412366099993e+00
2.520264412366099993e+00
2.290569902645954947e+00
2.290569902645954947e+00
2.251568712424085295e+00
2.251568712424085295e+00
2.236755760368663637e+00
2.236755760368663637e+00
2.220630268257698603e+00
2.220630268257698603e+00
2.242193426313058957e+00
2.242193426313058957e+00
2.299382671590319838e+00
2.299382671590319838e+00
2.384697775200659287e+00
2.384697775200659287e+00
2.384697775200659287e+00
2.242380932035279439e+00
2.242380932035279439e+00
2.220442762535478121e+00
2.220442762535478121e+00
2.242380932035279439e+00
2.242380932035279439e+00
2.203567247535630269e+00
2.203567247535630269e+00
2.095376445814386202e+00
2.095376445814386202e+00
2.422011413922543710e+00
2.422011413922543710e+00
2.461575121311075254e+00
2.461575121311075254e+00
2.279882076479384789e+00
2.279882076479384789e+00
2.263756584368419311e+00
2.263756584368419311e+00
2.243130954924161813e+00
2.243130954924161813e+00
2.243130954924161813e+00
2.245193517868587563e+00
2.245193517868587563e+00
2.257943906979583026e+00
2.257943906979583026e+00
2.363697134311959935e+00
2.363697134311959935e+00
2.323758415478988315e+00
2.323758415478988315e+00
2.239005829035309869e+00
2.239005829035309869e+00
2.213130039368877089e+00
2.213130039368877089e+00
2.254381298257393418e+00
2.254381298257393418e+00
2.153128208258308529e+00
2.153128208258308529e+00
2.153128208258308529e+00
2.091813837092196593e+00
2.091813837092196593e+00
2.527014618366038690e+00
2.527014618366038690e+00
2.383385235145115466e+00
2.383385235145115466e+00
2.271256813257240381e+00
2.271256813257240381e+00
2.263381572923978347e+00
2.263381572923978347e+00
2.245568529313028083e+00
2.245568529313028083e+00
2.234318185979796478e+00
2.234318185979796478e+00
2.250443678090761956e+00
2.250443678090761956e+00
2.250443678090761956e+00
2.415073702200384531e+00
2.415073702200384531e+00
2.273694387646107540e+00
2.273694387646107540e+00
2.223255348368785356e+00
2.223255348368785356e+00
2.216692648091067142e+00
2.216692648091067142e+00
2.227755485702078264e+00
2.227755485702078264e+00
2.061437910092470904e+00
2.061437910092470904e+00
2.151253151036103706e+00
2.151253151036103706e+00
2.523264503921628599e+00
2.523264503921628599e+00
2.523264503921628599e+00
2.292069948423719250e+00
2.292069948423719250e+00
2.243693472090823260e+00
2.243693472090823260e+00
2.241068391979735619e+00
2.241068391979735619e+00
2.240880886257515137e+00
2.240880886257515137e+00
2.266006653035065987e+00
2.266006653035065987e+00
2.313258095034638639e+00
2.313258095034638639e+00
2.448262215033417899e+00
2.448262215033417899e+00
2.271631824701681346e+00
2.271631824701681346e+00
2.271631824701681346e+00
2.240130863368633207e+00
2.240130863368633207e+00
2.242380932035279439e+00
2.242380932035279439e+00
2.226817957090975852e+00
2.226817957090975852e+00
2.080563493758964988e+00
2.080563493758964988e+00
2.311383037812433372e+00
2.311383037812433372e+00
2.493638599810785283e+00
2.493638599810785283e+00
2.288319833979308715e+00
2.288319833979308715e+00
2.270319284646137969e+00
2.270319284646137969e+00
2.259818964201788294e+00
2.259818964201788294e+00
2.246881069368571904e+00
2.246881069368571904e+00
2.246881069368571904e+00
2.273881893368328022e+00
2.273881893368328022e+00
2.371009857478560967e+00
2.371009857478560967e+00
2.394073061311685624e+00
2.394073061311685624e+00
2.279319559312723342e+00
2.279319559312723342e+00
2.257006378368480615e+00
2.257006378368480615e+00
2.269381756035035114e+00
2.269381756035035114e+00
2.173378826258125951e+00
2.173378826258125951e+00
2.078500930814539238e+00
2.078500930814539238e+00
2.464200201422162451e+00
2.464200201422162451e+00
2.464200201422162451e+00
2.392760521256141804e+00
2.392760521256141804e+00
2.239005829035309869e+00
2.239005829035309869e+00
2.238630817590868904e+00
2.238630817590868904e+00
2.218567705313272853e+00
2.218567705313272853e+00
2.206379833368938392e+00
2.206379833368938392e+00
2.209379924924466998e+00
2.209379924924466998e+00
2.361259559923093665e+00
2.361259559923093665e+00
2.299382671590319838e+00
2.299382671590319838e+00
2.258693929868464956e+00
2.258693929868464956e+00
2.258693929868464956e+00
2.251756218146305777e+00
2.251756218146305777e+00
2.271256813257240381e+00
2.271256813257240381e+00
2.124814844203009478e+00
2.124814844203009478e+00
2.133815118869594407e+00
2.133815118869594407e+00
2.571828485976745071e+00
2.571828485976745071e+00
2.350946745200964472e+00
2.350946745200964472e+00
2.277819513534959039e+00
2.277819513534959039e+00
2.275381939146092325e+00
2.275381939146092325e+00
2.275381939146092325e+00
2.245006012146367080e+00
2.245006012146367080e+00
2.251756218146305777e+00
2.251756218146305777e+00
2.259631458479567812e+00
2.259631458479567812e+00
2.433261757255775315e+00
2.433261757255775315e+00
2.256631366924039650e+00
2.256631366924039650e+00
2.235443220313119816e+00
2.235443220313119816e+00
2.239755851924192243e+00
2.239755851924192243e+00
2.239755851924192243e+00
2.250443678090761956e+00
2.250443678090761956e+00
2.078688436536759720e+00
2.078688436536759720e+00
2.244818506424146598e+00
2.244818506424146598e+00
2.521389446699423331e+00
2.521389446699423331e+00
2.272756859035004684e+00
2.272756859035004684e+00
2.244631000701926116e+00
2.244631000701926116e+00
2.245756035035248566e+00
2.245756035035248566e+00
2.230943082979827352e+00
2.230943082979827352e+00
2.230943082979827352e+00
2.254943815424054865e+00
2.254943815424054865e+00
2.308382946256904766e+00
2.308382946256904766e+00
2.394073061311685624e+00
2.394073061311685624e+00
2.239755851924192243e+00
2.239755851924192243e+00
2.214630085146641392e+00
2.214630085146641392e+00
2.236005737479781263e+00
2.236005737479781263e+00
2.183691640980254700e+00
2.183691640980254700e+00
2.075500839259010633e+00
2.075500839259010633e+00
2.075500839259010633e+00
2.386760338145085036e+00
2.386760338145085036e+00
2.444887112033448329e+00
2.444887112033448329e+00
2.273319376201666131e+00
2.273319376201666131e+00
2.258131412701803509e+00
2.258131412701803509e+00
2.247256080813012868e+00
2.247256080813012868e+00
2.253068758201849597e+00
2.253068758201849597e+00
2.268256721701712220e+00
2.268256721701712220e+00
2.365384685811944721e+00
2.365384685811944721e+00
2.365384685811944721e+00
2.328446058534500818e+00
2.328446058534500818e+00
2.250068666646320992e+00
2.250068666646320992e+00
2.231693105868709726e+00
2.231693105868709726e+00
2.268256721701712220e+00
2.268256721701712220e+00
2.140002807702871657e+00
2.140002807702871657e+00
2.080188482314524023e+00
2.080188482314524023e+00
2.522326975310525743e+00
2.522326975310525743e+00
2.360509537034211291e+00
2.360509537034211291e+00
2.360509537034211291e+00
2.260943998535111632e+00
2.260943998535111632e+00
2.254006286812952009e+00
2.254006286812952009e+00
2.230193060090945423e+00
2.230193060090945423e+00
2.242755943479720404e+00
2.242755943479720404e+00
2.267319193090609808e+00
2.267319193090609808e+00
2.413386150700399746e+00
2.413386150700399746e+00
2.269006744590594149e+00
2.269006744590594149e+00
2.231130588702047834e+00
2.231130588702047834e+00
2.229443037202063049e+00
2.229443037202063049e+00
2.229443037202063049e+00
2.263381572923978347e+00
2.263381572923978347e+00
2.080750999481185470e+00
2.080750999481185470e+00
2.164566057313760616e+00
2.164566057313760616e+00
2.540515030365916971e+00
2.540515030365916971e+00
2.319070772423474924e+00
2.319070772423474924e+00
2.264506607257301685e+00
2.264506607257301685e+00
2.264131595812860720e+00
2.264131595812860720e+00
2.232818140202032620e+00
2.232818140202032620e+00
2.232818140202032620e+00
2.258506424146244473e+00
2.258506424146244473e+00
2.299570177312540320e+00
2.299570177312540320e+00
2.436261848811303921e+00
2.436261848811303921e+00
2.271069307535019899e+00
2.271069307535019899e+00
2.237318277535325084e+00
2.237318277535325084e+00
2.243505966368602778e+00
2.243505966368602778e+00
2.217255165257729033e+00
2.217255165257729033e+00
2.073813287759025847e+00
2.073813287759025847e+00
2.304070314645832784e+00
2.304070314645832784e+00
2.465887752922147680e+00
2.465887752922147680e+00
2.275194433423871843e+00
2.275194433423871843e+00
2.275194433423871843e+00
2.267881710257271255e+00
2.267881710257271255e+00
2.256818872646260132e+00
2.256818872646260132e+00
2.249131138035218136e+00
2.249131138035218136e+00
2.275756950590533290e+00
2.275756950590533290e+00
2.370822351756340485e+00
2.370822351756340485e+00
2.392573015533921321e+00
2.392573015533921321e+00
2.274444410534989469e+00
2.274444410534989469e+00
2.243505966368602778e+00
2.243505966368602778e+00
2.243505966368602778e+00
2.257756401257362544e+00
2.257756401257362544e+00
2.145252967925046494e+00
2.145252967925046494e+00
2.032749534592730889e+00
2.032749534592730889e+00
