2.208254890591143660e+00
2.208254890591143660e+00
2.208254890591143660e+00
2.164003540147099169e+00
2.164003540147099169e+00
2.164003540147099169e+00
2.085438642536698417e+00
2.085438642536698417e+00
2.085438642536698417e+00
2.085438642536698417e+00
2.388635395367290304e+00
2.388635395367290304e+00
2.388635395367290304e+00
2.373634937589648164e+00
2.373634937589648164e+00
2.373634937589648164e+00
2.373634937589648164e+00
2.300695211645863214e+00
2.300695211645863214e+00
2.300695211645863214e+00
2.301632740256966070e+00
2.301632740256966070e+00
2.301632740256966070e+00
2.302570268868068482e+00
2.302570268868068482e+00
2.302570268868068482e+00
2.302570268868068482e+00
2.299570177312540320e+00
2.299570177312540320e+00
2.299570177312540320e+00
2.328258552812280335e+00
2.328258552812280335e+00
2.328258552812280335e+00
2.408886013367107282e+00
2.408886013367107282e+00
2.408886013367107282e+00
2.408886013367107282e+00
2.311383037812433372e+00
2.311383037812433372e+00
2.311383037812433372e+00
2.248756126590777171e+00
2.248756126590777171e+00
2.248756126590777171e+00
2.207692373424482213e+00
2.207692373424482213e+00
2.207692373424482213e+00
2.207692373424482213e+00
2.228318002868740155e+00
2.228318002868740155e+00
2.228318002868740155e+00
2.139065279091769245e+00
2.139065279091769245e+00
2.139065279091769245e+00
2.139065279091769245e+00
2.150690633869442259e+00
2.150690633869442259e+00
2.150690633869442259e+00
2.431949217200232383e+00
2.431949217200232383e+00
2.431949217200232383e+00
2.360697042756431774e+00
2.360697042756431774e+00
2.360697042756431774e+00
2.360697042756431774e+00
2.304445326090273749e+00
2.304445326090273749e+00
2.304445326090273749e+00
2.312695577867977192e+00
2.312695577867977192e+00
2.312695577867977192e+00
2.299195165868098911e+00
2.299195165868098911e+00
2.299195165868098911e+00
2.299195165868098911e+00
2.275756950590533290e+00
2.275756950590533290e+00
2.275756950590533290e+00
2.288507339701529197e+00
2.288507339701529197e+00
2.288507339701529197e+00
2.364447157200842309e+00
2.364447157200842309e+00
2.364447157200842309e+00
2.364447157200842309e+00
2.269194250312814631e+00
2.269194250312814631e+00
2.269194250312814631e+00
2.223630359813226764e+00
2.223630359813226764e+00
2.191004364146854844e+00
2.191004364146854844e+00
2.191004364146854844e+00
2.194191961424603932e+00
2.194191961424603932e+00
2.194191961424603932e+00
2.194191961424603932e+00
2.104376720480972018e+00
2.104376720480972018e+00
2.104376720480972018e+00
2.251943723868526259e+00
2.251943723868526259e+00
2.251943723868526259e+00
2.434011780144657688e+00
2.434011780144657688e+00
2.434011780144657688e+00
2.434011780144657688e+00
2.343821527756584366e+00
2.343821527756584366e+00
2.343821527756584366e+00
2.308757957701345731e+00
2.308757957701345731e+00
2.308757957701345731e+00
2.328071047090059853e+00
2.328071047090059853e+00
2.328071047090059853e+00
2.328071047090059853e+00
2.326008484145634547e+00
2.326008484145634547e+00
2.326008484145634547e+00
2.313070589312418157e+00
2.313070589312418157e+00
2.313070589312418157e+00
2.349259193700979687e+00
2.349259193700979687e+00
2.349259193700979687e+00
2.349259193700979687e+00
2.360322031311990809e+00
2.360322031311990809e+00
2.360322031311990809e+00
2.275381939146092325e+00
2.275381939146092325e+00
2.275381939146092325e+00
2.229255531479842567e+00
2.229255531479842567e+00
2.229255531479842567e+00
2.212380016479995160e+00
2.212380016479995160e+00
2.212380016479995160e+00
2.176378917813653668e+00
2.176378917813653668e+00
2.176378917813653668e+00
2.176378917813653668e+00
2.087688711203345093e+00
2.087688711203345093e+00
2.087688711203345093e+00
2.333696218756676100e+00
2.333696218756676100e+00
2.333696218756676100e+00
2.405510910367137711e+00
2.405510910367137711e+00
2.405510910367137711e+00
2.405510910367137711e+00
2.330321115756706529e+00
2.330321115756706529e+00
2.330321115756706529e+00
2.313445600756859122e+00
2.313445600756859122e+00
2.313445600756859122e+00
2.313445600756859122e+00
2.328633564256721744e+00
2.328633564256721744e+00
2.328633564256721744e+00
2.323008392590105942e+00
2.323008392590105942e+00
2.323008392590105942e+00
2.331633655812249906e+00
2.331633655812249906e+00
2.331633655812249906e+00
2.394260567033906106e+00
2.394260567033906106e+00
2.394260567033906106e+00
2.394260567033906106e+00
2.340821436201055761e+00
2.340821436201055761e+00
2.340821436201055761e+00
2.273506881923887057e+00
2.273506881923887057e+00
2.273506881923887057e+00
2.223442854091006282e+00
2.223442854091006282e+00
2.223442854091006282e+00
2.223442854091006282e+00
2.211629993591112786e+00
2.211629993591112786e+00
2.211629993591112786e+00
2.142440382091738371e+00
2.142440382091738371e+00
2.142440382091738371e+00
2.087501205481124167e+00
2.087501205481124167e+00
2.087501205481124167e+00
2.087501205481124167e+00
2.386572832422864110e+00
2.386572832422864110e+00
2.386572832422864110e+00
2.349446699423200169e+00
2.349446699423200169e+00
2.349446699423200169e+00
2.349446699423200169e+00
2.290007385479293500e+00
2.290007385479293500e+00
2.290007385479293500e+00
2.296757591479232197e+00
2.296757591479232197e+00
2.296757591479232197e+00
2.292444959868159771e+00
2.292444959868159771e+00
2.292444959868159771e+00
2.292444959868159771e+00
2.283257179479354360e+00
2.283257179479354360e+00
2.283257179479354360e+00
2.296757591479232197e+00
2.296757591479232197e+00
2.296757591479232197e+00
2.379072603534043484e+00
2.379072603534043484e+00
2.379072603534043484e+00
2.379072603534043484e+00
2.280632099368266719e+00
2.280632099368266719e+00
2.280632099368266719e+00
2.235630726035340299e+00
2.235630726035340299e+00
2.235630726035340299e+00
2.192879421369060555e+00
2.192879421369060555e+00
2.192879421369060555e+00
2.192879421369060555e+00
2.205254799035615054e+00
2.205254799035615054e+00
2.205254799035615054e+00
2.097814020203253360e+00
2.097814020203253360e+00
2.097814020203253360e+00
2.169253700369274007e+00
2.169253700369274007e+00
2.169253700369274007e+00
2.169253700369274007e+00
2.420698873867000778e+00
2.420698873867000778e+00
2.420698873867000778e+00
2.344384044923245813e+00
2.344384044923245813e+00
2.344384044923245813e+00
2.302757774590289408e+00
2.302757774590289408e+00
2.302757774590289408e+00
2.302757774590289408e+00
2.312133060701315301e+00
2.312133060701315301e+00
2.312133060701315301e+00
2.307632923368022837e+00
2.307632923368022837e+00
2.307632923368022837e+00
2.307632923368022837e+00
2.307820429090243319e+00
2.307820429090243319e+00
2.307820429090243319e+00
2.336133793145542814e+00
2.336133793145542814e+00
2.336133793145542814e+00
2.379635120700704931e+00
2.379635120700704931e+00
2.379635120700704931e+00
2.379635120700704931e+00
2.282319650868251504e+00
2.282319650868251504e+00
2.282319650868251504e+00
2.241255897701956545e+00
2.241255897701956545e+00
2.241255897701956545e+00
2.214067567979979945e+00
2.214067567979979945e+00
2.214067567979979945e+00
2.214067567979979945e+00
2.195692007202368234e+00
2.195692007202368234e+00
2.195692007202368234e+00
2.090688802758873255e+00
2.090688802758873255e+00
2.090688802758873255e+00
2.265444135868404540e+00
2.265444135868404540e+00
2.265444135868404540e+00
2.265444135868404540e+00
2.392010498367259874e+00
2.392010498367259874e+00
2.392010498367259874e+00
2.307070406201360946e+00
2.307070406201360946e+00
2.307070406201360946e+00
2.290757408368175430e+00
2.290757408368175430e+00
2.290757408368175430e+00
2.290757408368175430e+00
2.311383037812433372e+00
2.311383037812433372e+00
2.311383037812433372e+00
2.303132786034730373e+00
2.303132786034730373e+00
2.303132786034730373e+00
2.308195440534684284e+00
2.308195440534684284e+00
2.308195440534684284e+00
2.308195440534684284e+00
2.357509445478682686e+00
2.357509445478682686e+00
2.357509445478682686e+00
2.340071413312173831e+00
2.340071413312173831e+00
2.340071413312173831e+00
2.269381756035035114e+00
2.269381756035035114e+00
2.269381756035035114e+00
2.269381756035035114e+00
2.236943266090884119e+00
2.236943266090884119e+00
2.236943266090884119e+00
2.228505508590960638e+00
2.228505508590960638e+00
2.228505508590960638e+00
2.173941343424787398e+00
2.173941343424787398e+00
2.173941343424787398e+00
2.173941343424787398e+00
2.079438459425641650e+00
2.079438459425641650e+00
2.079438459425641650e+00
2.366134708700827094e+00
2.366134708700827094e+00
2.366134708700827094e+00
2.366134708700827094e+00
2.375885006256294396e+00
2.375885006256294396e+00
2.375885006256294396e+00
2.304257820368053267e+00
2.304257820368053267e+00
2.304257820368053267e+00
2.299195165868098911e+00
2.299195165868098911e+00
2.299195165868098911e+00
2.301820245979186552e+00
2.301820245979186552e+00
2.301820245979186552e+00
2.301820245979186552e+00
2.298632648701437464e+00
2.298632648701437464e+00
2.298632648701437464e+00
2.301632740256966070e+00
2.301632740256966070e+00
2.301632740256966070e+00
2.301632740256966070e+00
2.370447340311899076e+00
2.370447340311899076e+00
2.370447340311899076e+00
2.313820612201300086e+00
2.313820612201300086e+00
2.313820612201300086e+00
2.254943815424054865e+00
2.254943815424054865e+00
2.254943815424054865e+00
2.254943815424054865e+00
2.206004821924497428e+00
2.206004821924497428e+00
2.206004821924497428e+00
2.218755211035493335e+00
2.218755211035493335e+00
2.218755211035493335e+00
2.131752555925168657e+00
2.131752555925168657e+00
2.131752555925168657e+00
2.131752555925168657e+00
2.133815118869594407e+00
2.133815118869594407e+00
2.133815118869594407e+00
2.426511551255836618e+00
2.426511551255836618e+00
2.426511551255836618e+00
2.365009674367503756e+00
2.365009674367503756e+00
2.365009674367503756e+00
2.365009674367503756e+00
2.311383037812433372e+00
2.311383037812433372e+00
2.311383037812433372e+00
2.324883449812311209e+00
2.324883449812311209e+00
2.324883449812311209e+00
2.321883358256782603e+00
2.321883358256782603e+00
2.321883358256782603e+00
2.321883358256782603e+00
2.299945188756981285e+00
2.299945188756981285e+00
2.299945188756981285e+00
2.306882900479140464e+00
2.306882900479140464e+00
2.306882900479140464e+00
2.369134800256355700e+00
2.369134800256355700e+00
2.369134800256355700e+00
2.369134800256355700e+00
2.268256721701712220e+00
2.268256721701712220e+00
2.268256721701712220e+00
2.233380657368694511e+00
2.233380657368694511e+00
2.233380657368694511e+00
2.195879512924588717e+00
2.195879512924588717e+00
2.195879512924588717e+00
2.195879512924588717e+00
2.209004913480026033e+00
2.209004913480026033e+00
2.209004913480026033e+00
2.112626972258675018e+00
2.112626972258675018e+00
2.112626972258675018e+00
2.240318369090853690e+00
2.240318369090853690e+00
2.240318369090853690e+00
2.240318369090853690e+00
2.436636860255744885e+00
2.436636860255744885e+00
2.436636860255744885e+00
2.341571459089938134e+00
2.341571459089938134e+00
2.341571459089938134e+00
2.301632740256966070e+00
2.301632740256966070e+00
2.301632740256966070e+00
2.301632740256966070e+00
2.311383037812433372e+00
2.311383037812433372e+00
2.311383037812433372e+00
2.304257820368053267e+00
2.304257820368053267e+00
2.304257820368053267e+00
2.300882717368083696e+00
2.300882717368083696e+00
2.300882717368083696e+00
2.300882717368083696e+00
2.342133976256599581e+00
2.342133976256599581e+00
2.342133976256599581e+00
2.354134342478713116e+00
2.354134342478713116e+00
2.354134342478713116e+00
2.252506241035188150e+00
2.252506241035188150e+00
2.252506241035188150e+00
2.252506241035188150e+00
2.210504959257789892e+00
2.210504959257789892e+00
2.210504959257789892e+00
2.206567339091158875e+00
2.206567339091158875e+00
2.206567339091158875e+00
2.192504409924619146e+00
2.192504409924619146e+00
2.192504409924619146e+00
2.192504409924619146e+00
2.083938596758934114e+00
2.083938596758934114e+00
2.083938596758934114e+00
2.304632831812494231e+00
2.304632831812494231e+00
2.304632831812494231e+00
2.385260292367321178e+00
2.385260292367321178e+00
2.385260292367321178e+00
2.385260292367321178e+00
2.311758049256874337e+00
2.311758049256874337e+00
2.311758049256874337e+00
2.305757866145817125e+00
2.305757866145817125e+00
2.305757866145817125e+00
2.321320841090121156e+00
2.321320841090121156e+00
2.321320841090121156e+00
2.321320841090121156e+00
2.309320474868007622e+00
2.309320474868007622e+00
2.309320474868007622e+00
2.313070589312418157e+00
2.313070589312418157e+00
2.313070589312418157e+00
2.313070589312418157e+00
2.370447340311899076e+00
2.370447340311899076e+00
2.370447340311899076e+00
2.335571275978881367e+00
2.335571275978881367e+00
2.335571275978881367e+00
2.259256447035126847e+00
2.259256447035126847e+00
2.259256447035126847e+00
2.212755027924436124e+00
2.212755027924436124e+00
2.212755027924436124e+00
2.212755027924436124e+00
2.209004913480026033e+00
2.209004913480026033e+00
2.209004913480026033e+00
2.149940610980559885e+00
2.149940610980559885e+00
2.149940610980559885e+00
2.149940610980559885e+00
2.097063997314370987e+00
2.097063997314370987e+00
2.097063997314370987e+00
2.407760979033784388e+00
2.407760979033784388e+00
2.407760979033784388e+00
2.377572557756279181e+00
2.377572557756279181e+00
2.377572557756279181e+00
2.377572557756279181e+00
2.317945738090151586e+00
2.317945738090151586e+00
2.317945738090151586e+00
2.328633564256721744e+00
2.328633564256721744e+00
2.328633564256721744e+00
2.321508346812341639e+00
2.321508346812341639e+00
2.321508346812341639e+00
2.321508346812341639e+00
2.302570268868068482e+00
2.302570268868068482e+00
2.302570268868068482e+00
2.308757957701345731e+00
2.308757957701345731e+00
2.308757957701345731e+00
2.383010223700674501e+00
2.383010223700674501e+00
2.383010223700674501e+00
2.383010223700674501e+00
2.286632282479323930e+00
2.286632282479323930e+00
2.286632282479323930e+00
2.239193334757530351e+00
2.239193334757530351e+00
2.239193334757530351e+00
2.206379833368938392e+00
2.206379833368938392e+00
2.206379833368938392e+00
2.206379833368938392e+00
2.227192968535416817e+00
2.227192968535416817e+00
2.227192968535416817e+00
2.118627155369731785e+00
2.118627155369731785e+00
2.118627155369731785e+00
2.159315897091586223e+00
2.159315897091586223e+00
2.159315897091586223e+00
2.159315897091586223e+00
2.410011047700430176e+00
2.410011047700430176e+00
2.410011047700430176e+00
2.340258919034394314e+00
2.340258919034394314e+00
2.340258919034394314e+00
2.299945188756981285e+00
2.299945188756981285e+00
2.299945188756981285e+00
2.299945188756981285e+00
2.312508072145756710e+00
2.312508072145756710e+00
2.312508072145756710e+00
2.298445142979216982e+00
2.298445142979216982e+00
2.298445142979216982e+00
2.298445142979216982e+00
2.297882625812555535e+00
2.297882625812555535e+00
2.297882625812555535e+00
2.330696127201147494e+00
2.330696127201147494e+00
2.330696127201147494e+00
2.385447798089541660e+00
2.385447798089541660e+00
2.385447798089541660e+00
2.385447798089541660e+00
2.276131962034974254e+00
2.276131962034974254e+00
2.276131962034974254e+00
2.233755668813135031e+00
2.233755668813135031e+00
2.233755668813135031e+00
2.209754936368907963e+00
2.209754936368907963e+00
2.209754936368907963e+00
2.209754936368907963e+00
2.202817224646748340e+00
2.202817224646748340e+00
2.202817224646748340e+00
2.102689168980987233e+00
2.102689168980987233e+00
2.102689168980987233e+00
2.261694021423993561e+00
2.261694021423993561e+00
2.261694021423993561e+00
2.261694021423993561e+00
2.409073519089327764e+00
2.409073519089327764e+00
2.409073519089327764e+00
2.319258278145695407e+00
2.319258278145695407e+00
2.319258278145695407e+00
2.290194891201513983e+00
2.290194891201513983e+00
2.290194891201513983e+00
2.290194891201513983e+00
2.293382488479262626e+00
2.293382488479262626e+00
2.293382488479262626e+00
2.295257545701467894e+00
2.295257545701467894e+00
2.295257545701467894e+00
2.308570451979125249e+00
2.308570451979125249e+00
2.308570451979125249e+00
2.308570451979125249e+00
2.362572099978637485e+00
2.362572099978637485e+00
2.362572099978637485e+00
2.358259468367565059e+00
2.358259468367565059e+00
2.358259468367565059e+00
2.358259468367565059e+00
2.268444227423932702e+00
2.268444227423932702e+00
2.268444227423932702e+00
2.223817865535447247e+00
2.223817865535447247e+00
2.223817865535447247e+00
2.209754936368907963e+00
2.209754936368907963e+00
2.209754936368907963e+00
2.209754936368907963e+00
2.167941160313730187e+00
2.167941160313730187e+00
2.167941160313730187e+00
2.077000885036774935e+00
2.077000885036774935e+00
2.077000885036774935e+00
2.353759331034272151e+00
2.353759331034272151e+00
2.353759331034272151e+00
2.353759331034272151e+00
2.390510452589495571e+00
2.390510452589495571e+00
2.390510452589495571e+00
2.328633564256721744e+00
2.328633564256721744e+00
2.328633564256721744e+00
2.324320932645649762e+00
2.324320932645649762e+00
2.324320932645649762e+00
2.324320932645649762e+00
2.322445875423444495e+00
2.322445875423444495e+00
2.322445875423444495e+00
2.290944914090395912e+00
2.290944914090395912e+00
2.290944914090395912e+00
2.292632465590380253e+00
2.292632465590380253e+00
2.292632465590380253e+00
2.292632465590380253e+00
2.357509445478682686e+00
2.357509445478682686e+00
2.357509445478682686e+00
2.301445234534745587e+00
2.301445234534745587e+00
2.301445234534745587e+00
2.249318643757439062e+00
2.249318643757439062e+00
2.249318643757439062e+00
2.249318643757439062e+00
2.211629993591112786e+00
2.211629993591112786e+00
2.211629993591112786e+00
2.218942716757713818e+00
2.218942716757713818e+00
2.218942716757713818e+00
2.140565324869533104e+00
2.140565324869533104e+00
2.140565324869533104e+00
2.140565324869533104e+00
2.118439649647511303e+00
2.118439649647511303e+00
2.118439649647511303e+00
2.415448713644825496e+00
2.415448713644825496e+00
2.415448713644825496e+00
2.365759697256386129e+00
2.365759697256386129e+00
2.365759697256386129e+00
2.365759697256386129e+00
2.313633106479079604e+00
2.313633106479079604e+00
2.313633106479079604e+00
2.335383770256660885e+00
2.335383770256660885e+00
2.335383770256660885e+00
2.329758598590044638e+00
2.329758598590044638e+00
2.329758598590044638e+00
2.329758598590044638e+00
2.296945097201452679e+00
2.296945097201452679e+00
2.296945097201452679e+00
2.299945188756981285e+00
2.299945188756981285e+00
2.299945188756981285e+00
2.381322672200689716e+00
2.381322672200689716e+00
2.381322672200689716e+00
2.381322672200689716e+00
2.288132328257088233e+00
2.288132328257088233e+00
2.288132328257088233e+00
2.254381298257393418e+00
2.254381298257393418e+00
2.254381298257393418e+00
2.216130130924405695e+00
2.216130130924405695e+00
2.216130130924405695e+00
2.216130130924405695e+00
2.221005279702139568e+00
2.221005279702139568e+00
2.221005279702139568e+00
2.112626972258675018e+00
2.112626972258675018e+00
2.112626972258675018e+00
2.205254799035615054e+00
2.205254799035615054e+00
2.205254799035615054e+00
2.205254799035615054e+00
2.425199011200292798e+00
2.425199011200292798e+00
2.425199011200292798e+00
2.344009033478804849e+00
2.344009033478804849e+00
2.344009033478804849e+00
2.310633014923550999e+00
2.310633014923550999e+00
2.310633014923550999e+00
2.310633014923550999e+00
2.328071047090059853e+00
2.328071047090059853e+00
2.328071047090059853e+00
2.310070497756889552e+00
2.310070497756889552e+00
2.310070497756889552e+00
2.310070497756889552e+00
2.293382488479262626e+00
2.293382488479262626e+00
2.293382488479262626e+00
2.329383587145603673e+00
2.329383587145603673e+00
2.329383587145603673e+00
2.362009582811975594e+00
2.362009582811975594e+00
2.362009582811975594e+00
2.362009582811975594e+00
2.263944090090640238e+00
2.263944090090640238e+00
2.263944090090640238e+00
2.220255256813257638e+00
2.220255256813257638e+00
2.220255256813257638e+00
2.207129856257820322e+00
2.207129856257820322e+00
2.207129856257820322e+00
2.207129856257820322e+00
2.197379558702353020e+00
2.197379558702353020e+00
2.197379558702353020e+00
2.101564134647663895e+00
2.101564134647663895e+00
2.101564134647663895e+00
2.315508163701284872e+00
2.315508163701284872e+00
2.315508163701284872e+00
2.315508163701284872e+00
2.402510818811609106e+00
2.402510818811609106e+00
2.402510818811609106e+00
2.314008117923521013e+00
2.314008117923521013e+00
2.314008117923521013e+00
2.305195348979155678e+00
2.305195348979155678e+00
2.305195348979155678e+00
2.305195348979155678e+00
2.318133243812372069e+00
2.318133243812372069e+00
2.318133243812372069e+00
2.293945005645924073e+00
2.293945005645924073e+00
2.293945005645924073e+00
2.304070314645832784e+00
2.304070314645832784e+00
2.304070314645832784e+00
2.304070314645832784e+00
2.359009491256446989e+00
2.359009491256446989e+00
2.359009491256446989e+00
2.331258644367808941e+00
2.331258644367808941e+00
2.331258644367808941e+00
2.260756492812891150e+00
2.260756492812891150e+00
2.260756492812891150e+00
2.260756492812891150e+00
2.212380016479995160e+00
2.212380016479995160e+00
2.212380016479995160e+00
2.199067110202337361e+00
2.199067110202337361e+00
2.199067110202337361e+00
2.147878048036134135e+00
2.147878048036134135e+00
2.147878048036134135e+00
2.088251228370006540e+00
2.088251228370006540e+00
2.088251228370006540e+00
2.088251228370006540e+00
2.394448072756126589e+00
2.394448072756126589e+00
2.394448072756126589e+00
2.368947294534135217e+00
2.368947294534135217e+00
2.368947294534135217e+00
2.368947294534135217e+00
2.304820337534714714e+00
2.304820337534714714e+00
2.304820337534714714e+00
2.308757957701345731e+00
2.308757957701345731e+00
2.308757957701345731e+00
2.300695211645863214e+00
2.300695211645863214e+00
2.300695211645863214e+00
2.300695211645863214e+00
2.285319742423780109e+00
2.285319742423780109e+00
2.285319742423780109e+00
2.306882900479140464e+00
2.306882900479140464e+00
2.306882900479140464e+00
2.391822992645039392e+00
2.391822992645039392e+00
2.391822992645039392e+00
2.391822992645039392e+00
2.305757866145817125e+00
2.305757866145817125e+00
2.305757866145817125e+00
2.251006195257423848e+00
2.251006195257423848e+00
2.251006195257423848e+00
2.205442304757835537e+00
2.205442304757835537e+00
2.205442304757835537e+00
2.205442304757835537e+00
2.213317545091097571e+00
2.213317545091097571e+00
2.213317545091097571e+00
2.109626880703146412e+00
2.109626880703146412e+00
2.109626880703146412e+00
2.133440107425153442e+00
2.133440107425153442e+00
2.133440107425153442e+00
2.133440107425153442e+00
2.405135898922696747e+00
2.405135898922696747e+00
2.405135898922696747e+00
2.339696401867732423e+00
2.339696401867732423e+00
2.339696401867732423e+00
2.293382488479262626e+00
2.293382488479262626e+00
2.293382488479262626e+00
2.293382488479262626e+00
2.302757774590289408e+00
2.302757774590289408e+00
2.302757774590289408e+00
2.296007568590349823e+00
2.296007568590349823e+00
2.296007568590349823e+00
2.287194799645985377e+00
2.287194799645985377e+00
2.287194799645985377e+00
2.287194799645985377e+00
2.334633747367778511e+00
2.334633747367778511e+00
2.334633747367778511e+00
2.400448255867183356e+00
2.400448255867183356e+00
2.400448255867183356e+00
2.400448255867183356e+00
2.296007568590349823e+00
2.296007568590349823e+00
2.296007568590349823e+00
2.254006286812952009e+00
2.254006286812952009e+00
2.254006286812952009e+00
2.221005279702139568e+00
2.221005279702139568e+00
2.221005279702139568e+00
2.221005279702139568e+00
2.220630268257698603e+00
2.220630268257698603e+00
2.220630268257698603e+00
2.119002166814172750e+00
2.119002166814172750e+00
2.119002166814172750e+00
2.259256447035126847e+00
2.259256447035126847e+00
2.259256447035126847e+00
2.259256447035126847e+00
2.413011139255958781e+00
2.413011139255958781e+00
2.413011139255958781e+00
2.323195898312326424e+00
2.323195898312326424e+00
2.323195898312326424e+00
2.306132877590258534e+00
2.306132877590258534e+00
2.306132877590258534e+00
2.314570635090182460e+00
2.314570635090182460e+00
2.314570635090182460e+00
2.314570635090182460e+00
2.299945188756981285e+00
2.299945188756981285e+00
2.299945188756981285e+00
2.299007660145878429e+00
2.299007660145878429e+00
2.299007660145878429e+00
2.351134250923184954e+00
2.351134250923184954e+00
2.351134250923184954e+00
2.351134250923184954e+00
2.351884273812066883e+00
2.351884273812066883e+00
2.351884273812066883e+00
2.269006744590594149e+00
2.269006744590594149e+00
2.269006744590594149e+00
2.215755119479964730e+00
2.215755119479964730e+00
2.215755119479964730e+00
2.215755119479964730e+00
2.205817316202276945e+00
2.205817316202276945e+00
2.205817316202276945e+00
2.172253791924802613e+00
2.172253791924802613e+00
2.172253791924802613e+00
2.088438734092227023e+00
2.088438734092227023e+00
2.088438734092227023e+00
2.088438734092227023e+00
2.341758964812158617e+00
2.341758964812158617e+00
2.341758964812158617e+00
2.373634937589648164e+00
2.373634937589648164e+00
2.373634937589648164e+00
2.295257545701467894e+00
2.295257545701467894e+00
2.295257545701467894e+00
2.295257545701467894e+00
2.293945005645924073e+00
2.293945005645924073e+00
2.293945005645924073e+00
2.304820337534714714e+00
2.304820337534714714e+00
2.304820337534714714e+00
2.294132511368144556e+00
2.294132511368144556e+00
2.294132511368144556e+00
2.294132511368144556e+00
2.304820337534714714e+00
2.304820337534714714e+00
2.304820337534714714e+00
2.366884731589709023e+00
2.366884731589709023e+00
2.366884731589709023e+00
2.309320474868007622e+00
2.309320474868007622e+00
2.309320474868007622e+00
2.309320474868007622e+00
2.259818964201788294e+00
2.259818964201788294e+00
2.259818964201788294e+00
2.227942991424298746e+00
2.227942991424298746e+00
2.227942991424298746e+00
2.229818048646504014e+00
2.229818048646504014e+00
2.229818048646504014e+00
2.229818048646504014e+00
2.154628254036072832e+00
2.154628254036072832e+00
2.154628254036072832e+00
2.111314432203131197e+00
2.111314432203131197e+00
2.111314432203131197e+00
2.415073702200384531e+00
2.415073702200384531e+00
2.415073702200384531e+00
2.415073702200384531e+00
2.366697225867488541e+00
2.366697225867488541e+00
2.366697225867488541e+00
2.302757774590289408e+00
2.302757774590289408e+00
2.302757774590289408e+00
2.315883175145725836e+00
2.315883175145725836e+00
2.315883175145725836e+00
2.315883175145725836e+00
2.313070589312418157e+00
2.313070589312418157e+00
2.313070589312418157e+00
2.291694936979278285e+00
2.291694936979278285e+00
2.291694936979278285e+00
2.305382854701376161e+00
2.305382854701376161e+00
2.305382854701376161e+00
2.305382854701376161e+00
2.388447889645069822e+00
2.388447889645069822e+00
2.388447889645069822e+00
2.288132328257088233e+00
2.288132328257088233e+00
2.288132328257088233e+00
2.288132328257088233e+00
2.246506057924130939e+00
2.246506057924130939e+00
2.246506057924130939e+00
2.203754753257850751e+00
2.203754753257850751e+00
2.203754753257850751e+00
2.206754844813379357e+00
2.206754844813379357e+00
2.206754844813379357e+00
2.098001525925473842e+00
2.098001525925473842e+00
2.098001525925473842e+00
2.098001525925473842e+00
2.174878872035889810e+00
2.174878872035889810e+00
2.174878872035889810e+00
2.420511368144779851e+00
2.420511368144779851e+00
2.420511368144779851e+00
2.420511368144779851e+00
2.355259376812036454e+00
2.355259376812036454e+00
2.355259376812036454e+00
2.326946012756737403e+00
2.326946012756737403e+00
2.326946012756737403e+00
2.329383587145603673e+00
2.329383587145603673e+00
2.329383587145603673e+00
2.329383587145603673e+00
2.306320383312479017e+00
2.306320383312479017e+00
2.306320383312479017e+00
2.288132328257088233e+00
2.288132328257088233e+00
2.288132328257088233e+00
2.323758415478988315e+00
2.323758415478988315e+00
2.323758415478988315e+00
2.323758415478988315e+00
2.365197180089724238e+00
2.365197180089724238e+00
2.365197180089724238e+00
2.261131504257332114e+00
2.261131504257332114e+00
2.261131504257332114e+00
2.214255073702200427e+00
2.214255073702200427e+00
2.214255073702200427e+00
2.214255073702200427e+00
2.206567339091158875e+00
2.206567339091158875e+00
2.206567339091158875e+00
2.205442304757835537e+00
2.205442304757835537e+00
2.205442304757835537e+00
2.103064180425428198e+00
2.103064180425428198e+00
2.103064180425428198e+00
2.286632282479323930e+00
2.286632282479323930e+00
2.286632282479323930e+00
2.286632282479323930e+00
2.389760429700613198e+00
2.389760429700613198e+00
2.389760429700613198e+00
2.302945280312509890e+00
2.302945280312509890e+00
2.302945280312509890e+00
2.302945280312509890e+00
2.288132328257088233e+00
2.288132328257088233e+00
2.288132328257088233e+00
2.299007660145878429e+00
2.299007660145878429e+00
2.299007660145878429e+00
2.289069856868190644e+00
2.289069856868190644e+00
2.289069856868190644e+00
2.289069856868190644e+00
2.292632465590380253e+00
2.292632465590380253e+00
2.292632465590380253e+00
2.355634388256477418e+00
2.355634388256477418e+00
2.355634388256477418e+00
2.342321481978820064e+00
2.342321481978820064e+00
2.342321481978820064e+00
2.342321481978820064e+00
2.276694479201635701e+00
2.276694479201635701e+00
2.276694479201635701e+00
2.240130863368633207e+00
2.240130863368633207e+00
2.240130863368633207e+00
2.241255897701956545e+00
2.241255897701956545e+00
2.241255897701956545e+00
2.241255897701956545e+00
2.188379284035767647e+00
2.188379284035767647e+00
2.188379284035767647e+00
2.100626606036561483e+00
2.100626606036561483e+00
2.100626606036561483e+00
2.391635486922818910e+00
2.391635486922818910e+00
2.391635486922818910e+00
2.391635486922818910e+00
2.377572557756279181e+00
2.377572557756279181e+00
2.377572557756279181e+00
2.307445417645802355e+00
2.307445417645802355e+00
2.307445417645802355e+00
2.318320749534592551e+00
2.318320749534592551e+00
2.318320749534592551e+00
2.318320749534592551e+00
2.325258461256752618e+00
2.325258461256752618e+00
2.325258461256752618e+00
2.298070131534776017e+00
2.298070131534776017e+00
2.298070131534776017e+00
2.301632740256966070e+00
2.301632740256966070e+00
2.301632740256966070e+00
2.301632740256966070e+00
2.378697592089602519e+00
2.378697592089602519e+00
2.378697592089602519e+00
2.304257820368053267e+00
2.304257820368053267e+00
2.304257820368053267e+00
2.251756218146305777e+00
2.251756218146305777e+00
2.251756218146305777e+00
2.251756218146305777e+00
2.205817316202276945e+00
2.205817316202276945e+00
2.205817316202276945e+00
2.215567613757744247e+00
2.215567613757744247e+00
2.215567613757744247e+00
2.123502304147465658e+00
2.123502304147465658e+00
2.123502304147465658e+00
2.123502304147465658e+00
2.132315073091830104e+00
2.132315073091830104e+00
2.132315073091830104e+00
2.412073610644855925e+00
2.412073610644855925e+00
2.412073610644855925e+00
2.339883907589953349e+00
2.339883907589953349e+00
2.339883907589953349e+00
2.339883907589953349e+00
2.297507614368114126e+00
2.297507614368114126e+00
2.297507614368114126e+00
2.311945554979094819e+00
2.311945554979094819e+00
2.311945554979094819e+00
2.309695486312448587e+00
2.309695486312448587e+00
2.309695486312448587e+00
2.309695486312448587e+00
2.306132877590258534e+00
2.306132877590258534e+00
2.306132877590258534e+00
2.322258369701224012e+00
2.322258369701224012e+00
2.322258369701224012e+00
2.322258369701224012e+00
2.385635303811762142e+00
2.385635303811762142e+00
2.385635303811762142e+00
2.274256904812768987e+00
2.274256904812768987e+00
2.274256904812768987e+00
2.228693014313181120e+00
2.228693014313181120e+00
2.228693014313181120e+00
2.228693014313181120e+00
2.196254524369030126e+00
2.196254524369030126e+00
2.196254524369030126e+00
2.200004638813440216e+00
2.200004638813440216e+00
2.200004638813440216e+00
2.105314249092073986e+00
2.105314249092073986e+00
2.105314249092073986e+00
2.237505783257545566e+00
2.237505783257545566e+00
2.237505783257545566e+00
2.237505783257545566e+00
2.421261391033662225e+00
2.421261391033662225e+00
2.421261391033662225e+00
2.347196630756553937e+00
2.347196630756553937e+00
2.347196630756553937e+00
2.318320749534592551e+00
2.318320749534592551e+00
2.318320749534592551e+00
2.318320749534592551e+00
2.321695852534562121e+00
2.321695852534562121e+00
2.321695852534562121e+00
2.310258003479110034e+00
2.310258003479110034e+00
2.310258003479110034e+00
2.303882808923612302e+00
2.303882808923612302e+00
2.303882808923612302e+00
2.303882808923612302e+00
2.345321573534348669e+00
2.345321573534348669e+00
2.345321573534348669e+00
2.347196630756553937e+00
2.347196630756553937e+00
2.347196630756553937e+00
2.255506332590716312e+00
2.255506332590716312e+00
2.255506332590716312e+00
2.255506332590716312e+00
2.220817773979919085e+00
2.220817773979919085e+00
2.220817773979919085e+00
2.207317361980041248e+00
2.207317361980041248e+00
2.207317361980041248e+00
2.207317361980041248e+00
2.175066377758110736e+00
2.175066377758110736e+00
2.175066377758110736e+00
2.080938505203405953e+00
2.080938505203405953e+00
2.080938505203405953e+00
2.325445966978973100e+00
2.325445966978973100e+00
2.325445966978973100e+00
2.325445966978973100e+00
2.383010223700674501e+00
2.383010223700674501e+00
2.383010223700674501e+00
2.300507705923642732e+00
2.300507705923642732e+00
2.300507705923642732e+00
2.291694936979278285e+00
2.291694936979278285e+00
2.291694936979278285e+00
2.291694936979278285e+00
2.312695577867977192e+00
2.312695577867977192e+00
2.312695577867977192e+00
2.315508163701284872e+00
2.315508163701284872e+00
2.315508163701284872e+00
2.319070772423474924e+00
2.319070772423474924e+00
2.319070772423474924e+00
2.319070772423474924e+00
2.381322672200689716e+00
2.381322672200689716e+00
2.381322672200689716e+00
2.337446333201086635e+00
2.337446333201086635e+00
2.337446333201086635e+00
2.276881984923856628e+00
2.276881984923856628e+00
2.276881984923856628e+00
2.276881984923856628e+00
2.225317911313211550e+00
2.225317911313211550e+00
2.225317911313211550e+00
2.227567979979857782e+00
2.227567979979857782e+00
2.227567979979857782e+00
2.161378460036011973e+00
2.161378460036011973e+00
2.161378460036011973e+00
2.161378460036011973e+00
2.094251411481063307e+00
2.094251411481063307e+00
2.094251411481063307e+00
2.390697958311716054e+00
2.390697958311716054e+00
2.390697958311716054e+00
2.350571733756523507e+00
2.350571733756523507e+00
2.350571733756523507e+00
2.350571733756523507e+00
2.295632557145908859e+00
2.295632557145908859e+00
2.295632557145908859e+00
2.303507797479171337e+00
2.303507797479171337e+00
2.303507797479171337e+00
2.304445326090273749e+00
2.304445326090273749e+00
2.304445326090273749e+00
2.304445326090273749e+00
2.289632374034852091e+00
2.289632374034852091e+00
2.289632374034852091e+00
2.302195257423627517e+00
2.302195257423627517e+00
2.302195257423627517e+00
2.392760521256141804e+00
2.392760521256141804e+00
2.392760521256141804e+00
2.392760521256141804e+00
2.299195165868098911e+00
2.299195165868098911e+00
2.299195165868098911e+00
2.252693746757408633e+00
2.252693746757408633e+00
2.252693746757408633e+00
2.252693746757408633e+00
2.209942442091128445e+00
2.209942442091128445e+00
2.209942442091128445e+00
2.221005279702139568e+00
2.221005279702139568e+00
2.221005279702139568e+00
2.120127201147496088e+00
2.120127201147496088e+00
2.120127201147496088e+00
2.182191595202490397e+00
2.182191595202490397e+00
2.182191595202490397e+00
2.182191595202490397e+00
2.418636310922574584e+00
2.418636310922574584e+00
2.418636310922574584e+00
2.342133976256599581e+00
2.342133976256599581e+00
2.342133976256599581e+00
2.299570177312540320e+00
2.299570177312540320e+00
2.299570177312540320e+00
2.299570177312540320e+00
2.312883083590197675e+00
2.312883083590197675e+00
2.312883083590197675e+00
2.304257820368053267e+00
2.304257820368053267e+00
2.304257820368053267e+00
2.298257637256996500e+00
2.298257637256996500e+00
2.298257637256996500e+00
2.298257637256996500e+00
2.328821069978942226e+00
2.328821069978942226e+00
2.328821069978942226e+00
2.359196996978667915e+00
2.359196996978667915e+00
2.359196996978667915e+00
2.263756584368419311e+00
2.263756584368419311e+00
2.263756584368419311e+00
2.263756584368419311e+00
2.224755394146549659e+00
2.224755394146549659e+00
2.224755394146549659e+00
2.198879604480116878e+00
2.198879604480116878e+00
2.198879604480116878e+00
2.198879604480116878e+00
2.191191869869075770e+00
2.191191869869075770e+00
2.191191869869075770e+00
2.095751457258827610e+00
2.095751457258827610e+00
2.095751457258827610e+00
2.274069399090548504e+00
2.274069399090548504e+00
2.274069399090548504e+00
2.274069399090548504e+00
2.408135990478225352e+00
2.408135990478225352e+00
2.408135990478225352e+00
2.334446241645558029e+00
2.334446241645558029e+00
2.334446241645558029e+00
2.311570543534653854e+00
2.311570543534653854e+00
2.311570543534653854e+00
2.311570543534653854e+00
2.307632923368022837e+00
2.307632923368022837e+00
2.307632923368022837e+00
2.296945097201452679e+00
2.296945097201452679e+00
2.296945097201452679e+00
2.304070314645832784e+00
2.304070314645832784e+00
2.304070314645832784e+00
2.304070314645832784e+00
2.358071962645344577e+00
2.358071962645344577e+00
2.358071962645344577e+00
2.351696768089846401e+00
2.351696768089846401e+00
2.351696768089846401e+00
2.278569536423841413e+00
2.278569536423841413e+00
2.278569536423841413e+00
2.278569536423841413e+00
2.228693014313181120e+00
2.228693014313181120e+00
2.228693014313181120e+00
2.219505233924375265e+00
2.219505233924375265e+00
2.219505233924375265e+00
2.180316537980285130e+00
2.180316537980285130e+00
2.180316537980285130e+00
2.180316537980285130e+00
2.089188756981108952e+00
2.089188756981108952e+00
2.089188756981108952e+00
2.368384777367473326e+00
2.368384777367473326e+00
2.368384777367473326e+00
2.377197546311838217e+00
2.377197546311838217e+00
2.377197546311838217e+00
2.377197546311838217e+00
2.307257911923581428e+00
2.307257911923581428e+00
2.307257911923581428e+00
2.309320474868007622e+00
2.309320474868007622e+00
2.309320474868007622e+00
2.310633014923550999e+00
2.310633014923550999e+00
2.310633014923550999e+00
2.310633014923550999e+00
2.293194982757042144e+00
2.293194982757042144e+00
2.293194982757042144e+00
2.302382763145847999e+00
2.302382763145847999e+00
2.302382763145847999e+00
2.383010223700674501e+00
2.383010223700674501e+00
2.383010223700674501e+00
2.383010223700674501e+00
2.315320657979064389e+00
2.315320657979064389e+00
2.315320657979064389e+00
2.260006469924008776e+00
2.260006469924008776e+00
2.260006469924008776e+00
2.213880062257759462e+00
2.213880062257759462e+00
2.213880062257759462e+00
2.213880062257759462e+00
2.217067659535508550e+00
2.217067659535508550e+00
2.217067659535508550e+00
2.119377178258613714e+00
2.119377178258613714e+00
2.119377178258613714e+00
2.117877132480849411e+00
2.117877132480849411e+00
2.117877132480849411e+00
2.117877132480849411e+00
2.417698782311472172e+00
2.417698782311472172e+00
2.417698782311472172e+00
2.353759331034272151e+00
2.353759331034272151e+00
2.353759331034272151e+00
2.295445051423688376e+00
2.295445051423688376e+00
2.295445051423688376e+00
2.295445051423688376e+00
2.303320291756950855e+00
2.303320291756950855e+00
2.303320291756950855e+00
2.299757683034760802e+00
2.299757683034760802e+00
2.299757683034760802e+00
2.299382671590319838e+00
2.299382671590319838e+00
2.299382671590319838e+00
2.299382671590319838e+00
2.315695669423505798e+00
2.315695669423505798e+00
2.315695669423505798e+00
2.385447798089541660e+00
2.385447798089541660e+00
2.385447798089541660e+00
2.281382122257148648e+00
2.281382122257148648e+00
2.281382122257148648e+00
2.281382122257148648e+00
2.241255897701956545e+00
2.241255897701956545e+00
2.241255897701956545e+00
2.205067293313394572e+00
2.205067293313394572e+00
2.205067293313394572e+00
2.203192236091189304e+00
2.203192236091189304e+00
2.203192236091189304e+00
2.203192236091189304e+00
2.092938871425519931e+00
2.092938871425519931e+00
2.092938871425519931e+00
2.213505050813318054e+00
2.213505050813318054e+00
2.213505050813318054e+00
2.213505050813318054e+00
2.423886471144749422e+00
2.423886471144749422e+00
2.423886471144749422e+00
2.358446974089785542e+00
2.358446974089785542e+00
2.358446974089785542e+00
2.333883724478896582e+00
2.333883724478896582e+00
2.333883724478896582e+00
2.333883724478896582e+00
2.336133793145542814e+00
2.336133793145542814e+00
2.336133793145542814e+00
2.313445600756859122e+00
2.313445600756859122e+00
2.313445600756859122e+00
2.302757774590289408e+00
2.302757774590289408e+00
2.302757774590289408e+00
2.302757774590289408e+00
2.333321207312235135e+00
2.333321207312235135e+00
2.333321207312235135e+00
2.333696218756676100e+00
2.333696218756676100e+00
2.333696218756676100e+00
2.244443494979705633e+00
2.244443494979705633e+00
2.244443494979705633e+00
2.244443494979705633e+00
2.215567613757744247e+00
2.215567613757744247e+00
2.215567613757744247e+00
2.215567613757744247e+00
2.215567613757744247e+00
2.215567613757744247e+00
2.189316812646870059e+00
2.189316812646870059e+00
2.189316812646870059e+00
2.189316812646870059e+00
2.097439008758812395e+00
2.097439008758812395e+00
2.097439008758812395e+00
2.328071047090059853e+00
2.328071047090059853e+00
2.328071047090059853e+00
2.400823267311624321e+00
2.400823267311624321e+00
2.400823267311624321e+00
2.400823267311624321e+00
2.318883266701254442e+00
2.318883266701254442e+00
2.318883266701254442e+00
2.303320291756950855e+00
2.303320291756950855e+00
2.303320291756950855e+00
2.310820520645771925e+00
2.310820520645771925e+00
2.310820520645771925e+00
2.310820520645771925e+00
2.300132694479201767e+00
2.300132694479201767e+00
2.300132694479201767e+00
2.302945280312509890e+00
2.302945280312509890e+00
2.302945280312509890e+00
2.363884640034180418e+00
2.363884640034180418e+00
2.363884640034180418e+00
2.363884640034180418e+00
2.334071230201117064e+00
2.334071230201117064e+00
2.334071230201117064e+00
2.266569170201727434e+00
2.266569170201727434e+00
2.266569170201727434e+00
2.266569170201727434e+00
2.225317911313211550e+00
2.225317911313211550e+00
2.225317911313211550e+00
2.212192510757774677e+00
2.212192510757774677e+00
2.212192510757774677e+00
2.145627979369487459e+00
2.145627979369487459e+00
2.145627979369487459e+00
2.078688436536759720e+00
2.078688436536759720e+00
2.078688436536759720e+00
2.078688436536759720e+00
2.375697500534073914e+00
2.375697500534073914e+00
2.375697500534073914e+00
2.342133976256599581e+00
2.342133976256599581e+00
2.342133976256599581e+00
2.282319650868251504e+00
2.282319650868251504e+00
2.282319650868251504e+00
2.282319650868251504e+00
2.291882442701498768e+00
2.291882442701498768e+00
2.291882442701498768e+00
2.302382763145847999e+00
2.302382763145847999e+00
2.302570268868068482e+00
2.302570268868068482e+00
2.321695852534562121e+00
2.321695852534562121e+00
2.321695852534562121e+00
2.395573107089449927e+00
2.395573107089449927e+00
2.303132786034730373e+00
2.303132786034730373e+00
2.251568712424085295e+00
2.251568712424085295e+00
2.220255256813257638e+00
2.220255256813257638e+00
2.241443403424177028e+00
2.241443403424177028e+00
2.134940153202917745e+00
2.134940153202917745e+00
2.168316171758171151e+00
2.168316171758171151e+00
2.404573381756035300e+00
2.404573381756035300e+00
2.340258919034394314e+00
2.340258919034394314e+00
2.340258919034394314e+00
2.303695303201391820e+00
2.303695303201391820e+00
2.311758049256874337e+00
2.311758049256874337e+00
2.291882442701498768e+00
2.291882442701498768e+00
2.268819238868374111e+00
2.268819238868374111e+00
2.294132511368144556e+00
2.294132511368144556e+00
2.344946562089907705e+00
2.344946562089907705e+00
2.253256263924070080e+00
2.253256263924070080e+00
2.253256263924070080e+00
2.233380657368694511e+00
2.233380657368694511e+00
2.213317545091097571e+00
2.213317545091097571e+00
2.218380199591051927e+00
2.218380199591051927e+00
2.122564775536362802e+00
2.122564775536362802e+00
2.282132145146031021e+00
2.282132145146031021e+00
2.425761528366954689e+00
2.425761528366954689e+00
2.339133884701071420e+00
2.339133884701071420e+00
2.308382946256904766e+00
2.308382946256904766e+00
2.305757866145817125e+00
2.305757866145817125e+00
2.291319925534837321e+00
2.291319925534837321e+00
2.291319925534837321e+00
2.276506973479415219e+00
2.276506973479415219e+00
2.318133243812372069e+00
2.318133243812372069e+00
2.293194982757042144e+00
2.293194982757042144e+00
2.222317819757682944e+00
2.222317819757682944e+00
2.182941618091372327e+00
2.182941618091372327e+00
2.160440931424909561e+00
2.160440931424909561e+00
2.090876308481094181e+00
2.090876308481094181e+00
1.986810632648701391e+00
1.986810632648701391e+00
2.267131687368389326e+00
2.267131687368389326e+00
2.327321024201178368e+00
2.327321024201178368e+00
2.327321024201178368e+00
2.283444685201574842e+00
2.283444685201574842e+00
2.298632648701437464e+00
2.298632648701437464e+00
2.321320841090121156e+00
2.321320841090121156e+00
2.316445692312387283e+00
2.316445692312387283e+00
2.328071047090059853e+00
2.328071047090059853e+00
2.424823999755851833e+00
2.424823999755851833e+00
2.400635761589403838e+00
2.400635761589403838e+00
2.363509628589739453e+00
2.363509628589739453e+00
2.363509628589739453e+00
2.298257637256996500e+00
2.298257637256996500e+00
2.279507065034943825e+00
2.279507065034943825e+00
2.193629444257942485e+00
2.193629444257942485e+00
2.165691091647083955e+00
2.165691091647083955e+00
2.432324228644673347e+00
2.432324228644673347e+00
2.349446699423200169e+00
2.349446699423200169e+00
2.278007019257179522e+00
2.278007019257179522e+00
2.289632374034852091e+00
2.289632374034852091e+00
2.289632374034852091e+00
2.288319833979308715e+00
2.288319833979308715e+00
2.266194158757286470e+00
2.266194158757286470e+00
2.265819147312845505e+00
2.265819147312845505e+00
2.344571550645466296e+00
2.344571550645466296e+00
2.248756126590777171e+00
2.248756126590777171e+00
2.214067567979979945e+00
2.214067567979979945e+00
2.189691824091311467e+00
2.189691824091311467e+00
2.206567339091158875e+00
2.206567339091158875e+00
2.206567339091158875e+00
2.098376537369914807e+00
2.098376537369914807e+00
2.190441846980193397e+00
2.190441846980193397e+00
2.399885738700521909e+00
2.399885738700521909e+00
2.336696310312204705e+00
2.336696310312204705e+00
2.315133152256843907e+00
2.315133152256843907e+00
2.342508987701040546e+00
2.342508987701040546e+00
2.335383770256660885e+00
2.335383770256660885e+00
2.293945005645924073e+00
2.293945005645924073e+00
2.293945005645924073e+00
2.281382122257148648e+00
2.281382122257148648e+00
2.264881618701742649e+00
2.264881618701742649e+00
2.156878322702719064e+00
2.156878322702719064e+00
2.137377727591784460e+00
2.137377727591784460e+00
2.155565782647175688e+00
2.155565782647175688e+00
2.172816309091464060e+00
2.172816309091464060e+00
2.100251594592120075e+00
2.100251594592120075e+00
2.333133701590014208e+00
2.333133701590014208e+00
2.333133701590014208e+00
2.485575853755302767e+00
2.485575853755302767e+00
2.465700247199926753e+00
2.465700247199926753e+00
2.479575670644245999e+00
2.479575670644245999e+00
2.468512833033234433e+00
2.468512833033234433e+00
2.393698049867244659e+00
2.393698049867244659e+00
2.363134617145298488e+00
2.363134617145298488e+00
2.402323313089388623e+00
2.402323313089388623e+00
2.327883541367839371e+00
2.327883541367839371e+00
2.327883541367839371e+00
2.208254890591143660e+00
2.208254890591143660e+00
2.126877407147435228e+00
2.126877407147435228e+00
2.050750083925901190e+00
2.050750083925901190e+00
1.979872920926541990e+00
1.979872920926541990e+00
1.921183629871517029e+00
1.921183629871517029e+00
2.254193792535172935e+00
2.254193792535172935e+00
2.299195165868098911e+00
2.299195165868098911e+00
2.312133060701315301e+00
2.312133060701315301e+00
2.312133060701315301e+00
2.369509811700796664e+00
2.369509811700796664e+00
2.394073061311685624e+00
2.394073061311685624e+00
2.385822809533982625e+00
2.385822809533982625e+00
2.404010864589373409e+00
2.404010864589373409e+00
2.500576311532944906e+00
2.500576311532944906e+00
2.417136265144810281e+00
2.417136265144810281e+00
2.346446607867672007e+00
2.346446607867672007e+00
2.270319284646137969e+00
2.270319284646137969e+00
2.270319284646137969e+00
2.264506607257301685e+00
2.264506607257301685e+00
2.143377910702841227e+00
2.143377910702841227e+00
2.163441022980437278e+00
2.163441022980437278e+00
2.449574755088961275e+00
2.449574755088961275e+00
2.381697683645130681e+00
2.381697683645130681e+00
2.324883449812311209e+00
2.324883449812311209e+00
2.337821344645527599e+00
2.337821344645527599e+00
2.320758323923459709e+00
2.320758323923459709e+00
2.320758323923459709e+00
2.305570360423596643e+00
2.305570360423596643e+00
2.347946653645436310e+00
2.347946653645436310e+00
2.397260658589434712e+00
2.397260658589434712e+00
2.288694845423749680e+00
2.288694845423749680e+00
2.245756035035248566e+00
2.245756035035248566e+00
2.200942167424543072e+00
2.200942167424543072e+00
2.208067384868923178e+00
2.208067384868923178e+00
2.105689260536515395e+00
2.105689260536515395e+00
2.231318094424268317e+00
2.231318094424268317e+00
2.231318094424268317e+00
2.394448072756126589e+00
2.394448072756126589e+00
2.321320841090121156e+00
2.321320841090121156e+00
2.289819879757073018e+00
2.289819879757073018e+00
2.298632648701437464e+00
2.298632648701437464e+00
2.298445142979216982e+00
2.298445142979216982e+00
2.296382580034791232e+00
2.296382580034791232e+00
2.340446424756614796e+00
2.340446424756614796e+00
2.322070863979003530e+00
2.322070863979003530e+00
2.322070863979003530e+00
2.222505325479903426e+00
2.222505325479903426e+00
2.161753471480452937e+00
2.161753471480452937e+00
2.136627704702902530e+00
2.136627704702902530e+00
2.095376445814386202e+00
2.095376445814386202e+00
1.948559465315714112e+00
1.948559465315714112e+00
2.193254432813501520e+00
2.193254432813501520e+00
2.247068575090792386e+00
2.247068575090792386e+00
2.212192510757774677e+00
2.212192510757774677e+00
2.252131229590746742e+00
2.252131229590746742e+00
2.252131229590746742e+00
2.304070314645832784e+00
2.304070314645832784e+00
2.325633472701193583e+00
2.325633472701193583e+00
2.357134434034241721e+00
2.357134434034241721e+00
2.383385235145115466e+00
2.383385235145115466e+00
2.361447065645314147e+00
2.361447065645314147e+00
2.351321756645405436e+00
2.351321756645405436e+00
2.274444410534989469e+00
2.274444410534989469e+00
2.246693563646351421e+00
2.246693563646351421e+00
2.182941618091372327e+00
2.182941618091372327e+00
2.182941618091372327e+00
2.170378734702597345e+00
2.170378734702597345e+00
2.428386608478041886e+00
2.428386608478041886e+00
2.353196813867610704e+00
2.353196813867610704e+00
2.238818323313089387e+00
2.238818323313089387e+00
2.284569719534897736e+00
2.284569719534897736e+00
2.255881344035157721e+00
2.255881344035157721e+00
2.172628803369243577e+00
2.172628803369243577e+00
2.194004455702383449e+00
2.194004455702383449e+00
2.194004455702383449e+00
2.274819421979430434e+00
2.274819421979430434e+00
2.195879512924588717e+00
2.195879512924588717e+00
2.183691640980254700e+00
2.183691640980254700e+00
2.206379833368938392e+00
2.206379833368938392e+00
2.271631824701681346e+00
2.271631824701681346e+00
2.196629535813471090e+00
2.196629535813471090e+00
2.289069856868190644e+00
2.289069856868190644e+00
2.553452925199133361e+00
2.553452925199133361e+00
2.553452925199133361e+00
2.503013885921811621e+00
2.503013885921811621e+00
2.494763634144108178e+00
2.494763634144108178e+00
2.499076265755180604e+00
2.499076265755180604e+00
2.467387798699911539e+00
2.467387798699911539e+00
2.431199194311350009e+00
2.431199194311350009e+00
2.437386883144627259e+00
2.437386883144627259e+00
2.445074617755668811e+00
2.445074617755668811e+00
2.339508896145511940e+00
2.339508896145511940e+00
2.247818597979674760e+00
2.247818597979674760e+00
2.247818597979674760e+00
2.137190221869563977e+00
2.137190221869563977e+00
2.061625415814691387e+00
2.061625415814691387e+00
1.940684224982451855e+00
1.940684224982451855e+00
2.127814935758537640e+00
2.127814935758537640e+00
2.271256813257240381e+00
2.271256813257240381e+00
2.229443037202063049e+00
2.229443037202063049e+00
2.255881344035157721e+00
2.255881344035157721e+00
2.288882351145970162e+00
2.288882351145970162e+00
2.288882351145970162e+00
2.295445051423688376e+00
2.295445051423688376e+00
2.317570726645710621e+00
2.317570726645710621e+00
2.398010681478316641e+00
2.398010681478316641e+00
2.414886196478164049e+00
2.414886196478164049e+00
2.319258278145695407e+00
2.319258278145695407e+00
2.257756401257362544e+00
2.257756401257362544e+00
2.246131046479689974e+00
2.246131046479689974e+00
2.225130405590991067e+00
2.225130405590991067e+00
2.225130405590991067e+00
2.186129215369121415e+00
2.186129215369121415e+00
2.502263863032929692e+00
2.502263863032929692e+00
2.461575121311075254e+00
2.461575121311075254e+00
2.352821802423169739e+00
2.352821802423169739e+00
2.319820795312356854e+00
2.319820795312356854e+00
2.265631641590625023e+00
2.265631641590625023e+00
2.239005829035309869e+00
2.239005829035309869e+00
2.242568437757499922e+00
2.242568437757499922e+00
2.242568437757499922e+00
2.307445417645802355e+00
2.307445417645802355e+00
2.191754387035737217e+00
2.191754387035737217e+00
2.115064546647541732e+00
2.115064546647541732e+00
2.035187108981597159e+00
2.035187108981597159e+00
2.026561845759453195e+00
2.026561845759453195e+00
1.953997131260109432e+00
1.953997131260109432e+00
2.105314249092073986e+00
2.105314249092073986e+00
2.528889675588243957e+00
2.528889675588243957e+00
2.448449720755638381e+00
2.448449720755638381e+00
2.448449720755638381e+00
2.375509994811853431e+00
2.375509994811853431e+00
2.294882534257026929e+00
2.294882534257026929e+00
2.207317361980041248e+00
2.207317361980041248e+00
2.193441938535722002e+00
2.193441938535722002e+00
2.253068758201849597e+00
2.253068758201849597e+00
2.371572374645222414e+00
2.371572374645222414e+00
2.295820062868129341e+00
2.295820062868129341e+00
2.322820886867885459e+00
2.322820886867885459e+00
2.322820886867885459e+00
2.251006195257423848e+00
2.251006195257423848e+00
2.170566240424817828e+00
2.170566240424817828e+00
2.042687337870418673e+00
2.042687337870418673e+00
2.139815301980651618e+00
2.139815301980651618e+00
2.269006744590594149e+00
2.269006744590594149e+00
2.205817316202276945e+00
2.205817316202276945e+00
2.227567979979857782e+00
2.227567979979857782e+00
2.292632465590380253e+00
2.292632465590380253e+00
2.300132694479201767e+00
2.300132694479201767e+00
2.300132694479201767e+00
2.365197180089724238e+00
2.365197180089724238e+00
2.420886379589221260e+00
2.420886379589221260e+00
2.458200018311105683e+00
2.458200018311105683e+00
2.416011230811487387e+00
2.416011230811487387e+00
2.410198553422650658e+00
2.410198553422650658e+00
2.430449171422468080e+00
2.430449171422468080e+00
2.412073610644855925e+00
2.412073610644855925e+00
2.319820795312356854e+00
2.319820795312356854e+00
2.319820795312356854e+00
2.527389629810480098e+00
2.527389629810480098e+00
2.500013794366283459e+00
2.500013794366283459e+00
2.369697317423017147e+00
2.369697317423017147e+00
2.334633747367778511e+00
2.334633747367778511e+00
2.276881984923856628e+00
2.276881984923856628e+00
2.197379558702353020e+00
2.197379558702353020e+00
2.166628620258186366e+00
2.166628620258186366e+00
2.231505600146489243e+00
2.231505600146489243e+00
2.231505600146489243e+00
2.170566240424817828e+00
2.170566240424817828e+00
2.126877407147435228e+00
2.126877407147435228e+00
2.107001800592058771e+00
2.107001800592058771e+00
2.129877498702963390e+00
2.129877498702963390e+00
2.094063905758842381e+00
2.094063905758842381e+00
2.074563310647907777e+00
2.074563310647907777e+00
2.432136722922452865e+00
2.432136722922452865e+00
2.450137272255623166e+00
2.450137272255623166e+00
2.386947843867305519e+00
2.386947843867305519e+00
2.386947843867305519e+00
2.365947202978606612e+00
2.365947202978606612e+00
2.327508529923398850e+00
2.327508529923398850e+00
2.278007019257179522e+00
2.278007019257179522e+00
2.263194067201757864e+00
2.263194067201757864e+00
2.340821436201055761e+00
2.340821436201055761e+00
2.243505966368602778e+00
2.243505966368602778e+00
2.203379741813409787e+00
2.203379741813409787e+00
2.210317453535568966e+00
2.210317453535568966e+00
2.210317453535568966e+00
2.275381939146092325e+00
2.275381939146092325e+00
2.187816766869105756e+00
2.187816766869105756e+00
2.183504135258034218e+00
2.183504135258034218e+00
2.378697592089602519e+00
2.378697592089602519e+00
2.292069948423719250e+00
2.292069948423719250e+00
2.221005279702139568e+00
2.221005279702139568e+00
2.202254707480086449e+00
2.202254707480086449e+00
2.179566515091402756e+00
2.179566515091402756e+00
2.179566515091402756e+00
2.202817224646748340e+00
2.202817224646748340e+00
2.314945646534623425e+00
2.314945646534623425e+00
2.530014709921567295e+00
2.530014709921567295e+00
2.508264046143986459e+00
2.508264046143986459e+00
2.397635670033875677e+00
2.397635670033875677e+00
2.222130314035462462e+00
2.222130314035462462e+00
2.107751823480941145e+00
2.107751823480941145e+00
1.886120059816278616e+00
1.886120059816278616e+00
1.886120059816278616e+00
2.045499923703726353e+00
2.045499923703726353e+00
2.224755394146549659e+00
2.224755394146549659e+00
2.162503494369335311e+00
2.162503494369335311e+00
2.170378734702597345e+00
2.170378734702597345e+00
2.208442396313364142e+00
2.208442396313364142e+00
2.267319193090609808e+00
2.267319193090609808e+00
2.396885647144993747e+00
2.396885647144993747e+00
2.558515579699087716e+00
2.558515579699087716e+00
2.558515579699087716e+00
2.596954252754295922e+00
2.596954252754295922e+00
2.510514114810632691e+00
2.510514114810632691e+00
2.448637226477858864e+00
2.448637226477858864e+00
2.379822626422925413e+00
2.379822626422925413e+00
2.300507705923642732e+00
2.300507705923642732e+00
2.198317087313455875e+00
2.198317087313455875e+00
2.485763359477523249e+00
2.485763359477523249e+00
2.418823816644795066e+00
2.418823816644795066e+00
2.243693472090823260e+00
2.243693472090823260e+00
2.243693472090823260e+00
2.212005005035553751e+00
2.212005005035553751e+00
2.200567155980101663e+00
2.200567155980101663e+00
2.166441114535965884e+00
2.166441114535965884e+00
2.228693014313181120e+00
2.228693014313181120e+00
2.371384868923001932e+00
2.371384868923001932e+00
2.322445875423444495e+00
2.322445875423444495e+00
2.276131962034974254e+00
2.276131962034974254e+00
2.179003997924741309e+00
2.179003997924741309e+00
2.184441663869136629e+00
2.184441663869136629e+00
2.184441663869136629e+00
2.071563219092379615e+00
2.071563219092379615e+00
2.026561845759453195e+00
2.026561845759453195e+00
2.320383312479018745e+00
2.320383312479018745e+00
2.285694753868221074e+00
2.285694753868221074e+00
2.277069490646077110e+00
2.277069490646077110e+00
2.358446974089785542e+00
2.358446974089785542e+00
2.420511368144779851e+00
2.420511368144779851e+00
2.447512192144535526e+00
2.447512192144535526e+00
2.447512192144535526e+00
2.451824823755607952e+00
2.451824823755607952e+00
2.482575762199774161e+00
2.482575762199774161e+00
2.338196356089969008e+00
2.338196356089969008e+00
2.220630268257698603e+00
2.220630268257698603e+00
2.153878231147190458e+00
2.153878231147190458e+00
2.123877315591906623e+00
2.123877315591906623e+00
1.986248115482039944e+00
1.986248115482039944e+00
2.097063997314370987e+00
2.097063997314370987e+00
2.097063997314370987e+00
2.331071138645588459e+00
2.331071138645588459e+00
2.212005005035553751e+00
2.212005005035553751e+00
2.128002441480758122e+00
2.128002441480758122e+00
2.119377178258613714e+00
2.119377178258613714e+00
2.093688894314401416e+00
2.093688894314401416e+00
2.093688894314401416e+00
2.093688894314401416e+00
2.205442304757835537e+00
2.205442304757835537e+00
2.250256172368541474e+00
2.250256172368541474e+00
2.250256172368541474e+00
2.214630085146641392e+00
2.214630085146641392e+00
2.263194067201757864e+00
2.263194067201757864e+00
2.346634113589892490e+00
2.346634113589892490e+00
2.311570543534653854e+00
2.311570543534653854e+00
2.163253517258217240e+00
2.163253517258217240e+00
2.315508163701284872e+00
2.315508163701284872e+00
2.369697317423017147e+00
2.369697317423017147e+00
2.279132053590502860e+00
2.279132053590502860e+00
2.322445875423444495e+00
2.322445875423444495e+00
2.372509903256325270e+00
2.372509903256325270e+00
2.338196356089969008e+00
2.338196356089969008e+00
2.338196356089969008e+00
2.414136173589282119e+00
2.414136173589282119e+00
2.548390270699179450e+00
2.548390270699179450e+00
2.476013061922055947e+00
2.476013061922055947e+00
2.438886928922391562e+00
2.438886928922391562e+00
2.493826105533005766e+00
2.493826105533005766e+00
2.554390453810235773e+00
2.554390453810235773e+00
2.320945829645680192e+00
2.320945829645680192e+00
2.263944090090640238e+00
2.263944090090640238e+00
2.263944090090640238e+00
2.567515854365672645e+00
2.567515854365672645e+00
2.352634296700948813e+00
2.352634296700948813e+00
2.171878780480361648e+00
2.171878780480361648e+00
2.185004181035798521e+00
2.185004181035798521e+00
2.207879879146702695e+00
2.207879879146702695e+00
2.179379009369182274e+00
2.179379009369182274e+00
2.175441389202551257e+00
2.175441389202551257e+00
2.357696951200903612e+00
2.357696951200903612e+00
2.357696951200903612e+00
2.253631275368511044e+00
2.253631275368511044e+00
2.187254249702444309e+00
2.187254249702444309e+00
2.155378276924954761e+00
2.155378276924954761e+00
2.191754387035737217e+00
2.191754387035737217e+00
2.016436536759544484e+00
2.016436536759544484e+00
2.010061342204047197e+00
2.010061342204047197e+00
2.281382122257148648e+00
2.281382122257148648e+00
2.202629718924527857e+00
2.202629718924527857e+00
2.205817316202276945e+00
2.205817316202276945e+00
2.205817316202276945e+00
2.235818231757560781e+00
2.235818231757560781e+00
2.167191137424848257e+00
2.167191137424848257e+00
2.146753013702810797e+00
2.146753013702810797e+00
2.185566698202459968e+00
2.185566698202459968e+00
2.302945280312509890e+00
2.302945280312509890e+00
2.307257911923581428e+00
2.307257911923581428e+00
2.410011047700430176e+00
2.410011047700430176e+00
2.544640156254768470e+00
2.544640156254768470e+00
2.544640156254768470e+00
2.489513473921933784e+00
2.489513473921933784e+00
2.262819055757316900e+00
2.262819055757316900e+00
2.400448255867183356e+00
2.400448255867183356e+00
2.639330545976134701e+00
2.639330545976134701e+00
2.460262581255531433e+00
2.460262581255531433e+00
2.323945921201208797e+00
2.323945921201208797e+00
2.273506881923887057e+00
2.273506881923887057e+00
2.221755302591021497e+00
2.221755302591021497e+00
2.173003814813684542e+00
2.173003814813684542e+00
2.318883266701254442e+00
2.318883266701254442e+00
2.318883266701254442e+00
2.367259743034150432e+00
2.367259743034150432e+00
2.326571001312295994e+00
2.326571001312295994e+00
2.217817682424390480e+00
2.217817682424390480e+00
2.182004089480269915e+00
2.182004089480269915e+00
2.065188024536881883e+00
2.065188024536881883e+00
1.844868800927762731e+00
1.844868800927762731e+00
2.219692739646595747e+00
2.219692739646595747e+00
2.219692739646595747e+00
2.349071687978759204e+00
2.349071687978759204e+00
2.425761528366954689e+00
2.425761528366954689e+00
2.439074434644612044e+00
2.439074434644612044e+00
2.491763542588580016e+00
2.491763542588580016e+00
2.557390545365764378e+00
2.557390545365764378e+00
2.538639973143711703e+00
2.538639973143711703e+00
2.611954710531937618e+00
2.611954710531937618e+00
2.437574388866847741e+00
2.437574388866847741e+00
2.437574388866847741e+00
2.064625507370219992e+00
2.064625507370219992e+00
2.285132236701559627e+00
2.285132236701559627e+00
2.415636219367045978e+00
2.415636219367045978e+00
2.268256721701712220e+00
2.268256721701712220e+00
1.990185735648670962e+00
1.990185735648670962e+00
2.157253334147160473e+00
2.157253334147160473e+00
2.118814661091952267e+00
2.118814661091952267e+00
2.033687063203833301e+00
2.033687063203833301e+00
2.033687063203833301e+00
2.046999969481490211e+00
2.046999969481490211e+00
2.117689626758628929e+00
2.117689626758628929e+00
2.107376812036500180e+00
2.107376812036500180e+00
1.969747611926633502e+00
1.969747611926633502e+00
1.758616168706320426e+00
1.758616168706320426e+00
1.752803491317484141e+00
1.752803491317484141e+00
1.941996765037995676e+00
1.941996765037995676e+00
2.116377086703085553e+00
2.116377086703085553e+00
2.116377086703085553e+00
2.279319559312723342e+00
2.279319559312723342e+00
2.279694570757164307e+00
2.279694570757164307e+00
2.478638142033143144e+00
2.478638142033143144e+00
2.808460707419049296e+00
2.808460707419049296e+00
2.841086703085421661e+00
2.841086703085421661e+00
2.847086886196477984e+00
2.847086886196477984e+00
2.706832605975524331e+00
2.706832605975524331e+00
2.416386242255928352e+00
2.416386242255928352e+00
2.211067476424451339e+00
2.211067476424451339e+00
2.244631000701926116e+00
2.244631000701926116e+00
2.244631000701926116e+00
2.198129581591235393e+00
2.198129581591235393e+00
2.078125919370098273e+00
2.078125919370098273e+00
1.989998229926450479e+00
1.989998229926450479e+00
1.902995574816126023e+00
1.902995574816126023e+00
1.968997589037751350e+00
1.968997589037751350e+00
2.006311227759636218e+00
2.006311227759636218e+00
2.272381847590563719e+00
2.272381847590563719e+00
2.482763267921994643e+00
2.482763267921994643e+00
2.482763267921994643e+00
2.601079378643146978e+00
2.601079378643146978e+00
2.664268807031464625e+00
2.664268807031464625e+00
2.671206518753624248e+00
2.671206518753624248e+00
2.608767113254188974e+00
2.608767113254188974e+00
2.545202673421430362e+00
2.545202673421430362e+00
2.574266060365611786e+00
2.574266060365611786e+00
2.323383404034546906e+00
2.323383404034546906e+00
2.158940885647145258e+00
2.158940885647145258e+00
2.158940885647145258e+00
2.034062074648274265e+00
2.034062074648274265e+00
2.019061616870632125e+00
2.019061616870632125e+00
1.963747428815576734e+00
1.963747428815576734e+00
1.969747611926633502e+00
1.969747611926633502e+00
2.431574205755790974e+00
2.431574205755790974e+00
2.542202581865901756e+00
2.542202581865901756e+00
2.485575853755302767e+00
2.485575853755302767e+00
2.437574388866847741e+00
2.437574388866847741e+00
2.437574388866847741e+00
2.500576311532944906e+00
2.500576311532944906e+00
2.611392193365276171e+00
2.611392193365276171e+00
2.515576769310586602e+00
2.515576769310586602e+00
2.359009491256446989e+00
2.359009491256446989e+00
2.299382671590319838e+00
2.299382671590319838e+00
2.290944914090395912e+00
2.290944914090395912e+00
2.290382396923734465e+00
2.290382396923734465e+00
2.071188207647938206e+00
2.071188207647938206e+00
2.071188207647938206e+00
1.746990813928647857e+00
1.746990813928647857e+00
1.770429029206213700e+00
1.770429029206213700e+00
2.120877224036378017e+00
2.120877224036378017e+00
2.079625965147862576e+00
2.079625965147862576e+00
2.061812921536912313e+00
2.061812921536912313e+00
2.037249671926022909e+00
2.037249671926022909e+00
1.764991363261818380e+00
1.764991363261818380e+00
1.298102114932706774e+00
1.298102114932706774e+00
1.030718955046235452e+00
1.030718955046235452e+00
1.030718955046235452e+00
1.095595934934537885e+00
1.095595934934537885e+00
1.350791222876674746e+00
1.350791222876674746e+00
1.855744132816553149e+00
1.855744132816553149e+00
2.545577684865871326e+00
2.545577684865871326e+00
3.187034760582293291e+00
3.187034760582293291e+00
3.397416180913724215e+00
3.397416180913724215e+00
3.506919522690512103e+00
3.506919522690512103e+00
3.394041077913755089e+00
3.394041077913755089e+00
3.394041077913755089e+00
2.988278695028534937e+00
2.988278695028534937e+00
2.656393566698202147e+00
2.656393566698202147e+00
2.319258278145695407e+00
2.319258278145695407e+00
2.305195348979155678e+00
2.305195348979155678e+00
2.300695211645863214e+00
2.300695211645863214e+00
2.442637043366802097e+00
2.442637043366802097e+00
2.360509537034211291e+00
2.360509537034211291e+00
2.577078646198919465e+00
2.577078646198919465e+00
2.577078646198919465e+00
2.817648487807855595e+00
2.817648487807855595e+00
2.933902035584582180e+00
2.933902035584582180e+00
2.590016541032135855e+00
2.590016541032135855e+00
2.255506332590716312e+00
2.255506332590716312e+00
2.404198370311593891e+00
2.404198370311593891e+00
2.399510727256080500e+00
2.399510727256080500e+00
2.154440748313852350e+00
2.154440748313852350e+00
2.056000244148076028e+00
2.056000244148076028e+00
2.056000244148076028e+00
2.155003265480513797e+00
2.155003265480513797e+00
2.242755943479720404e+00
2.242755943479720404e+00
2.372322397534104788e+00
2.372322397534104788e+00
2.539952513199255080e+00
2.539952513199255080e+00
2.037249671926022909e+00
2.037249671926022909e+00
1.626799645985290255e+00
1.626799645985290255e+00
1.408542985320597074e+00
1.408542985320597074e+00
1.525546555986205810e+00
1.525546555986205810e+00
1.573548020874660613e+00
1.573548020874660613e+00
1.852931546983245470e+00
1.852931546983245470e+00
1.852931546983245470e+00
2.459887569811090469e+00
2.459887569811090469e+00
2.708707663197729598e+00
2.708707663197729598e+00
2.939527207251197982e+00
2.939527207251197982e+00
2.933902035584582180e+00
2.933902035584582180e+00
2.778834803308206425e+00
2.778834803308206425e+00
2.647580797753837700e+00
2.647580797753837700e+00
2.669893978698080428e+00
2.669893978698080428e+00
2.672144047364726660e+00
2.672144047364726660e+00
2.279882076479384789e+00
2.279882076479384789e+00
2.279882076479384789e+00
1.973685232093264519e+00
1.973685232093264519e+00
1.947059419537949809e+00
1.947059419537949809e+00
2.002561113315225683e+00
2.002561113315225683e+00
1.474544999542222179e+00
1.474544999542222179e+00
1.044594378490554476e+00
1.044594378490554476e+00
1.238662800988799884e+00
1.238662800988799884e+00
1.420543351542710830e+00
1.420543351542710830e+00
1.709302163762321802e+00
1.709302163762321802e+00
1.709302163762321802e+00
2.298445142979216982e+00
2.298445142979216982e+00
3.023154759361552646e+00
3.023154759361552646e+00
3.576859157078768447e+00
3.576859157078768447e+00
3.753114535966063592e+00
3.753114535966063592e+00
3.535607898190252119e+00
3.535607898190252119e+00
3.009841853083895291e+00
3.009841853083895291e+00
2.646268257698293880e+00
2.646268257698293880e+00
2.432886745811334794e+00
2.432886745811334794e+00
2.432886745811334794e+00
2.408886013367107282e+00
2.408886013367107282e+00
2.282319650868251504e+00
2.282319650868251504e+00
2.138315256202887316e+00
2.138315256202887316e+00
1.913308389538254994e+00
1.913308389538254994e+00
1.813555345316934853e+00
1.813555345316934853e+00
1.915370952482680744e+00
1.915370952482680744e+00
1.822368114261299521e+00
1.822368114261299521e+00
1.655300515762810232e+00
1.655300515762810232e+00
1.662425733207190115e+00
1.662425733207190115e+00
1.662425733207190115e+00
2.111501937925351680e+00
2.111501937925351680e+00
2.419386333811456957e+00
2.419386333811456957e+00
2.284194708090456771e+00
2.284194708090456771e+00
2.376822534867396808e+00
2.376822534867396808e+00
2.673269081698049998e+00
2.673269081698049998e+00
2.759896725363933268e+00
2.759896725363933268e+00
2.739833613086336772e+00
2.739833613086336772e+00
2.902213568529312671e+00
2.902213568529312671e+00
2.501888851588488727e+00
2.501888851588488727e+00
2.198692098757896396e+00
2.198692098757896396e+00
2.198692098757896396e+00
2.066125553147984295e+00
2.066125553147984295e+00
1.967122531815546083e+00
1.967122531815546083e+00
2.056187749870296511e+00
2.056187749870296511e+00
2.269381756035035114e+00
2.269381756035035114e+00
2.600704367198706013e+00
2.600704367198706013e+00
2.558140568254646752e+00
2.558140568254646752e+00
2.375322489089632505e+00
2.375322489089632505e+00
2.330696127201147494e+00
2.330696127201147494e+00
2.229630542924283532e+00
2.229630542924283532e+00
2.229630542924283532e+00
2.060875392925809457e+00
2.060875392925809457e+00
2.080375988036744506e+00
2.080375988036744506e+00
2.368009765923032361e+00
2.368009765923032361e+00
2.366509720145268059e+00
2.366509720145268059e+00
2.467575304422132465e+00
2.467575304422132465e+00
2.581391277809991891e+00
2.581391277809991891e+00
2.480138187810907002e+00
2.480138187810907002e+00
2.480138187810907002e+00
2.401948301644947659e+00
2.401948301644947659e+00
2.319258278145695407e+00
2.319258278145695407e+00
2.218567705313272853e+00
2.218567705313272853e+00
2.010623859370708644e+00
2.010623859370708644e+00
1.966185003204443671e+00
1.966185003204443671e+00
1.848993926816614453e+00
1.848993926816614453e+00
1.990748252815332409e+00
1.990748252815332409e+00
2.140002807702871657e+00
2.140002807702871657e+00
2.683206884975737783e+00
2.683206884975737783e+00
2.683206884975737783e+00
2.835086519974364450e+00
2.835086519974364450e+00
2.394823084200567997e+00
2.394823084200567997e+00
1.997873470259712514e+00
1.997873470259712514e+00
1.771366557817316334e+00
1.771366557817316334e+00
1.715864864040040239e+00
1.715864864040040239e+00
1.635424909207434441e+00
1.635424909207434441e+00
1.877869808038575394e+00
1.877869808038575394e+00
2.277069490646077110e+00
2.277069490646077110e+00
2.277069490646077110e+00
2.406448438978240567e+00
2.406448438978240567e+00
2.562265694143497807e+00
2.562265694143497807e+00
2.582516312143315229e+00
2.582516312143315229e+00
2.488950956755272337e+00
2.488950956755272337e+00
2.335383770256660885e+00
2.335383770256660885e+00
2.490263496810816157e+00
2.490263496810816157e+00
2.435511825922421991e+00
2.435511825922421991e+00
2.319070772423474924e+00
2.319070772423474924e+00
2.319070772423474924e+00
2.239193334757530351e+00
2.239193334757530351e+00
2.255318826868495830e+00
2.255318826868495830e+00
2.296007568590349823e+00
2.296007568590349823e+00
2.334821253089998994e+00
2.334821253089998994e+00
2.411511093478194478e+00
2.411511093478194478e+00
2.533202307199316383e+00
2.533202307199316383e+00
2.562265694143497807e+00
2.562265694143497807e+00
2.509764091921750762e+00
2.509764091921750762e+00
2.509764091921750762e+00
2.501888851588488727e+00
2.501888851588488727e+00
2.418636310922574584e+00
2.418636310922574584e+00
2.262819055757316900e+00
2.262819055757316900e+00
2.551952879421369058e+00
2.551952879421369058e+00
2.395010589922788480e+00
2.395010589922788480e+00
2.251756218146305777e+00
2.251756218146305777e+00
2.238443311868648422e+00
2.238443311868648422e+00
2.350571733756523507e+00
2.350571733756523507e+00
2.350571733756523507e+00
2.467387798699911539e+00
2.467387798699911539e+00
2.434011780144657688e+00
2.434011780144657688e+00
2.240880886257515137e+00
2.240880886257515137e+00
1.678363719595935111e+00
1.678363719595935111e+00
1.441543992431409738e+00
1.441543992431409738e+00
1.324915433210241966e+00
1.324915433210241966e+00
1.246163029877620732e+00
1.246163029877620732e+00
1.367666737876522154e+00
1.367666737876522154e+00
1.367666737876522154e+00
1.842056215094454830e+00
1.842056215094454830e+00
2.502826380199591139e+00
2.502826380199591139e+00
2.738521073030792952e+00
2.738521073030792952e+00
2.934464552751243627e+00
2.934464552751243627e+00
3.173159337137974045e+00
3.173159337137974045e+00
3.235223731192968355e+00
3.235223731192968355e+00
3.094406933805352811e+00
3.094406933805352811e+00
2.885150547807245225e+00
2.885150547807245225e+00
2.885150547807245225e+00
2.632955351420636525e+00
2.632955351420636525e+00
2.284944730979339145e+00
2.284944730979339145e+00
2.001623584704122827e+00
2.001623584704122827e+00
1.860806787316507505e+00
1.860806787316507505e+00
1.856869167149876487e+00
1.856869167149876487e+00
1.886870082705160767e+00
1.886870082705160767e+00
2.165316080202642990e+00
2.165316080202642990e+00
2.520076906643879511e+00
2.520076906643879511e+00
2.608204596087527527e+00
2.608204596087527527e+00
2.543140110477004168e+00
2.543140110477004168e+00
2.543140110477004168e+00
2.487638416699728516e+00
2.487638416699728516e+00
2.438511917477950597e+00
2.438511917477950597e+00
2.277819513534959039e+00
2.277819513534959039e+00
2.140565324869533104e+00
2.140565324869533104e+00
2.080000976592303541e+00
2.080000976592303541e+00
1.991685781426435042e+00
1.991685781426435042e+00
1.932808984649189599e+00
1.932808984649189599e+00
1.766491409039582683e+00
1.766491409039582683e+00
1.766491409039582683e+00
1.738553056428723931e+00
1.738553056428723931e+00
1.752240974150822472e+00
1.752240974150822472e+00
2.122752281258583285e+00
2.122752281258583285e+00
1.970122623371074688e+00
1.970122623371074688e+00
1.945371868037965024e+00
1.945371868037965024e+00
2.247818597979674760e+00
2.247818597979674760e+00
2.518576860866115208e+00
2.518576860866115208e+00
2.665206335642567481e+00
2.665206335642567481e+00
2.839961668752098323e+00
2.839961668752098323e+00
2.839961668752098323e+00
3.063655995361186601e+00
3.063655995361186601e+00
3.012091921750541523e+00
3.012091921750541523e+00
2.841274208807642143e+00
2.841274208807642143e+00
2.642330637531663307e+00
2.642330637531663307e+00
2.465700247199926753e+00
2.465700247199926753e+00
2.324883449812311209e+00
2.324883449812311209e+00
2.190629352702413879e+00
2.190629352702413879e+00
2.356196905423139309e+00
2.356196905423139309e+00
2.356196905423139309e+00
2.177316446424756524e+00
2.177316446424756524e+00
2.035562120426038124e+00
2.035562120426038124e+00
1.994310861537522683e+00
1.994310861537522683e+00
2.110564409314249268e+00
2.110564409314249268e+00
2.136815210425123013e+00
2.136815210425123013e+00
2.142627887813959298e+00
2.142627887813959298e+00
2.232630634479812137e+00
2.232630634479812137e+00
2.291694936979278285e+00
2.291694936979278285e+00
2.291694936979278285e+00
2.431386700033570492e+00
2.431386700033570492e+00
2.488575945310831372e+00
2.488575945310831372e+00
2.506201483199560265e+00
2.506201483199560265e+00
2.328446058534500818e+00
2.328446058534500818e+00
2.368384777367473326e+00
2.368384777367473326e+00
2.526077089754936722e+00
2.526077089754936722e+00
2.297320108645893644e+00
2.297320108645893644e+00
2.204129764702292160e+00
2.204129764702292160e+00
2.204129764702292160e+00
2.246131046479689974e+00
2.246131046479689974e+00
2.204504776146733125e+00
2.204504776146733125e+00
2.164753563035981099e+00
2.164753563035981099e+00
2.197004547257912055e+00
2.197004547257912055e+00
2.205067293313394572e+00
2.205067293313394572e+00
2.135315164647358710e+00
2.135315164647358710e+00
2.172816309091464060e+00
2.172816309091464060e+00
2.271256813257240381e+00
2.271256813257240381e+00
2.271256813257240381e+00
2.146002990813928868e+00
2.146002990813928868e+00
1.785804498428296805e+00
1.785804498428296805e+00
1.929808893093661437e+00
1.929808893093661437e+00
1.983248023926511561e+00
1.983248023926511561e+00
1.915370952482680744e+00
1.915370952482680744e+00
2.034624591814935712e+00
2.034624591814935712e+00
2.293945005645924073e+00
2.293945005645924073e+00
2.320945829645680192e+00
2.320945829645680192e+00
2.320945829645680192e+00
2.314570635090182460e+00
2.314570635090182460e+00
2.316820703756828248e+00
2.316820703756828248e+00
2.257193884090700653e+00
2.257193884090700653e+00
2.182379100924710880e+00
2.182379100924710880e+00
2.237130771813104602e+00
2.237130771813104602e+00
2.551765373699148576e+00
2.551765373699148576e+00
2.676644184698019568e+00
2.676644184698019568e+00
2.672144047364726660e+00
2.672144047364726660e+00
2.672144047364726660e+00
2.855149632251960945e+00
2.855149632251960945e+00
2.697457319864497993e+00
2.697457319864497993e+00
2.522514481032746669e+00
2.522514481032746669e+00
2.385822809533982625e+00
2.385822809533982625e+00
2.307070406201360946e+00
2.307070406201360946e+00
2.148440565202795582e+00
2.148440565202795582e+00
1.923433698538163483e+00
1.923433698538163483e+00
1.996748435926389398e+00
1.996748435926389398e+00
1.996748435926389398e+00
2.032937040314951371e+00
2.032937040314951371e+00
2.106814294869838289e+00
2.106814294869838289e+00
2.248756126590777171e+00
2.248756126590777171e+00
2.429324137089144742e+00
2.429324137089144742e+00
2.508264046143986459e+00
2.508264046143986459e+00
2.600891872920926495e+00
2.600891872920926495e+00
2.813335856196783169e+00
2.813335856196783169e+00
2.613829767754142885e+00
2.613829767754142885e+00
2.412823633533738299e+00
2.412823633533738299e+00
2.412823633533738299e+00
2.311945554979094819e+00
2.311945554979094819e+00
2.228880520035401602e+00
2.228880520035401602e+00
2.148815576647236547e+00
2.148815576647236547e+00
2.117877132480849411e+00
2.117877132480849411e+00
2.039687246314890068e+00
2.039687246314890068e+00
1.845243812372203696e+00
1.845243812372203696e+00
1.878244819483016581e+00
1.878244819483016581e+00
2.008748802148503376e+00
2.008748802148503376e+00
2.008748802148503376e+00
2.147690542313913653e+00
2.147690542313913653e+00
2.152190679647205673e+00
2.152190679647205673e+00
2.430636677144688562e+00
2.430636677144688562e+00
2.582141300698873820e+00
2.582141300698873820e+00
2.308382946256904766e+00
2.308382946256904766e+00
2.153315713980529011e+00
2.153315713980529011e+00
2.194004455702383449e+00
2.194004455702383449e+00
2.244631000701926116e+00
2.244631000701926116e+00
2.244631000701926116e+00
2.328071047090059853e+00
2.328071047090059853e+00
2.483700796533097499e+00
2.483700796533097499e+00
2.474138004699850679e+00
2.474138004699850679e+00
2.303507797479171337e+00
2.303507797479171337e+00
2.190066835535752432e+00
2.190066835535752432e+00
2.166441114535965884e+00
2.166441114535965884e+00
2.129877498702963390e+00
2.129877498702963390e+00
2.007248756370739073e+00
2.007248756370739073e+00
2.007248756370739073e+00
2.312320566423536228e+00
2.312320566423536228e+00
2.422948942533646566e+00
2.422948942533646566e+00
2.480513199255348411e+00
2.480513199255348411e+00
2.513326700643940814e+00
2.513326700643940814e+00
2.525139561143833866e+00
2.525139561143833866e+00
2.484825830866420393e+00
2.484825830866420393e+00
2.430261665700247153e+00
2.430261665700247153e+00
2.437386883144627259e+00
2.437386883144627259e+00
2.437386883144627259e+00
2.333883724478896582e+00
2.333883724478896582e+00
2.136627704702902530e+00
2.136627704702902530e+00
1.917621021149327198e+00
1.917621021149327198e+00
1.766116397595141496e+00
1.766116397595141496e+00
1.687739005706961226e+00
1.687739005706961226e+00
1.765741386150700531e+00
1.765741386150700531e+00
2.196442030091250608e+00
2.196442030091250608e+00
2.379635120700704931e+00
2.379635120700704931e+00
2.605579515976439886e+00
2.605579515976439886e+00
2.880837916196172799e+00
2.880837916196172799e+00
2.880837916196172799e+00
2.845961851863155090e+00
2.845961851863155090e+00
2.622267525254066367e+00
2.622267525254066367e+00
2.463450178533280521e+00
2.463450178533280521e+00
2.450887295144505096e+00
2.450887295144505096e+00
2.271444318979460864e+00
2.271444318979460864e+00
2.152940702536088047e+00
2.152940702536088047e+00
2.070625690481276759e+00
2.070625690481276759e+00
2.131752555925168657e+00
2.131752555925168657e+00
2.131752555925168657e+00
2.005561204870754288e+00
2.005561204870754288e+00
2.056937772759178884e+00
2.056937772759178884e+00
2.303695303201391820e+00
2.303695303201391820e+00
2.146378002258369833e+00
2.146378002258369833e+00
1.994498367259743166e+00
1.994498367259743166e+00
2.072500747703482027e+00
2.072500747703482027e+00
2.236193243202001746e+00
2.236193243202001746e+00
2.338383861812189490e+00
2.338383861812189490e+00
2.338383861812189490e+00
2.464387707144383377e+00
2.464387707144383377e+00
2.654331003753776841e+00
2.654331003753776841e+00
2.710582720419934866e+00
2.710582720419934866e+00
2.600141850032044566e+00
2.600141850032044566e+00
2.413761162144840711e+00
2.413761162144840711e+00
2.310445509201330516e+00
2.310445509201330516e+00
2.126314889980773337e+00
2.126314889980773337e+00
2.267881710257271255e+00
2.267881710257271255e+00
2.267881710257271255e+00
2.384322763756218322e+00
2.384322763756218322e+00
2.333696218756676100e+00
2.333696218756676100e+00
2.298445142979216982e+00
2.298445142979216982e+00
2.277256996368297592e+00
2.277256996368297592e+00
2.263381572923978347e+00
2.263381572923978347e+00
2.269569261757255596e+00
2.269569261757255596e+00
2.353946836756492633e+00
2.353946836756492633e+00
2.281569627979369130e+00
2.281569627979369130e+00
2.179191503646961792e+00
2.179191503646961792e+00
2.179191503646961792e+00
2.172253791924802613e+00
2.172253791924802613e+00
2.180879055146946577e+00
2.180879055146946577e+00
2.092563859981078966e+00
2.092563859981078966e+00
2.003498641926328094e+00
2.003498641926328094e+00
2.285694753868221074e+00
2.285694753868221074e+00
2.267694204535050773e+00
2.267694204535050773e+00
2.249506149479659545e+00
2.249506149479659545e+00
2.311945554979094819e+00
2.311945554979094819e+00
2.364072145756401344e+00
2.364072145756401344e+00
2.347946653645436310e+00
2.347946653645436310e+00
2.347946653645436310e+00
2.331258644367808941e+00
2.331258644367808941e+00
2.405885921811578676e+00
2.405885921811578676e+00
2.296945097201452679e+00
2.296945097201452679e+00
2.256818872646260132e+00
2.256818872646260132e+00
2.234130680257575996e+00
2.234130680257575996e+00
2.238818323313089387e+00
2.238818323313089387e+00
2.114127018036439321e+00
2.114127018036439321e+00
2.147878048036134135e+00
2.147878048036134135e+00
2.147878048036134135e+00
2.430261665700247153e+00
2.430261665700247153e+00
2.374384960478530537e+00
2.374384960478530537e+00
2.315695669423505798e+00
2.315695669423505798e+00
2.273694387646107540e+00
2.273694387646107540e+00
2.236380748924222672e+00
2.236380748924222672e+00
2.162691000091555793e+00
2.162691000091555793e+00
2.148628070925016065e+00
2.148628070925016065e+00
2.187066743980223826e+00
2.187066743980223826e+00
2.187066743980223826e+00
2.103626697592089645e+00
2.103626697592089645e+00
2.164378551591540134e+00
2.164378551591540134e+00
2.176566423535874595e+00
2.176566423535874595e+00
2.191941892757957699e+00
2.191941892757957699e+00
2.140377819147312621e+00
2.140377819147312621e+00
2.340071413312173831e+00
2.340071413312173831e+00
2.512576677755058441e+00
2.512576677755058441e+00
2.442074526200140649e+00
2.442074526200140649e+00
2.442074526200140649e+00
2.413573656422620228e+00
2.413573656422620228e+00
2.401198278756065729e+00
2.401198278756065729e+00
2.283444685201574842e+00
2.283444685201574842e+00
2.248193609424115724e+00
2.248193609424115724e+00
2.305382854701376161e+00
2.305382854701376161e+00
2.272381847590563719e+00
2.272381847590563719e+00
2.094251411481063307e+00
2.094251411481063307e+00
2.054875209814752690e+00
2.054875209814752690e+00
2.133440107425153442e+00
2.133440107425153442e+00
2.133440107425153442e+00
2.171128757591479275e+00
2.171128757591479275e+00
2.119002166814172750e+00
2.119002166814172750e+00
2.394635578478347071e+00
2.394635578478347071e+00
2.472262947477644968e+00
2.472262947477644968e+00
2.431199194311350009e+00
2.431199194311350009e+00
2.349821710867641578e+00
2.349821710867641578e+00
2.272194341868343237e+00
2.272194341868343237e+00
2.236193243202001746e+00
2.236193243202001746e+00
2.236193243202001746e+00
2.342508987701040546e+00
2.342508987701040546e+00
2.580266243476668553e+00
2.580266243476668553e+00
2.593016632587664461e+00
2.593016632587664461e+00
2.501138828699606353e+00
2.501138828699606353e+00
2.382635212256233537e+00
2.382635212256233537e+00
2.283257179479354360e+00
2.283257179479354360e+00
2.167941160313730187e+00
2.167941160313730187e+00
2.130065004425183872e+00
2.130065004425183872e+00
2.130065004425183872e+00
2.411886104922635443e+00
2.411886104922635443e+00
2.320008301034577336e+00
2.320008301034577336e+00
2.279132053590502860e+00
2.279132053590502860e+00
2.332008667256691314e+00
2.332008667256691314e+00
2.343446516312143402e+00
2.343446516312143402e+00
2.291694936979278285e+00
2.291694936979278285e+00
2.279319559312723342e+00
2.279319559312723342e+00
2.343071504867702437e+00
2.343071504867702437e+00
2.343071504867702437e+00
2.205067293313394572e+00
2.205067293313394572e+00
2.140565324869533104e+00
2.140565324869533104e+00
2.054875209814752690e+00
2.054875209814752690e+00
2.038749717703787212e+00
2.038749717703787212e+00
1.989810724204229997e+00
1.989810724204229997e+00
2.166628620258186366e+00
2.166628620258186366e+00
2.472450453199865894e+00
2.472450453199865894e+00
2.413573656422620228e+00
2.413573656422620228e+00
2.413573656422620228e+00
2.327133518478957885e+00
2.327133518478957885e+00
2.270131778923917043e+00
2.270131778923917043e+00
2.245193517868587563e+00
2.245193517868587563e+00
2.255881344035157721e+00
2.255881344035157721e+00
2.277069490646077110e+00
2.277069490646077110e+00
2.282882168034912951e+00
2.282882168034912951e+00
2.139815301980651618e+00
2.139815301980651618e+00
2.135502670369579192e+00
2.135502670369579192e+00
2.135502670369579192e+00
2.216317636646626177e+00
2.216317636646626177e+00
2.321320841090121156e+00
2.321320841090121156e+00
2.172628803369243577e+00
2.172628803369243577e+00
2.164003540147099169e+00
2.164003540147099169e+00
2.156503311258278099e+00
2.156503311258278099e+00
2.137565233314004942e+00
2.137565233314004942e+00
2.196629535813471090e+00
2.196629535813471090e+00
2.265256630146183614e+00
2.265256630146183614e+00
2.358821985534226506e+00
2.358821985534226506e+00
2.531889767143772563e+00
2.531889767143772563e+00
2.531889767143772563e+00
2.702707480086672831e+00
2.702707480086672831e+00
2.696894802697836102e+00
2.696894802697836102e+00
2.575016083254493715e+00
2.575016083254493715e+00
2.477138096255378841e+00
2.477138096255378841e+00
2.394635578478347071e+00
2.394635578478347071e+00
2.246506057924130939e+00
2.246506057924130939e+00
2.086376171147801273e+00
2.086376171147801273e+00
2.306882900479140464e+00
2.306882900479140464e+00
2.306882900479140464e+00
2.279694570757164307e+00
2.279694570757164307e+00
2.206942350535599839e+00
2.206942350535599839e+00
2.235068208868678852e+00
2.235068208868678852e+00
2.258881435590685438e+00
2.258881435590685438e+00
2.216505142368846659e+00
2.216505142368846659e+00
2.214817590868861874e+00
2.214817590868861874e+00
2.270506790368358452e+00
2.270506790368358452e+00
2.200379650257881181e+00
2.200379650257881181e+00
2.200379650257881181e+00
2.186691732535783306e+00
2.186691732535783306e+00
2.157253334147160473e+00
2.157253334147160473e+00
2.165316080202642990e+00
2.165316080202642990e+00
2.098001525925473842e+00
2.098001525925473842e+00
2.162128482924894346e+00
2.162128482924894346e+00
2.478450636310922661e+00
2.478450636310922661e+00
2.371572374645222414e+00
2.371572374645222414e+00
2.283632190923795324e+00
2.283632190923795324e+00
2.283632190923795324e+00
2.287944822534867306e+00
2.287944822534867306e+00
2.302945280312509890e+00
2.302945280312509890e+00
2.281007110812707683e+00
2.281007110812707683e+00
2.264131595812860720e+00
2.264131595812860720e+00
2.293945005645924073e+00
2.293945005645924073e+00
2.205067293313394572e+00
2.205067293313394572e+00
2.216130130924405695e+00
2.216130130924405695e+00
2.155565782647175688e+00
2.155565782647175688e+00
2.155565782647175688e+00
2.175441389202551257e+00
2.175441389202551257e+00
2.148815576647236547e+00
2.148815576647236547e+00
2.349634205145421095e+00
2.349634205145421095e+00
2.505826471755119300e+00
2.505826471755119300e+00
2.423323953978087530e+00
2.423323953978087530e+00
2.419011322367015993e+00
2.419011322367015993e+00
2.397448164311655194e+00
2.397448164311655194e+00
2.365384685811944721e+00
2.365384685811944721e+00
2.365384685811944721e+00
2.390322946867275089e+00
2.390322946867275089e+00
2.415448713644825496e+00
2.415448713644825496e+00
2.361822077089755112e+00
2.361822077089755112e+00
2.261319009979552597e+00
2.261319009979552597e+00
2.259068941312906365e+00
2.259068941312906365e+00
2.272756859035004684e+00
2.272756859035004684e+00
2.228318002868740155e+00
2.228318002868740155e+00
2.106251777703176842e+00
2.106251777703176842e+00
2.106251777703176842e+00
2.355071871089815971e+00
2.355071871089815971e+00
2.404010864589373409e+00
2.404010864589373409e+00
2.325445966978973100e+00
2.325445966978973100e+00
2.301070223090304623e+00
2.301070223090304623e+00
2.287007293923764895e+00
2.287007293923764895e+00
2.264506607257301685e+00
2.264506607257301685e+00
2.264319101535081202e+00
2.264319101535081202e+00
2.332571184423352761e+00
2.332571184423352761e+00
2.262444044312875935e+00
2.262444044312875935e+00
2.262444044312875935e+00
2.188754295480208611e+00
2.188754295480208611e+00
2.174503860591448845e+00
2.174503860591448845e+00
2.180504043702505612e+00
2.180504043702505612e+00
2.129314981536301499e+00
2.129314981536301499e+00
2.087126194036683202e+00
2.087126194036683202e+00
2.405698416089358194e+00
2.405698416089358194e+00
2.342508987701040546e+00
2.342508987701040546e+00
2.342508987701040546e+00
2.271631824701681346e+00
2.271631824701681346e+00
2.248568620868556689e+00
2.248568620868556689e+00
2.207692373424482213e+00
2.207692373424482213e+00
2.163628528702658205e+00
2.163628528702658205e+00
2.189504318369090985e+00
2.189504318369090985e+00
2.328258552812280335e+00
2.328258552812280335e+00
2.273131870479445649e+00
2.273131870479445649e+00
2.272944364757225166e+00
2.272944364757225166e+00
2.337821344645527599e+00
2.337821344645527599e+00
2.337821344645527599e+00
2.377197546311838217e+00
2.377197546311838217e+00
2.240505874813074172e+00
2.240505874813074172e+00
2.248568620868556689e+00
2.248568620868556689e+00
2.447137180700094561e+00
2.447137180700094561e+00
2.315320657979064389e+00
2.315320657979064389e+00
2.222317819757682944e+00
2.222317819757682944e+00
2.214442579424420909e+00
2.214442579424420909e+00
2.193816949980162967e+00
2.193816949980162967e+00
2.178441480758079862e+00
2.178441480758079862e+00
2.178441480758079862e+00
2.202254707480086449e+00
2.202254707480086449e+00
2.256631366924039650e+00
2.256631366924039650e+00
2.166628620258186366e+00
2.166628620258186366e+00
2.182004089480269915e+00
2.182004089480269915e+00
2.208817407757805107e+00
2.208817407757805107e+00
2.258693929868464956e+00
2.258693929868464956e+00
2.230005554368724940e+00
2.230005554368724940e+00
2.423323953978087530e+00
2.423323953978087530e+00
2.423323953978087530e+00
2.547265236365856111e+00
2.547265236365856111e+00
2.432699240089114312e+00
2.432699240089114312e+00
2.382072695089572090e+00
2.382072695089572090e+00
2.395198095645008962e+00
2.395198095645008962e+00
2.369697317423017147e+00
2.369697317423017147e+00
2.371759880367442896e+00
2.371759880367442896e+00
2.421823908200323228e+00
2.421823908200323228e+00
2.359572008423108880e+00
2.359572008423108880e+00
2.359572008423108880e+00
2.260381481368449741e+00
2.260381481368449741e+00
2.202442213202307375e+00
2.202442213202307375e+00
2.178816492202520827e+00
2.178816492202520827e+00
2.133440107425153442e+00
2.133440107425153442e+00
2.044187383648182976e+00
2.044187383648182976e+00
2.330133610034486047e+00
2.330133610034486047e+00
2.320945829645680192e+00
2.320945829645680192e+00
2.207879879146702695e+00
2.207879879146702695e+00
2.207879879146702695e+00
2.130815027314065802e+00
2.130815027314065802e+00
2.045124912259285388e+00
2.045124912259285388e+00
2.000123538926358524e+00
2.000123538926358524e+00
2.043999877925962494e+00
2.043999877925962494e+00
2.212755027924436124e+00
2.212755027924436124e+00
2.188941801202429094e+00
2.188941801202429094e+00
2.186879238258003344e+00
2.186879238258003344e+00
2.249693655201880027e+00
2.249693655201880027e+00
2.249693655201880027e+00
2.379072603534043484e+00
2.379072603534043484e+00
2.416948759422589799e+00
2.416948759422589799e+00
2.439636951811273491e+00
2.439636951811273491e+00
2.727833246864223238e+00
2.727833246864223238e+00
2.628642719809564543e+00
2.628642719809564543e+00
2.509764091921750762e+00
2.509764091921750762e+00
2.443012054811243061e+00
2.443012054811243061e+00
2.365947202978606612e+00
2.365947202978606612e+00
2.365947202978606612e+00
2.319070772423474924e+00
2.319070772423474924e+00
2.323570909756767389e+00
2.323570909756767389e+00
2.383760246589556875e+00
2.383760246589556875e+00
2.262256538590655452e+00
2.262256538590655452e+00
2.180691549424726094e+00
2.180691549424726094e+00
2.136440198980682048e+00
2.136440198980682048e+00
2.156690816980498582e+00
2.156690816980498582e+00
2.052062623981445011e+00
2.052062623981445011e+00
2.172441297647023095e+00
2.172441297647023095e+00
2.172441297647023095e+00
2.364822168645283273e+00
2.364822168645283273e+00
2.272194341868343237e+00
2.272194341868343237e+00
2.256443861201819168e+00
2.256443861201819168e+00
2.284382213812677254e+00
2.284382213812677254e+00
2.288132328257088233e+00
2.288132328257088233e+00
2.279132053590502860e+00
2.279132053590502860e+00
2.328633564256721744e+00
2.328633564256721744e+00
2.363697134311959935e+00
2.363697134311959935e+00
2.363697134311959935e+00
2.280632099368266719e+00
2.280632099368266719e+00
2.242943449201941331e+00
2.242943449201941331e+00
2.226255439924313961e+00
2.226255439924313961e+00
2.209379924924466998e+00
2.209379924924466998e+00
2.102501663258766751e+00
2.102501663258766751e+00
2.334071230201117064e+00
2.334071230201117064e+00
2.398948210089419053e+00
2.398948210089419053e+00
2.398948210089419053e+00
2.313820612201300086e+00
2.313820612201300086e+00
2.304820337534714714e+00
2.304820337534714714e+00
2.324133426923429280e+00
2.324133426923429280e+00
2.309507980590228104e+00
2.309507980590228104e+00
2.301820245979186552e+00
2.301820245979186552e+00
2.324695944090090727e+00
2.324695944090090727e+00
2.260193975646229259e+00
2.260193975646229259e+00
2.201692190313425002e+00
2.201692190313425002e+00
2.201692190313425002e+00
2.164753563035981099e+00
2.164753563035981099e+00
2.155003265480513797e+00
2.155003265480513797e+00
2.088063722647786058e+00
2.088063722647786058e+00
2.041374797814874853e+00
2.041374797814874853e+00
2.364072145756401344e+00
2.364072145756401344e+00
2.334446241645558029e+00
2.334446241645558029e+00
2.287944822534867306e+00
2.287944822534867306e+00
2.301820245979186552e+00
2.301820245979186552e+00
2.337633838923307117e+00
2.337633838923307117e+00
2.353009308145390222e+00
2.353009308145390222e+00
2.366322214423047576e+00
2.366322214423047576e+00
2.366322214423047576e+00
2.445074617755668811e+00
2.445074617755668811e+00
2.348321665089877275e+00
2.348321665089877275e+00
2.297695120090334608e+00
2.297695120090334608e+00
2.235818231757560781e+00
2.235818231757560781e+00
2.220067751091036712e+00
2.220067751091036712e+00
2.099876583147679110e+00
2.099876583147679110e+00
2.144315439313944083e+00
2.144315439313944083e+00
2.398198187200537124e+00
2.398198187200537124e+00
2.398198187200537124e+00
2.329946104312265120e+00
2.329946104312265120e+00
2.297882625812555535e+00
2.297882625812555535e+00
2.323383404034546906e+00
2.323383404034546906e+00
2.314758140812402942e+00
2.314758140812402942e+00
2.289257362590411127e+00
2.289257362590411127e+00
2.303132786034730373e+00
2.303132786034730373e+00
2.358634479812006024e+00
2.358634479812006024e+00
2.274444410534989469e+00
2.274444410534989469e+00
2.274444410534989469e+00
2.228130497146519229e+00
2.228130497146519229e+00
2.198879604480116878e+00
2.198879604480116878e+00
2.205817316202276945e+00
2.205817316202276945e+00
2.114314523758659803e+00
2.114314523758659803e+00
2.279132053590502860e+00
2.279132053590502860e+00
2.410948576311533031e+00
2.410948576311533031e+00
2.330508621478927012e+00
2.330508621478927012e+00
2.300507705923642732e+00
2.300507705923642732e+00
2.300507705923642732e+00
2.306132877590258534e+00
2.306132877590258534e+00
2.297132602923673161e+00
2.297132602923673161e+00
2.294132511368144556e+00
2.294132511368144556e+00
2.334071230201117064e+00
2.334071230201117064e+00
2.321320841090121156e+00
2.321320841090121156e+00
2.243505966368602778e+00
2.243505966368602778e+00
2.198879604480116878e+00
2.198879604480116878e+00
2.183129123813593253e+00
2.183129123813593253e+00
2.183129123813593253e+00
2.158940885647145258e+00
2.158940885647145258e+00
2.083751091036713632e+00
2.083751091036713632e+00
2.368197271645252844e+00
2.368197271645252844e+00
2.392198004089480357e+00
2.392198004089480357e+00
2.323195898312326424e+00
2.323195898312326424e+00
2.321695852534562121e+00
2.321695852534562121e+00
2.338571367534409973e+00
2.338571367534409973e+00
2.327508529923398850e+00
2.327508529923398850e+00
2.327508529923398850e+00
2.319070772423474924e+00
2.319070772423474924e+00
2.372322397534104788e+00
2.372322397534104788e+00
2.312508072145756710e+00
2.312508072145756710e+00
2.241443403424177028e+00
2.241443403424177028e+00
2.191566881313516735e+00
2.191566881313516735e+00
2.187441755424664791e+00
2.187441755424664791e+00
2.115439558091983141e+00
2.115439558091983141e+00
2.117689626758628929e+00
2.117689626758628929e+00
2.117689626758628929e+00
2.412823633533738299e+00
2.412823633533738299e+00
2.344946562089907705e+00
2.344946562089907705e+00
2.298070131534776017e+00
2.298070131534776017e+00
2.316820703756828248e+00
2.316820703756828248e+00
2.303132786034730373e+00
2.303132786034730373e+00
2.279319559312723342e+00
2.279319559312723342e+00
2.296382580034791232e+00
2.296382580034791232e+00
2.381697683645130681e+00
2.381697683645130681e+00
2.381697683645130681e+00
2.265256630146183614e+00
2.265256630146183614e+00
2.219880245368816230e+00
2.219880245368816230e+00
2.180879055146946577e+00
2.180879055146946577e+00
2.190441846980193397e+00
2.190441846980193397e+00
2.093501388592180934e+00
2.093501388592180934e+00
2.202442213202307375e+00
2.202442213202307375e+00
2.415073702200384531e+00
2.415073702200384531e+00
2.336696310312204705e+00
2.336696310312204705e+00
2.336696310312204705e+00
2.311945554979094819e+00
2.311945554979094819e+00
2.347946653645436310e+00
2.347946653645436310e+00
2.337633838923307117e+00
2.337633838923307117e+00
2.330883632923367976e+00
2.330883632923367976e+00
2.367259743034150432e+00
2.367259743034150432e+00
2.383572740867336393e+00
2.383572740867336393e+00
2.285694753868221074e+00
2.285694753868221074e+00
2.242005920590838475e+00
2.242005920590838475e+00
2.242005920590838475e+00
2.214442579424420909e+00
2.214442579424420909e+00
2.192316904202398664e+00
2.192316904202398664e+00
2.097626514481032878e+00
2.097626514481032878e+00
2.313820612201300086e+00
2.313820612201300086e+00
2.397635670033875677e+00
2.397635670033875677e+00
2.327508529923398850e+00
2.327508529923398850e+00
2.309320474868007622e+00
2.309320474868007622e+00
2.306132877590258534e+00
2.306132877590258534e+00
2.290194891201513983e+00
2.290194891201513983e+00
2.314383129367961978e+00
2.314383129367961978e+00
2.380760155034028269e+00
2.380760155034028269e+00
2.380760155034028269e+00
2.337821344645527599e+00
2.337821344645527599e+00
2.259818964201788294e+00
2.259818964201788294e+00
2.215567613757744247e+00
2.215567613757744247e+00
2.211254982146671821e+00
2.211254982146671821e+00
2.150690633869442259e+00
2.150690633869442259e+00
2.073438276314584883e+00
2.073438276314584883e+00
2.366322214423047576e+00
2.366322214423047576e+00
2.337633838923307117e+00
2.337633838923307117e+00
2.337633838923307117e+00
2.278757042146061895e+00
2.278757042146061895e+00
2.292444959868159771e+00
2.292444959868159771e+00
2.321320841090121156e+00
2.321320841090121156e+00
2.318320749534592551e+00
2.318320749534592551e+00
2.341008941923276243e+00
2.341008941923276243e+00
2.413761162144840711e+00
2.413761162144840711e+00
2.324508438367870244e+00
2.324508438367870244e+00
2.278007019257179522e+00
2.278007019257179522e+00
2.278007019257179522e+00
2.213505050813318054e+00
2.213505050813318054e+00
2.209004913480026033e+00
2.209004913480026033e+00
2.107751823480941145e+00
2.107751823480941145e+00
2.140377819147312621e+00
2.140377819147312621e+00
2.401760795922727176e+00
2.401760795922727176e+00
2.333133701590014208e+00
2.333133701590014208e+00
2.296945097201452679e+00
2.296945097201452679e+00
2.320008301034577336e+00
2.320008301034577336e+00
2.320008301034577336e+00
2.320945829645680192e+00
2.320945829645680192e+00
2.314195623645741495e+00
2.314195623645741495e+00
2.329571092867824156e+00
2.329571092867824156e+00
2.374197454756310055e+00
2.374197454756310055e+00
2.268256721701712220e+00
2.268256721701712220e+00
2.228880520035401602e+00
2.228880520035401602e+00
2.195316995757927270e+00
2.195316995757927270e+00
2.182379100924710880e+00
2.182379100924710880e+00
2.182379100924710880e+00
2.074750816370128703e+00
2.074750816370128703e+00
2.231318094424268317e+00
2.231318094424268317e+00
2.398760704367198571e+00
2.398760704367198571e+00
2.326758507034516477e+00
2.326758507034516477e+00
2.316445692312387283e+00
2.316445692312387283e+00
2.350009216589862060e+00
2.350009216589862060e+00
2.335758781701101849e+00
2.335758781701101849e+00
2.315883175145725836e+00
2.315883175145725836e+00
2.315883175145725836e+00
2.356759422589800756e+00
2.356759422589800756e+00
2.354321848200934042e+00
2.354321848200934042e+00
2.258881435590685438e+00
2.258881435590685438e+00
2.207317361980041248e+00
2.207317361980041248e+00
2.192879421369060555e+00
2.192879421369060555e+00
2.172253791924802613e+00
2.172253791924802613e+00
2.092563859981078966e+00
2.092563859981078966e+00
2.352071779534287366e+00
2.352071779534287366e+00
2.352071779534287366e+00
2.382072695089572090e+00
2.382072695089572090e+00
2.307070406201360946e+00
2.307070406201360946e+00
2.295820062868129341e+00
2.295820062868129341e+00
2.297882625812555535e+00
2.297882625812555535e+00
2.281757133701590057e+00
2.281757133701590057e+00
2.297695120090334608e+00
2.297695120090334608e+00
2.376260017700735361e+00
2.376260017700735361e+00
2.328258552812280335e+00
2.328258552812280335e+00
2.328258552812280335e+00
2.263569078646198829e+00
2.263569078646198829e+00
2.209192419202246516e+00
2.209192419202246516e+00
2.211067476424451339e+00
2.211067476424451339e+00
2.132315073091830104e+00
2.132315073091830104e+00
2.104376720480972018e+00
2.104376720480972018e+00
2.403260841700491479e+00
2.403260841700491479e+00
2.359384502700888397e+00
2.359384502700888397e+00
2.311945554979094819e+00
2.311945554979094819e+00
2.311945554979094819e+00
2.321695852534562121e+00
2.321695852534562121e+00
2.308945463423566213e+00
2.308945463423566213e+00
2.289069856868190644e+00
2.289069856868190644e+00
2.301632740256966070e+00
2.301632740256966070e+00
2.383947752311777357e+00
2.383947752311777357e+00
2.299195165868098911e+00
2.299195165868098911e+00
2.266944181646168399e+00
2.266944181646168399e+00
2.209567430646687480e+00
2.209567430646687480e+00
2.209567430646687480e+00
2.195692007202368234e+00
2.195692007202368234e+00
2.081313516647846917e+00
2.081313516647846917e+00
2.157815851313821920e+00
2.157815851313821920e+00
2.384322763756218322e+00
2.384322763756218322e+00
2.334071230201117064e+00
2.334071230201117064e+00
2.315695669423505798e+00
2.315695669423505798e+00
2.326383495590075512e+00
2.326383495590075512e+00
2.315695669423505798e+00
2.315695669423505798e+00
2.304632831812494231e+00
2.304632831812494231e+00
2.304632831812494231e+00
2.343071504867702437e+00
2.343071504867702437e+00
2.384135258033997840e+00
2.384135258033997840e+00
2.288694845423749680e+00
2.288694845423749680e+00
2.229818048646504014e+00
2.229818048646504014e+00
2.193816949980162967e+00
2.193816949980162967e+00
2.180879055146946577e+00
2.180879055146946577e+00
2.080563493758964988e+00
2.080563493758964988e+00
2.268444227423932702e+00
2.268444227423932702e+00
2.268444227423932702e+00
2.383385235145115466e+00
2.383385235145115466e+00
2.314008117923521013e+00
2.314008117923521013e+00
2.305007843256935196e+00
2.305007843256935196e+00
2.319820795312356854e+00
2.319820795312356854e+00
2.315883175145725836e+00
2.315883175145725836e+00
2.310633014923550999e+00
2.310633014923550999e+00
2.363322122867518971e+00
2.363322122867518971e+00
2.329383587145603673e+00
2.329383587145603673e+00
2.258881435590685438e+00
2.258881435590685438e+00
2.258881435590685438e+00
2.228693014313181120e+00
2.228693014313181120e+00
2.226442945646534444e+00
2.226442945646534444e+00
2.173566331980346433e+00
2.173566331980346433e+00
2.092563859981078966e+00
2.092563859981078966e+00
2.371947386089663379e+00
2.371947386089663379e+00
2.365009674367503756e+00
2.365009674367503756e+00
2.300882717368083696e+00
2.300882717368083696e+00
2.292257454145939732e+00
2.292257454145939732e+00
2.292257454145939732e+00
2.286632282479323930e+00
2.286632282479323930e+00
2.294132511368144556e+00
2.294132511368144556e+00
2.350196722312082542e+00
2.350196722312082542e+00
2.426324045533616136e+00
2.426324045533616136e+00
2.327508529923398850e+00
2.327508529923398850e+00
2.274256904812768987e+00
2.274256904812768987e+00
2.243318460646382295e+00
2.243318460646382295e+00
2.249318643757439062e+00
2.249318643757439062e+00
2.154628254036072832e+00
2.154628254036072832e+00
2.154628254036072832e+00
2.154815759758293314e+00
2.154815759758293314e+00
2.419011322367015993e+00
2.419011322367015993e+00
2.368197271645252844e+00
2.368197271645252844e+00
2.333696218756676100e+00
2.333696218756676100e+00
2.341758964812158617e+00
2.341758964812158617e+00
2.329571092867824156e+00
2.329571092867824156e+00
2.303695303201391820e+00
2.303695303201391820e+00
2.305757866145817125e+00
2.305757866145817125e+00
2.305757866145817125e+00
2.368947294534135217e+00
2.368947294534135217e+00
2.268819238868374111e+00
2.268819238868374111e+00
2.224942899868770141e+00
2.224942899868770141e+00
2.188941801202429094e+00
2.188941801202429094e+00
2.192504409924619146e+00
2.192504409924619146e+00
2.098189031647694325e+00
2.098189031647694325e+00
2.235255714590899334e+00
2.235255714590899334e+00
2.402510818811609106e+00
2.402510818811609106e+00
2.330883632923367976e+00
2.330883632923367976e+00
2.330883632923367976e+00
2.317945738090151586e+00
2.317945738090151586e+00
2.326571001312295994e+00
2.326571001312295994e+00
2.311195532090212890e+00
2.311195532090212890e+00
2.309132969145787140e+00
2.309132969145787140e+00
2.353009308145390222e+00
2.353009308145390222e+00
2.358446974089785542e+00
2.358446974089785542e+00
2.265631641590625023e+00
2.265631641590625023e+00
2.226442945646534444e+00
2.226442945646534444e+00
2.226442945646534444e+00
2.204129764702292160e+00
2.204129764702292160e+00
2.174691366313669327e+00
2.174691366313669327e+00
2.082438550981169811e+00
2.082438550981169811e+00
2.320008301034577336e+00
2.320008301034577336e+00
2.377572557756279181e+00
2.377572557756279181e+00
2.318320749534592551e+00
2.318320749534592551e+00
2.315695669423505798e+00
2.315695669423505798e+00
2.321320841090121156e+00
2.321320841090121156e+00
2.303882808923612302e+00
2.303882808923612302e+00
2.303882808923612302e+00
2.308007934812463802e+00
2.308007934812463802e+00
2.367259743034150432e+00
2.367259743034150432e+00
2.326571001312295994e+00
2.326571001312295994e+00
2.255506332590716312e+00
2.255506332590716312e+00
2.222317819757682944e+00
2.222317819757682944e+00
2.227755485702078264e+00
2.227755485702078264e+00
2.172253791924802613e+00
2.172253791924802613e+00
2.127064912869655711e+00
2.127064912869655711e+00
2.127064912869655711e+00
2.409073519089327764e+00
2.409073519089327764e+00
2.362384594256416559e+00
2.362384594256416559e+00
2.301820245979186552e+00
2.301820245979186552e+00
2.310070497756889552e+00
2.310070497756889552e+00
2.313633106479079604e+00
2.313633106479079604e+00
2.308195440534684284e+00
2.308195440534684284e+00
2.322633381145664977e+00
2.322633381145664977e+00
2.389197912533951751e+00
2.389197912533951751e+00
2.289632374034852091e+00
2.289632374034852091e+00
2.237505783257545566e+00
2.237505783257545566e+00
2.237505783257545566e+00
2.198129581591235393e+00
2.198129581591235393e+00
2.215755119479964730e+00
2.215755119479964730e+00
2.119002166814172750e+00
2.119002166814172750e+00
2.192129398480178182e+00
2.192129398480178182e+00
2.414511185033723084e+00
2.414511185033723084e+00
2.339321390423291458e+00
2.339321390423291458e+00
2.308195440534684284e+00
2.308195440534684284e+00
2.323008392590105942e+00
2.323008392590105942e+00
2.323008392590105942e+00
2.312133060701315301e+00
2.312133060701315301e+00
2.320945829645680192e+00
2.320945829645680192e+00
2.361634571367534630e+00
2.361634571367534630e+00
2.387885372478407930e+00
2.387885372478407930e+00
2.274819421979430434e+00
2.274819421979430434e+00
2.234318185979796478e+00
2.234318185979796478e+00
2.205629810480056463e+00
2.205629810480056463e+00
2.191004364146854844e+00
2.191004364146854844e+00
2.191004364146854844e+00
2.089001251258888470e+00
2.089001251258888470e+00
2.260943998535111632e+00
2.260943998535111632e+00
2.391260475478377501e+00
2.391260475478377501e+00
2.325445966978973100e+00
2.325445966978973100e+00
2.314195623645741495e+00
2.314195623645741495e+00
2.324508438367870244e+00
2.324508438367870244e+00
2.309320474868007622e+00
2.309320474868007622e+00
2.307820429090243319e+00
2.307820429090243319e+00
2.307820429090243319e+00
2.363322122867518971e+00
2.363322122867518971e+00
2.351509262367625919e+00
2.351509262367625919e+00
2.271819330423901828e+00
2.271819330423901828e+00
2.219880245368816230e+00
2.219880245368816230e+00
2.205817316202276945e+00
2.205817316202276945e+00
2.163441022980437278e+00
2.163441022980437278e+00
2.078875942258980203e+00
2.078875942258980203e+00
2.355634388256477418e+00
2.355634388256477418e+00
2.355634388256477418e+00
2.363509628589739453e+00
2.363509628589739453e+00
2.296382580034791232e+00
2.296382580034791232e+00
2.304070314645832784e+00
2.304070314645832784e+00
2.315133152256843907e+00
2.315133152256843907e+00
2.298445142979216982e+00
2.298445142979216982e+00
2.305945371868038052e+00
2.305945371868038052e+00
2.388072878200628413e+00
2.388072878200628413e+00
2.334258735923337547e+00
2.334258735923337547e+00
2.334258735923337547e+00
2.281194616534928166e+00
2.281194616534928166e+00
2.222317819757682944e+00
2.222317819757682944e+00
2.212192510757774677e+00
2.212192510757774677e+00
2.127627430036317158e+00
2.127627430036317158e+00
2.133252601702932960e+00
2.133252601702932960e+00
2.414136173589282119e+00
2.414136173589282119e+00
2.354509353923154524e+00
2.354509353923154524e+00
2.302570268868068482e+00
2.302570268868068482e+00
2.315695669423505798e+00
2.315695669423505798e+00
2.315695669423505798e+00
2.311758049256874337e+00
2.311758049256874337e+00
2.304070314645832784e+00
2.304070314645832784e+00
2.316258186590166801e+00
2.316258186590166801e+00
2.380385143589587305e+00
2.380385143589587305e+00
2.290382396923734465e+00
2.290382396923734465e+00
2.260756492812891150e+00
2.260756492812891150e+00
2.219880245368816230e+00
2.219880245368816230e+00
2.199067110202337361e+00
2.199067110202337361e+00
2.199067110202337361e+00
2.094626422925504272e+00
2.094626422925504272e+00
2.221755302591021497e+00
2.221755302591021497e+00
2.406260933256020085e+00
2.406260933256020085e+00
2.331633655812249906e+00
2.331633655812249906e+00
2.303882808923612302e+00
2.303882808923612302e+00
2.314570635090182460e+00
2.314570635090182460e+00
2.299195165868098911e+00
2.299195165868098911e+00
2.299007660145878429e+00
2.299007660145878429e+00
2.299007660145878429e+00
2.331633655812249906e+00
2.331633655812249906e+00
2.342508987701040546e+00
2.342508987701040546e+00
2.255881344035157721e+00
2.255881344035157721e+00
2.224942899868770141e+00
2.224942899868770141e+00
2.213880062257759462e+00
2.213880062257759462e+00
2.195504501480147752e+00
2.195504501480147752e+00
2.106251777703176842e+00
2.106251777703176842e+00
2.328821069978942226e+00
2.328821069978942226e+00
2.328821069978942226e+00
2.395573107089449927e+00
2.395573107089449927e+00
2.323383404034546906e+00
2.323383404034546906e+00
2.316070680867946319e+00
2.316070680867946319e+00
2.322445875423444495e+00
2.322445875423444495e+00
2.300320200201422249e+00
2.300320200201422249e+00
2.294507522812585520e+00
2.294507522812585520e+00
2.358821985534226506e+00
2.358821985534226506e+00
2.327883541367839371e+00
2.327883541367839371e+00
2.259443952757347329e+00
2.259443952757347329e+00
2.259443952757347329e+00
2.214067567979979945e+00
2.214067567979979945e+00
2.219317728202154782e+00
2.219317728202154782e+00
2.169066194647053525e+00
2.169066194647053525e+00
2.116939603869747000e+00
2.116939603869747000e+00
2.397073152867214230e+00
2.397073152867214230e+00
2.361634571367534630e+00
2.361634571367534630e+00
2.298445142979216982e+00
2.298445142979216982e+00
2.299382671590319838e+00
2.299382671590319838e+00
2.302945280312509890e+00
2.302945280312509890e+00
2.302945280312509890e+00
2.300882717368083696e+00
2.300882717368083696e+00
2.316820703756828248e+00
2.316820703756828248e+00
2.381322672200689716e+00
2.381322672200689716e+00
2.281944639423810539e+00
2.281944639423810539e+00
2.247068575090792386e+00
2.247068575090792386e+00
2.212942533646656607e+00
2.212942533646656607e+00
2.223067842646564873e+00
2.223067842646564873e+00
2.122752281258583285e+00
2.122752281258583285e+00
2.122752281258583285e+00
2.177316446424756524e+00
2.177316446424756524e+00
2.422761436811426083e+00
2.422761436811426083e+00
2.358259468367565059e+00
2.358259468367565059e+00
2.313445600756859122e+00
2.313445600756859122e+00
2.324133426923429280e+00
2.324133426923429280e+00
2.316633198034607766e+00
2.316633198034607766e+00
2.303507797479171337e+00
2.303507797479171337e+00
2.320945829645680192e+00
2.320945829645680192e+00
2.320945829645680192e+00
2.357321939756462204e+00
2.357321939756462204e+00
2.264506607257301685e+00
2.264506607257301685e+00
2.236943266090884119e+00
2.236943266090884119e+00
2.213505050813318054e+00
2.213505050813318054e+00
2.217067659535508550e+00
2.217067659535508550e+00
2.116752098147526517e+00
2.116752098147526517e+00
2.267506698812830290e+00
2.267506698812830290e+00
2.406823450422681532e+00
2.406823450422681532e+00
2.406823450422681532e+00
2.331633655812249906e+00
2.331633655812249906e+00
2.304070314645832784e+00
2.304070314645832784e+00
2.314008117923521013e+00
2.314008117923521013e+00
2.297695120090334608e+00
2.297695120090334608e+00
2.299007660145878429e+00
2.299007660145878429e+00
2.348884182256538722e+00
2.348884182256538722e+00
2.343821527756584366e+00
2.343821527756584366e+00
2.262444044312875935e+00
2.262444044312875935e+00
2.262444044312875935e+00
2.212942533646656607e+00
2.212942533646656607e+00
2.195879512924588717e+00
2.195879512924588717e+00
2.164191045869319652e+00
2.164191045869319652e+00
2.087688711203345093e+00
2.087688711203345093e+00
2.361447065645314147e+00
2.361447065645314147e+00
2.386947843867305519e+00
2.386947843867305519e+00
2.319070772423474924e+00
2.319070772423474924e+00
2.318883266701254442e+00
2.318883266701254442e+00
2.318883266701254442e+00
2.311758049256874337e+00
2.311758049256874337e+00
2.296757591479232197e+00
2.296757591479232197e+00
2.302570268868068482e+00
2.302570268868068482e+00
2.367634754478591397e+00
2.367634754478591397e+00
2.305382854701376161e+00
2.305382854701376161e+00
2.258131412701803509e+00
2.258131412701803509e+00
2.220817773979919085e+00
2.220817773979919085e+00
2.233380657368694511e+00
2.233380657368694511e+00
2.233380657368694511e+00
2.159315897091586223e+00
2.159315897091586223e+00
2.134377636036255854e+00
2.134377636036255854e+00
2.412448622089296890e+00
2.412448622089296890e+00
2.365759697256386129e+00
2.365759697256386129e+00
2.318883266701254442e+00
2.318883266701254442e+00
2.328633564256721744e+00
2.328633564256721744e+00
2.317945738090151586e+00
2.317945738090151586e+00
2.303132786034730373e+00
2.303132786034730373e+00
2.303132786034730373e+00
2.315883175145725836e+00
2.315883175145725836e+00
2.379072603534043484e+00
2.379072603534043484e+00
2.276319467757194737e+00
2.276319467757194737e+00
2.244631000701926116e+00
2.244631000701926116e+00
2.205817316202276945e+00
2.205817316202276945e+00
2.206567339091158875e+00
2.206567339091158875e+00
2.095376445814386202e+00
2.095376445814386202e+00
2.193254432813501520e+00
2.193254432813501520e+00
2.193254432813501520e+00
2.394635578478347071e+00
2.394635578478347071e+00
2.314570635090182460e+00
2.314570635090182460e+00
2.290194891201513983e+00
2.290194891201513983e+00
2.313258095034638639e+00
2.313258095034638639e+00
2.304820337534714714e+00
2.304820337534714714e+00
2.303132786034730373e+00
2.303132786034730373e+00
2.341008941923276243e+00
2.341008941923276243e+00
2.366509720145268059e+00
2.366509720145268059e+00
2.279882076479384789e+00
2.279882076479384789e+00
2.279882076479384789e+00
2.242568437757499922e+00
2.242568437757499922e+00
2.225505417035432032e+00
2.225505417035432032e+00
2.199629627368999252e+00
2.199629627368999252e+00
2.090313791314432290e+00
2.090313791314432290e+00
2.307070406201360946e+00
2.307070406201360946e+00
2.410948576311533031e+00
2.410948576311533031e+00
2.335383770256660885e+00
2.335383770256660885e+00
2.310820520645771925e+00
2.310820520645771925e+00
2.308945463423566213e+00
2.308945463423566213e+00
2.308945463423566213e+00
2.289819879757073018e+00
2.289819879757073018e+00
2.287569811090426342e+00
2.287569811090426342e+00
2.350946745200964472e+00
2.350946745200964472e+00
2.325820978423414065e+00
2.325820978423414065e+00
2.270881801812799416e+00
2.270881801812799416e+00
2.233755668813135031e+00
2.233755668813135031e+00
2.232818140202032620e+00
2.232818140202032620e+00
2.177691457869197489e+00
2.177691457869197489e+00
2.177691457869197489e+00
2.103064180425428198e+00
2.103064180425428198e+00
2.393510544145024177e+00
2.393510544145024177e+00
2.360509537034211291e+00
2.360509537034211291e+00
2.309507980590228104e+00
2.309507980590228104e+00
2.313820612201300086e+00
2.313820612201300086e+00
2.302195257423627517e+00
2.302195257423627517e+00
2.287569811090426342e+00
2.287569811090426342e+00
2.302570268868068482e+00
2.302570268868068482e+00
2.302570268868068482e+00
2.381510177922910199e+00
2.381510177922910199e+00
2.296382580034791232e+00
2.296382580034791232e+00
2.247256080813012868e+00
2.247256080813012868e+00
2.206942350535599839e+00
2.206942350535599839e+00
2.218942716757713818e+00
