2.385635303811762142e+00
2.401385784478286212e+00
2.401385784478286212e+00
2.401385784478286212e+00
2.401385784478286212e+00
2.324508438367870244e+00
2.324508438367870244e+00
2.324508438367870244e+00
2.317758232367931104e+00
2.317758232367931104e+00
2.317758232367931104e+00
2.311758049256874337e+00
2.311758049256874337e+00
2.311758049256874337e+00
2.311758049256874337e+00
2.296570085757011714e+00
2.296570085757011714e+00
2.296570085757011714e+00
2.306320383312479017e+00
2.306320383312479017e+00
2.306320383312479017e+00
2.373822443311869090e+00
2.373822443311869090e+00
2.373822443311869090e+00
2.373822443311869090e+00
2.311383037812433372e+00
2.311383037812433372e+00
2.311383037812433372e+00
2.251943723868526259e+00
2.251943723868526259e+00
2.251943723868526259e+00
2.207692373424482213e+00
2.207692373424482213e+00
2.207692373424482213e+00
2.207692373424482213e+00
2.213692556535538980e+00
2.213692556535538980e+00
2.213692556535538980e+00
2.141502853480635959e+00
2.141502853480635959e+00
2.141502853480635959e+00
2.141502853480635959e+00
2.122564775536362802e+00
2.122564775536362802e+00
2.122564775536362802e+00
2.420698873867000778e+00
2.420698873867000778e+00
2.420698873867000778e+00
2.365009674367503756e+00
2.365009674367503756e+00
2.365009674367503756e+00
2.365009674367503756e+00
2.305382854701376161e+00
2.305382854701376161e+00
2.305382854701376161e+00
2.310258003479110034e+00
2.310258003479110034e+00
2.310258003479110034e+00
2.298257637256996500e+00
2.298257637256996500e+00
2.298257637256996500e+00
2.298257637256996500e+00
2.289257362590411127e+00
2.289257362590411127e+00
2.289257362590411127e+00
2.313258095034638639e+00
2.313258095034638639e+00
2.313258095034638639e+00
2.313258095034638639e+00
2.391822992645039392e+00
2.391822992645039392e+00
2.281007110812707683e+00
2.281007110812707683e+00
2.281007110812707683e+00
2.281007110812707683e+00
2.243318460646382295e+00
2.243318460646382295e+00
2.243318460646382295e+00
2.197754570146794428e+00
2.197754570146794428e+00
2.197754570146794428e+00
2.200004638813440216e+00
2.200004638813440216e+00
2.200004638813440216e+00
2.200004638813440216e+00
2.088251228370006540e+00
2.088251228370006540e+00
2.088251228370006540e+00
2.191004364146854844e+00
2.191004364146854844e+00
2.191004364146854844e+00
2.401573290200506694e+00
2.401573290200506694e+00
2.312695577867977192e+00
2.312695577867977192e+00
2.312695577867977192e+00
2.312695577867977192e+00
2.276881984923856628e+00
2.276881984923856628e+00
2.276881984923856628e+00
2.308195440534684284e+00
2.308195440534684284e+00
2.308195440534684284e+00
2.315320657979064389e+00
2.315320657979064389e+00
2.315320657979064389e+00
2.315320657979064389e+00
2.317945738090151586e+00
2.317945738090151586e+00
2.317945738090151586e+00
2.364634662923062791e+00
2.364634662923062791e+00
2.364634662923062791e+00
2.364634662923062791e+00
2.383947752311777357e+00
2.383947752311777357e+00
2.383947752311777357e+00
2.283257179479354360e+00
2.283257179479354360e+00
2.283257179479354360e+00
2.229255531479842567e+00
2.229255531479842567e+00
2.229255531479842567e+00
2.229255531479842567e+00
2.211629993591112786e+00
2.211629993591112786e+00
2.211629993591112786e+00
2.197942075869014911e+00
2.197942075869014911e+00
2.197942075869014911e+00
2.093313882869960452e+00
2.093313882869960452e+00
2.093313882869960452e+00
2.311758049256874337e+00
2.311758049256874337e+00
2.311758049256874337e+00
2.394448072756126589e+00
2.394448072756126589e+00
2.394448072756126589e+00
2.314383129367961978e+00
2.314383129367961978e+00
2.314383129367961978e+00
2.314383129367961978e+00
2.291694936979278285e+00
2.291694936979278285e+00
2.291694936979278285e+00
2.314008117923521013e+00
2.314008117923521013e+00
2.314008117923521013e+00
2.303882808923612302e+00
2.303882808923612302e+00
2.303882808923612302e+00
2.303882808923612302e+00
2.313820612201300086e+00
2.313820612201300086e+00
2.313820612201300086e+00
2.365759697256386129e+00
2.365759697256386129e+00
2.365759697256386129e+00
2.365759697256386129e+00
2.326946012756737403e+00
2.326946012756737403e+00
2.326946012756737403e+00
2.259443952757347329e+00
2.259443952757347329e+00
2.259443952757347329e+00
2.209754936368907963e+00
2.209754936368907963e+00
2.209754936368907963e+00
2.209754936368907963e+00
2.197379558702353020e+00
2.197379558702353020e+00
2.197379558702353020e+00
2.130627521591845319e+00
2.130627521591845319e+00
2.130627521591845319e+00
2.071563219092379615e+00
2.071563219092379615e+00
2.071563219092379615e+00
2.071563219092379615e+00
2.396885647144993747e+00
2.396885647144993747e+00
2.396885647144993747e+00
2.374384960478530537e+00
2.374384960478530537e+00
2.374384960478530537e+00
2.311008026367992407e+00
2.311008026367992407e+00
2.311008026367992407e+00
2.311008026367992407e+00
2.329196081423383191e+00
2.329196081423383191e+00
2.329196081423383191e+00
2.330508621478927012e+00
2.330508621478927012e+00
2.330508621478927012e+00
2.310633014923550999e+00
2.310633014923550999e+00
2.310633014923550999e+00
2.310633014923550999e+00
2.315695669423505798e+00
2.315695669423505798e+00
2.315695669423505798e+00
2.384510269478438804e+00
2.384510269478438804e+00
2.384510269478438804e+00
2.290757408368175430e+00
2.290757408368175430e+00
2.290757408368175430e+00
2.290757408368175430e+00
2.243130954924161813e+00
2.243130954924161813e+00
2.243130954924161813e+00
2.199254615924558287e+00
2.199254615924558287e+00
2.199254615924558287e+00
2.209567430646687480e+00
2.209567430646687480e+00
2.209567430646687480e+00
2.209567430646687480e+00
2.102689168980987233e+00
2.102689168980987233e+00
2.102689168980987233e+00
2.157440839869380955e+00
2.157440839869380955e+00
2.157440839869380955e+00
2.157440839869380955e+00
2.418261299478133619e+00
2.418261299478133619e+00
2.418261299478133619e+00
2.346634113589892490e+00
2.346634113589892490e+00
2.346634113589892490e+00
2.316445692312387283e+00
2.316445692312387283e+00
2.316445692312387283e+00
2.316445692312387283e+00
2.328633564256721744e+00
2.328633564256721744e+00
2.328633564256721744e+00
2.319633289590136371e+00
2.319633289590136371e+00
2.319633289590136371e+00
2.305945371868038052e+00
2.305945371868038052e+00
2.305945371868038052e+00
2.305945371868038052e+00
2.323758415478988315e+00
2.323758415478988315e+00
2.323758415478988315e+00
2.379072603534043484e+00
2.379072603534043484e+00
2.379072603534043484e+00
2.279132053590502860e+00
2.279132053590502860e+00
2.279132053590502860e+00
2.279132053590502860e+00
2.242755943479720404e+00
2.242755943479720404e+00
2.242755943479720404e+00
2.216692648091067142e+00
2.216692648091067142e+00
2.216692648091067142e+00
2.208442396313364142e+00
2.208442396313364142e+00
2.208442396313364142e+00
2.208442396313364142e+00
2.090501297036652772e+00
2.090501297036652772e+00
2.090501297036652772e+00
2.250443678090761956e+00
2.250443678090761956e+00
2.250443678090761956e+00
2.404760887478255782e+00
2.404760887478255782e+00
2.404760887478255782e+00
2.404760887478255782e+00
2.320570818201239227e+00
2.320570818201239227e+00
2.320570818201239227e+00
2.296195074312570750e+00
2.296195074312570750e+00
2.296195074312570750e+00
2.307632923368022837e+00
2.307632923368022837e+00
2.307632923368022837e+00
2.307632923368022837e+00
2.302382763145847999e+00
2.302382763145847999e+00
2.302382763145847999e+00
2.305570360423596643e+00
2.305570360423596643e+00
2.305570360423596643e+00
2.353946836756492633e+00
2.353946836756492633e+00
2.353946836756492633e+00
2.353946836756492633e+00
2.348696676534318240e+00
2.348696676534318240e+00
2.348696676534318240e+00
2.254193792535172935e+00
2.254193792535172935e+00
2.254193792535172935e+00
2.214817590868861874e+00
2.214817590868861874e+00
2.214817590868861874e+00
2.214817590868861874e+00
2.209379924924466998e+00
2.209379924924466998e+00
2.209379924924466998e+00
2.180879055146946577e+00
2.180879055146946577e+00
2.180879055146946577e+00
2.180879055146946577e+00
2.095751457258827610e+00
2.095751457258827610e+00
2.095751457258827610e+00
2.375509994811853431e+00
2.375509994811853431e+00
2.375509994811853431e+00
2.396698141422773265e+00
2.396698141422773265e+00
2.396698141422773265e+00
2.396698141422773265e+00
2.335383770256660885e+00
2.335383770256660885e+00
2.335383770256660885e+00
2.338196356089969008e+00
2.338196356089969008e+00
2.338196356089969008e+00
2.347571642200994901e+00
2.347571642200994901e+00
2.347571642200994901e+00
2.347571642200994901e+00
2.321320841090121156e+00
2.321320841090121156e+00
2.321320841090121156e+00
2.309882992034669069e+00
2.309882992034669069e+00
2.309882992034669069e+00
2.372884914700766235e+00
2.372884914700766235e+00
2.372884914700766235e+00
2.372884914700766235e+00
2.316070680867946319e+00
2.316070680867946319e+00
2.316070680867946319e+00
2.244631000701926116e+00
2.244631000701926116e+00
2.244631000701926116e+00
2.189504318369090985e+00
2.189504318369090985e+00
2.189504318369090985e+00
2.189504318369090985e+00
2.203567247535630269e+00
2.203567247535630269e+00
2.203567247535630269e+00
2.131190038758506766e+00
2.131190038758506766e+00
2.131190038758506766e+00
2.131190038758506766e+00
2.116752098147526517e+00
2.116752098147526517e+00
2.116752098147526517e+00
2.404760887478255782e+00
2.404760887478255782e+00
2.404760887478255782e+00
2.345696584978789634e+00
2.345696584978789634e+00
2.345696584978789634e+00
2.345696584978789634e+00
2.292069948423719250e+00
2.292069948423719250e+00
2.292069948423719250e+00
2.310445509201330516e+00
2.310445509201330516e+00
2.310445509201330516e+00
2.295070039979247412e+00
2.295070039979247412e+00
2.295070039979247412e+00
2.295070039979247412e+00
2.276506973479415219e+00
2.276506973479415219e+00
2.276506973479415219e+00
2.287944822534867306e+00
2.287944822534867306e+00
2.287944822534867306e+00
2.369322305978576182e+00
2.369322305978576182e+00
2.369322305978576182e+00
2.369322305978576182e+00
2.272006836146122755e+00
2.272006836146122755e+00
2.272006836146122755e+00
2.241630909146397510e+00
2.241630909146397510e+00
2.241630909146397510e+00
2.241630909146397510e+00
2.206567339091158875e+00
2.206567339091158875e+00
2.206567339091158875e+00
2.208254890591143660e+00
2.208254890591143660e+00
2.208254890591143660e+00
2.098939054536576698e+00
2.098939054536576698e+00
2.098939054536576698e+00
2.098939054536576698e+00
2.217630176702169997e+00
2.217630176702169997e+00
2.217630176702169997e+00
2.440574480422376347e+00
2.440574480422376347e+00
2.440574480422376347e+00
2.349259193700979687e+00
2.349259193700979687e+00
2.349259193700979687e+00
2.295445051423688376e+00
2.295445051423688376e+00
2.295445051423688376e+00
2.295445051423688376e+00
2.302195257423627517e+00
2.302195257423627517e+00
2.302195257423627517e+00
2.304820337534714714e+00
2.304820337534714714e+00
2.304820337534714714e+00
2.310445509201330516e+00
2.310445509201330516e+00
2.310445509201330516e+00
2.310445509201330516e+00
2.353759331034272151e+00
2.353759331034272151e+00
2.353759331034272151e+00
2.369509811700796664e+00
2.369509811700796664e+00
2.369509811700796664e+00
2.268256721701712220e+00
2.268256721701712220e+00
2.268256721701712220e+00
2.268256721701712220e+00
2.224380382702108694e+00
2.224380382702108694e+00
2.224380382702108694e+00
2.206004821924497428e+00
2.206004821924497428e+00
2.206004821924497428e+00
2.183691640980254700e+00
2.183691640980254700e+00
2.183691640980254700e+00
2.183691640980254700e+00
2.080000976592303541e+00
2.080000976592303541e+00
2.080000976592303541e+00
2.306507889034699499e+00
2.306507889034699499e+00
2.306507889034699499e+00
2.386385326700643628e+00
2.386385326700643628e+00
2.386385326700643628e+00
2.386385326700643628e+00
2.313258095034638639e+00
2.313258095034638639e+00
2.313258095034638639e+00
2.304257820368053267e+00
2.304257820368053267e+00
2.304257820368053267e+00
2.315695669423505798e+00
2.315695669423505798e+00
2.315695669423505798e+00
2.315695669423505798e+00
2.298445142979216982e+00
2.298445142979216982e+00
2.298445142979216982e+00
2.302195257423627517e+00
2.302195257423627517e+00
2.302195257423627517e+00
2.374384960478530537e+00
2.374384960478530537e+00
2.374384960478530537e+00
2.374384960478530537e+00
2.336696310312204705e+00
2.336696310312204705e+00
2.336696310312204705e+00
2.265631641590625023e+00
2.265631641590625023e+00
2.265631641590625023e+00
2.221567796868801015e+00
2.221567796868801015e+00
2.221567796868801015e+00
2.221567796868801015e+00
2.210504959257789892e+00
2.210504959257789892e+00
2.210504959257789892e+00
2.149940610980559885e+00
2.149940610980559885e+00
2.149940610980559885e+00
2.149940610980559885e+00
2.088251228370006540e+00
2.088251228370006540e+00
2.088251228370006540e+00
2.395948118533890892e+00
2.395948118533890892e+00
2.395948118533890892e+00
2.357134434034241721e+00
2.357134434034241721e+00
2.357134434034241721e+00
2.357134434034241721e+00
2.294320017090365038e+00
2.294320017090365038e+00
2.294320017090365038e+00
2.304257820368053267e+00
2.304257820368053267e+00
2.304257820368053267e+00
2.312133060701315301e+00
2.312133060701315301e+00
2.312133060701315301e+00
2.312133060701315301e+00
2.298070131534776017e+00
2.298070131534776017e+00
2.298070131534776017e+00
2.308007934812463802e+00
2.308007934812463802e+00
2.308007934812463802e+00
2.386760338145085036e+00
2.386760338145085036e+00
2.386760338145085036e+00
2.386760338145085036e+00
2.295257545701467894e+00
2.295257545701467894e+00
2.295257545701467894e+00
2.251568712424085295e+00
2.251568712424085295e+00
2.251568712424085295e+00
2.209379924924466998e+00
2.209379924924466998e+00
2.209379924924466998e+00
2.209379924924466998e+00
2.212192510757774677e+00
2.212192510757774677e+00
2.212192510757774677e+00
2.104376720480972018e+00
2.104376720480972018e+00
2.104376720480972018e+00
2.164753563035981099e+00
2.164753563035981099e+00
2.164753563035981099e+00
2.164753563035981099e+00
2.418636310922574584e+00
2.418636310922574584e+00
2.418636310922574584e+00
2.342883999145481511e+00
2.342883999145481511e+00
2.342883999145481511e+00
2.342883999145481511e+00
2.303695303201391820e+00
2.303695303201391820e+00
2.303695303201391820e+00
2.316445692312387283e+00
2.316445692312387283e+00
2.316445692312387283e+00
2.302945280312509890e+00
2.302945280312509890e+00
2.302945280312509890e+00
2.302945280312509890e+00
2.294320017090365038e+00
2.294320017090365038e+00
2.294320017090365038e+00
2.330696127201147494e+00
2.330696127201147494e+00
2.330696127201147494e+00
2.384697775200659287e+00
2.384697775200659287e+00
2.384697775200659287e+00
2.384697775200659287e+00
2.269569261757255596e+00
2.269569261757255596e+00
2.269569261757255596e+00
2.225505417035432032e+00
2.225505417035432032e+00
2.225505417035432032e+00
2.196254524369030126e+00
2.196254524369030126e+00
2.196254524369030126e+00
2.196254524369030126e+00
2.194004455702383449e+00
2.194004455702383449e+00
2.194004455702383449e+00
2.097063997314370987e+00
2.097063997314370987e+00
2.097063997314370987e+00
2.282694662312692468e+00
2.282694662312692468e+00
2.282694662312692468e+00
2.282694662312692468e+00
2.425761528366954689e+00
2.425761528366954689e+00
2.425761528366954689e+00
2.342508987701040546e+00
2.342508987701040546e+00
2.342508987701040546e+00
2.342508987701040546e+00
2.323383404034546906e+00
2.323383404034546906e+00
2.323383404034546906e+00
2.320195806756797818e+00
2.320195806756797818e+00
2.320195806756797818e+00
2.299945188756981285e+00
2.299945188756981285e+00
2.299945188756981285e+00
2.299945188756981285e+00
2.309132969145787140e+00
2.309132969145787140e+00
2.309132969145787140e+00
2.356196905423139309e+00
2.356196905423139309e+00
2.356196905423139309e+00
2.332196172978911797e+00
2.332196172978911797e+00
2.332196172978911797e+00
2.332196172978911797e+00
2.252318735312967224e+00
2.252318735312967224e+00
2.252318735312967224e+00
2.213692556535538980e+00
2.213692556535538980e+00
2.213692556535538980e+00
2.207504867702261730e+00
2.207504867702261730e+00
2.207504867702261730e+00
2.207504867702261730e+00
2.164378551591540134e+00
2.164378551591540134e+00
2.164378551591540134e+00
2.068188116092410045e+00
2.068188116092410045e+00
2.068188116092410045e+00
2.355259376812036454e+00
2.355259376812036454e+00
2.355259376812036454e+00
2.355259376812036454e+00
2.367447248756370914e+00
2.367447248756370914e+00
2.367447248756370914e+00
2.299007660145878429e+00
2.299007660145878429e+00
2.299007660145878429e+00
2.297507614368114126e+00
2.297507614368114126e+00
2.297507614368114126e+00
2.297507614368114126e+00
2.303320291756950855e+00
2.303320291756950855e+00
2.303320291756950855e+00
2.295445051423688376e+00
2.295445051423688376e+00
2.295445051423688376e+00
2.310070497756889552e+00
2.310070497756889552e+00
2.310070497756889552e+00
2.310070497756889552e+00
2.386760338145085036e+00
2.386760338145085036e+00
2.386760338145085036e+00
2.315695669423505798e+00
2.315695669423505798e+00
2.315695669423505798e+00
2.315695669423505798e+00
2.251193700979644330e+00
2.251193700979644330e+00
2.251193700979644330e+00
2.214630085146641392e+00
2.214630085146641392e+00
2.214630085146641392e+00
2.232443128757591655e+00
2.232443128757591655e+00
2.232443128757591655e+00
2.232443128757591655e+00
2.147128025147251762e+00
2.147128025147251762e+00
2.147128025147251762e+00
2.130627521591845319e+00
2.130627521591845319e+00
2.130627521591845319e+00
2.423886471144749422e+00
2.423886471144749422e+00
2.423886471144749422e+00
2.365384685811944721e+00
2.365384685811944721e+00
2.365384685811944721e+00
2.365384685811944721e+00
2.304445326090273749e+00
2.304445326090273749e+00
2.304445326090273749e+00
2.319633289590136371e+00
2.319633289590136371e+00
2.319633289590136371e+00
2.310633014923550999e+00
2.310633014923550999e+00
2.310633014923550999e+00
2.310633014923550999e+00
2.297132602923673161e+00
2.297132602923673161e+00
2.297132602923673161e+00
2.316445692312387283e+00
2.316445692312387283e+00
2.316445692312387283e+00
2.393135532700583212e+00
2.393135532700583212e+00
2.393135532700583212e+00
2.393135532700583212e+00
2.278194524979400004e+00
2.278194524979400004e+00
2.278194524979400004e+00
2.237130771813104602e+00
2.237130771813104602e+00
2.237130771813104602e+00
2.203754753257850751e+00
2.203754753257850751e+00
2.203754753257850751e+00
2.203754753257850751e+00
2.203754753257850751e+00
2.203754753257850751e+00
2.203754753257850751e+00
2.094251411481063307e+00
2.094251411481063307e+00
2.094251411481063307e+00
2.212005005035553751e+00
2.212005005035553751e+00
2.212005005035553751e+00
2.212005005035553751e+00
2.420886379589221260e+00
2.420886379589221260e+00
2.420886379589221260e+00
2.341946470534379099e+00
2.341946470534379099e+00
2.341946470534379099e+00
2.310070497756889552e+00
2.310070497756889552e+00
2.310070497756889552e+00
2.310070497756889552e+00
2.315320657979064389e+00
2.315320657979064389e+00
2.315320657979064389e+00
2.298820154423657947e+00
2.298820154423657947e+00
2.298820154423657947e+00
2.298820154423657947e+00
2.292257454145939732e+00
2.292257454145939732e+00
2.292257454145939732e+00
2.333508713034455617e+00
2.333508713034455617e+00
2.333508713034455617e+00
2.349259193700979687e+00
2.349259193700979687e+00
2.349259193700979687e+00
2.255131321146275347e+00
2.255131321146275347e+00
2.255131321146275347e+00
2.255131321146275347e+00
2.216880153813287624e+00
2.216880153813287624e+00
2.216880153813287624e+00
2.209754936368907963e+00
2.209754936368907963e+00
2.209754936368907963e+00
2.209754936368907963e+00
2.192691915646840073e+00
2.192691915646840073e+00
2.192691915646840073e+00
2.095938962981048093e+00
2.095938962981048093e+00
2.095938962981048093e+00
2.321883358256782603e+00
2.321883358256782603e+00
2.321883358256782603e+00
2.321883358256782603e+00
2.390510452589495571e+00
2.390510452589495571e+00
2.390510452589495571e+00
2.316070680867946319e+00
2.316070680867946319e+00
2.316070680867946319e+00
2.309695486312448587e+00
2.309695486312448587e+00
2.309695486312448587e+00
2.309695486312448587e+00
2.314945646534623425e+00
2.314945646534623425e+00
2.314945646534623425e+00
2.303507797479171337e+00
2.303507797479171337e+00
2.303507797479171337e+00
2.305757866145817125e+00
2.305757866145817125e+00
2.305757866145817125e+00
2.305757866145817125e+00
2.359572008423108880e+00
2.359572008423108880e+00
2.359572008423108880e+00
2.330508621478927012e+00
2.330508621478927012e+00
2.330508621478927012e+00
2.272756859035004684e+00
2.272756859035004684e+00
2.272756859035004684e+00
2.272756859035004684e+00
2.228693014313181120e+00
2.228693014313181120e+00
2.228693014313181120e+00
2.224755394146549659e+00
2.224755394146549659e+00
2.224755394146549659e+00
2.149940610980559885e+00
2.149940610980559885e+00
2.149940610980559885e+00
2.149940610980559885e+00
2.084688619647816488e+00
2.084688619647816488e+00
2.084688619647816488e+00
2.401948301644947659e+00
2.401948301644947659e+00
2.401948301644947659e+00
2.369884823145237629e+00
2.369884823145237629e+00
2.369884823145237629e+00
2.369884823145237629e+00
2.307070406201360946e+00
2.307070406201360946e+00
2.307070406201360946e+00
2.298070131534776017e+00
2.298070131534776017e+00
2.298070131534776017e+00
2.298632648701437464e+00
2.298632648701437464e+00
2.298632648701437464e+00
2.298632648701437464e+00
2.304445326090273749e+00
2.304445326090273749e+00
2.304445326090273749e+00
2.329571092867824156e+00
2.329571092867824156e+00
2.329571092867824156e+00
2.402135807367168141e+00
2.402135807367168141e+00
2.402135807367168141e+00
2.402135807367168141e+00
2.294695028534806447e+00
2.294695028534806447e+00
2.294695028534806447e+00
2.243318460646382295e+00
2.243318460646382295e+00
2.243318460646382295e+00
2.195316995757927270e+00
2.195316995757927270e+00
2.195316995757927270e+00
2.195316995757927270e+00
2.203754753257850751e+00
2.203754753257850751e+00
2.203754753257850751e+00
2.099126560258797181e+00
2.099126560258797181e+00
2.099126560258797181e+00
2.169066194647053525e+00
2.169066194647053525e+00
2.169066194647053525e+00
2.169066194647053525e+00
2.423323953978087530e+00
2.423323953978087530e+00
2.423323953978087530e+00
2.342883999145481511e+00
2.342883999145481511e+00
2.342883999145481511e+00
2.302195257423627517e+00
2.302195257423627517e+00
2.302195257423627517e+00
2.302195257423627517e+00
2.318508255256813033e+00
2.318508255256813033e+00
2.318508255256813033e+00
2.312320566423536228e+00
2.312320566423536228e+00
2.312320566423536228e+00
2.312320566423536228e+00
2.290194891201513983e+00
2.290194891201513983e+00
2.290194891201513983e+00
2.305382854701376161e+00
2.305382854701376161e+00
2.305382854701376161e+00
2.349821710867641578e+00
2.349821710867641578e+00
2.349821710867641578e+00
2.349821710867641578e+00
2.253256263924070080e+00
2.253256263924070080e+00
2.253256263924070080e+00
2.229068025757622085e+00
2.229068025757622085e+00
2.229068025757622085e+00
2.210879970702230857e+00
2.210879970702230857e+00
2.210879970702230857e+00
2.210879970702230857e+00
2.200567155980101663e+00
2.200567155980101663e+00
2.200567155980101663e+00
2.099689077425458628e+00
2.099689077425458628e+00
2.099689077425458628e+00
2.282319650868251504e+00
2.282319650868251504e+00
2.282319650868251504e+00
2.419011322367015993e+00
2.419011322367015993e+00
2.419011322367015993e+00
2.419011322367015993e+00
2.347946653645436310e+00
2.347946653645436310e+00
2.347946653645436310e+00
2.326571001312295994e+00
2.326571001312295994e+00
2.326571001312295994e+00
2.326571001312295994e+00
2.329196081423383191e+00
2.329196081423383191e+00
2.329196081423383191e+00
2.308945463423566213e+00
2.308945463423566213e+00
2.308945463423566213e+00
2.306132877590258534e+00
2.306132877590258534e+00
2.306132877590258534e+00
2.359384502700888397e+00
2.359384502700888397e+00
2.359384502700888397e+00
2.359384502700888397e+00
2.347009125034333454e+00
2.347009125034333454e+00
2.347009125034333454e+00
2.269569261757255596e+00
2.269569261757255596e+00
2.269569261757255596e+00
2.225317911313211550e+00
2.225317911313211550e+00
2.225317911313211550e+00
2.225317911313211550e+00
2.217067659535508550e+00
2.217067659535508550e+00
2.217067659535508550e+00
2.174503860591448845e+00
2.174503860591448845e+00
2.174503860591448845e+00
2.174503860591448845e+00
2.085438642536698417e+00
2.085438642536698417e+00
2.085438642536698417e+00
2.379072603534043484e+00
2.379072603534043484e+00
2.379072603534043484e+00
2.389197912533951751e+00
2.389197912533951751e+00
2.389197912533951751e+00
2.298070131534776017e+00
2.298070131534776017e+00
2.298070131534776017e+00
2.298070131534776017e+00
2.287569811090426342e+00
2.287569811090426342e+00
2.287569811090426342e+00
2.296007568590349823e+00
2.296007568590349823e+00
2.296007568590349823e+00
2.296007568590349823e+00
2.283632190923795324e+00
2.283632190923795324e+00
2.283632190923795324e+00
2.298070131534776017e+00
2.298070131534776017e+00
2.298070131534776017e+00
2.366884731589709023e+00
2.366884731589709023e+00
2.366884731589709023e+00
2.366884731589709023e+00
2.292632465590380253e+00
2.292632465590380253e+00
2.292632465590380253e+00
2.245193517868587563e+00
2.245193517868587563e+00
2.245193517868587563e+00
2.212380016479995160e+00
2.212380016479995160e+00
2.212380016479995160e+00
2.212380016479995160e+00
2.222130314035462462e+00
2.222130314035462462e+00
2.222130314035462462e+00
2.125002349925229961e+00
2.125002349925229961e+00
2.125002349925229961e+00
2.114877040925321250e+00
2.114877040925321250e+00
2.114877040925321250e+00
2.114877040925321250e+00
2.406448438978240567e+00
2.406448438978240567e+00
2.406448438978240567e+00
2.347571642200994901e+00
2.347571642200994901e+00
2.347571642200994901e+00
2.295632557145908859e+00
2.295632557145908859e+00
2.295632557145908859e+00
2.295632557145908859e+00
2.319258278145695407e+00
2.319258278145695407e+00
2.319258278145695407e+00
2.320758323923459709e+00
2.320758323923459709e+00
2.320758323923459709e+00
2.320758323923459709e+00
2.306507889034699499e+00
2.306507889034699499e+00
2.306507889034699499e+00
2.324133426923429280e+00
2.324133426923429280e+00
2.324133426923429280e+00
2.391260475478377501e+00
2.391260475478377501e+00
2.391260475478377501e+00
2.391260475478377501e+00
2.283069673757133433e+00
2.283069673757133433e+00
2.283069673757133433e+00
2.256068849757378203e+00
2.256068849757378203e+00
2.256068849757378203e+00
2.220442762535478121e+00
2.220442762535478121e+00
2.220442762535478121e+00
2.220442762535478121e+00
2.225130405590991067e+00
2.225130405590991067e+00
2.225130405590991067e+00
2.115252052369762659e+00
2.115252052369762659e+00
2.115252052369762659e+00
2.220067751091036712e+00
2.220067751091036712e+00
2.220067751091036712e+00
2.220067751091036712e+00
2.411323587755973996e+00
2.411323587755973996e+00
2.411323587755973996e+00
2.331446150090029423e+00
2.331446150090029423e+00
2.331446150090029423e+00
2.299757683034760802e+00
2.299757683034760802e+00
2.299757683034760802e+00
2.299757683034760802e+00
2.311945554979094819e+00
2.311945554979094819e+00
2.311945554979094819e+00
2.297507614368114126e+00
2.297507614368114126e+00
2.297507614368114126e+00
2.297507614368114126e+00
2.294882534257026929e+00
2.294882534257026929e+00
2.294882534257026929e+00
2.335946287423322332e+00
2.335946287423322332e+00
2.335946287423322332e+00
2.351509262367625919e+00
2.351509262367625919e+00
2.351509262367625919e+00
2.351509262367625919e+00
2.259818964201788294e+00
2.259818964201788294e+00
2.259818964201788294e+00
2.217067659535508550e+00
2.217067659535508550e+00
2.217067659535508550e+00
2.191754387035737217e+00
2.191754387035737217e+00
2.191754387035737217e+00
2.191754387035737217e+00
2.165691091647083955e+00
2.165691091647083955e+00
2.165691091647083955e+00
2.071375713370158689e+00
2.071375713370158689e+00
2.071375713370158689e+00
2.314570635090182460e+00
2.314570635090182460e+00
2.314570635090182460e+00
2.314570635090182460e+00
2.388447889645069822e+00
2.388447889645069822e+00
2.388447889645069822e+00
2.329008575701162709e+00
2.329008575701162709e+00
2.329008575701162709e+00
2.323945921201208797e+00
2.323945921201208797e+00
2.323945921201208797e+00
2.323945921201208797e+00
2.326383495590075512e+00
2.326383495590075512e+00
2.326383495590075512e+00
2.308195440534684284e+00
2.308195440534684284e+00
2.308195440534684284e+00
2.309882992034669069e+00
2.309882992034669069e+00
2.309882992034669069e+00
2.309882992034669069e+00
2.375134983367412023e+00
2.375134983367412023e+00
2.375134983367412023e+00
2.322445875423444495e+00
2.322445875423444495e+00
2.322445875423444495e+00
2.247631092257453833e+00
2.247631092257453833e+00
2.247631092257453833e+00
2.247631092257453833e+00
2.206754844813379357e+00
2.206754844813379357e+00
2.206754844813379357e+00
2.220630268257698603e+00
2.220630268257698603e+00
2.220630268257698603e+00
2.156503311258278099e+00
2.156503311258278099e+00
2.156503311258278099e+00
2.156503311258278099e+00
2.089188756981108952e+00
2.089188756981108952e+00
2.089188756981108952e+00
2.394823084200567997e+00
2.394823084200567997e+00
2.394823084200567997e+00
2.394823084200567997e+00
2.362197088534196077e+00
2.362197088534196077e+00
2.362197088534196077e+00
2.302757774590289408e+00
2.302757774590289408e+00
2.302757774590289408e+00
2.312695577867977192e+00
2.312695577867977192e+00
2.312695577867977192e+00
2.312695577867977192e+00
2.308945463423566213e+00
2.308945463423566213e+00
2.308945463423566213e+00
2.287382305368205859e+00
2.287382305368205859e+00
2.287382305368205859e+00
2.297507614368114126e+00
2.297507614368114126e+00
2.297507614368114126e+00
2.297507614368114126e+00
2.384697775200659287e+00
2.384697775200659287e+00
2.384697775200659287e+00
2.293007477034821662e+00
2.293007477034821662e+00
2.293007477034821662e+00
2.254193792535172935e+00
2.254193792535172935e+00
2.254193792535172935e+00
2.254193792535172935e+00
2.215755119479964730e+00
2.215755119479964730e+00
2.215755119479964730e+00
2.226255439924313961e+00
2.226255439924313961e+00
2.226255439924313961e+00
2.114127018036439321e+00
2.114127018036439321e+00
2.114127018036439321e+00
2.114127018036439321e+00
2.172816309091464060e+00
2.172816309091464060e+00
2.172816309091464060e+00
2.417511276589251690e+00
2.417511276589251690e+00
2.417511276589251690e+00
2.335571275978881367e+00
2.335571275978881367e+00
2.335571275978881367e+00
2.335571275978881367e+00
2.290757408368175430e+00
2.290757408368175430e+00
2.290757408368175430e+00
2.309132969145787140e+00
2.309132969145787140e+00
2.309132969145787140e+00
2.303320291756950855e+00
2.303320291756950855e+00
2.303320291756950855e+00
2.303320291756950855e+00
2.296007568590349823e+00
2.296007568590349823e+00
2.296007568590349823e+00
2.322633381145664977e+00
2.322633381145664977e+00
2.322633381145664977e+00
2.374759971922971058e+00
2.374759971922971058e+00
2.374759971922971058e+00
2.374759971922971058e+00
2.271444318979460864e+00
2.271444318979460864e+00
2.271444318979460864e+00
2.244818506424146598e+00
2.244818506424146598e+00
2.244818506424146598e+00
2.227380474257637299e+00
2.227380474257637299e+00
2.227380474257637299e+00
2.227380474257637299e+00
2.205254799035615054e+00
2.205254799035615054e+00
2.205254799035615054e+00
2.086563676870021755e+00
2.086563676870021755e+00
2.086563676870021755e+00
2.265631641590625023e+00
2.265631641590625023e+00
2.265631641590625023e+00
2.265631641590625023e+00
2.393323038422803695e+00
2.393323038422803695e+00
2.393323038422803695e+00
2.306882900479140464e+00
2.306882900479140464e+00
2.306882900479140464e+00
2.301632740256966070e+00
2.301632740256966070e+00
2.301632740256966070e+00
2.301632740256966070e+00
2.321320841090121156e+00
2.321320841090121156e+00
2.321320841090121156e+00
2.305570360423596643e+00
2.305570360423596643e+00
2.305570360423596643e+00
2.302007751701407035e+00
2.302007751701407035e+00
2.302007751701407035e+00
2.302007751701407035e+00
2.351321756645405436e+00
2.351321756645405436e+00
2.351321756645405436e+00
2.341008941923276243e+00
2.341008941923276243e+00
2.341008941923276243e+00
2.263569078646198829e+00
2.263569078646198829e+00
2.263569078646198829e+00
2.263569078646198829e+00
2.226442945646534444e+00
2.226442945646534444e+00
2.226442945646534444e+00
2.222692831202123909e+00
2.222692831202123909e+00
2.222692831202123909e+00
2.180316537980285130e+00
2.180316537980285130e+00
2.180316537980285130e+00
2.180316537980285130e+00
2.085251136814477935e+00
2.085251136814477935e+00
2.085251136814477935e+00
2.375134983367412023e+00
2.375134983367412023e+00
2.375134983367412023e+00
2.379260109256263966e+00
2.379260109256263966e+00
2.379260109256263966e+00
2.379260109256263966e+00
2.297882625812555535e+00
2.297882625812555535e+00
2.297882625812555535e+00
2.296195074312570750e+00
2.296195074312570750e+00
2.296195074312570750e+00
2.296195074312570750e+00
2.305382854701376161e+00
2.305382854701376161e+00
2.305382854701376161e+00
2.292069948423719250e+00
2.292069948423719250e+00
2.292069948423719250e+00
2.302382763145847999e+00
2.302382763145847999e+00
2.302382763145847999e+00
2.302382763145847999e+00
2.379822626422925413e+00
2.379822626422925413e+00
2.379822626422925413e+00
2.312508072145756710e+00
2.312508072145756710e+00
2.312508072145756710e+00
2.253068758201849597e+00
2.253068758201849597e+00
2.253068758201849597e+00
2.253068758201849597e+00
2.209004913480026033e+00
2.209004913480026033e+00
2.209004913480026033e+00
2.220630268257698603e+00
2.220630268257698603e+00
2.220630268257698603e+00
2.128189947202978605e+00
2.128189947202978605e+00
2.128189947202978605e+00
2.128189947202978605e+00
2.131002533036286284e+00
2.131002533036286284e+00
2.131002533036286284e+00
2.416011230811487387e+00
2.416011230811487387e+00
2.416011230811487387e+00
2.352071779534287366e+00
2.352071779534287366e+00
2.352071779534287366e+00
2.352071779534287366e+00
2.304820337534714714e+00
2.304820337534714714e+00
2.304820337534714714e+00
2.320195806756797818e+00
2.320195806756797818e+00
2.320195806756797818e+00
2.311008026367992407e+00
2.311008026367992407e+00
2.311008026367992407e+00
2.311008026367992407e+00
2.297695120090334608e+00
2.297695120090334608e+00
2.297695120090334608e+00
2.316070680867946319e+00
2.316070680867946319e+00
2.316070680867946319e+00
2.385072786645100695e+00
2.385072786645100695e+00
2.385072786645100695e+00
2.385072786645100695e+00
2.274631916257209951e+00
2.274631916257209951e+00
2.274631916257209951e+00
2.230755577257606870e+00
2.230755577257606870e+00
2.230755577257606870e+00
2.230755577257606870e+00
2.197192052980132537e+00
2.197192052980132537e+00
2.197192052980132537e+00
2.198879604480116878e+00
2.198879604480116878e+00
2.198879604480116878e+00
2.091063814203314664e+00
2.091063814203314664e+00
2.091063814203314664e+00
2.091063814203314664e+00
2.214630085146641392e+00
2.214630085146641392e+00
2.214630085146641392e+00
2.411323587755973996e+00
2.411323587755973996e+00
2.411323587755973996e+00
2.332571184423352761e+00
2.332571184423352761e+00
2.332571184423352761e+00
2.332571184423352761e+00
2.303320291756950855e+00
2.303320291756950855e+00
2.303320291756950855e+00
2.320195806756797818e+00
2.320195806756797818e+00
2.320195806756797818e+00
2.318883266701254442e+00
2.318883266701254442e+00
2.318883266701254442e+00
2.318883266701254442e+00
2.313070589312418157e+00
2.313070589312418157e+00
2.313070589312418157e+00
2.352071779534287366e+00
2.352071779534287366e+00
2.352071779534287366e+00
2.354134342478713116e+00
2.354134342478713116e+00
2.354134342478713116e+00
2.354134342478713116e+00
2.258506424146244473e+00
2.258506424146244473e+00
2.258506424146244473e+00
2.214817590868861874e+00
2.214817590868861874e+00
2.214817590868861874e+00
2.211067476424451339e+00
2.211067476424451339e+00
2.211067476424451339e+00
2.211067476424451339e+00
2.191566881313516735e+00
2.191566881313516735e+00
2.191566881313516735e+00
2.095188940092165719e+00
2.095188940092165719e+00
2.095188940092165719e+00
2.333696218756676100e+00
2.333696218756676100e+00
2.333696218756676100e+00
2.333696218756676100e+00
2.386572832422864110e+00
2.386572832422864110e+00
2.386572832422864110e+00
2.307257911923581428e+00
2.307257911923581428e+00
2.307257911923581428e+00
2.307257911923581428e+00
2.300132694479201767e+00
2.300132694479201767e+00
2.300132694479201767e+00
2.307445417645802355e+00
2.307445417645802355e+00
2.307445417645802355e+00
2.295257545701467894e+00
2.295257545701467894e+00
2.295257545701467894e+00
2.295257545701467894e+00
2.301257728812525105e+00
2.301257728812525105e+00
2.301257728812525105e+00
2.371197363200781449e+00
2.371197363200781449e+00
2.371197363200781449e+00
2.336508804589983779e+00
2.336508804589983779e+00
2.336508804589983779e+00
2.336508804589983779e+00
2.262256538590655452e+00
2.262256538590655452e+00
2.262256538590655452e+00
2.211629993591112786e+00
2.211629993591112786e+00
2.211629993591112786e+00
2.207317361980041248e+00
2.207317361980041248e+00
2.207317361980041248e+00
2.207317361980041248e+00
2.131752555925168657e+00
2.131752555925168657e+00
2.131752555925168657e+00
2.074750816370128703e+00
2.074750816370128703e+00
2.074750816370128703e+00
2.391260475478377501e+00
2.391260475478377501e+00
2.391260475478377501e+00
2.391260475478377501e+00
2.367447248756370914e+00
2.367447248756370914e+00
2.367447248756370914e+00
2.314008117923521013e+00
2.314008117923521013e+00
2.314008117923521013e+00
2.313633106479079604e+00
2.313633106479079604e+00
2.313633106479079604e+00
2.313633106479079604e+00
2.309320474868007622e+00
2.309320474868007622e+00
2.309320474868007622e+00
2.302945280312509890e+00
2.302945280312509890e+00
2.302945280312509890e+00
2.302945280312509890e+00
2.315133152256843907e+00
2.315133152256843907e+00
2.315133152256843907e+00
2.392010498367259874e+00
2.392010498367259874e+00
2.392010498367259874e+00
2.296382580034791232e+00
2.296382580034791232e+00
2.296382580034791232e+00
2.296382580034791232e+00
2.268444227423932702e+00
2.268444227423932702e+00
2.268444227423932702e+00
2.226442945646534444e+00
2.226442945646534444e+00
2.226442945646534444e+00
2.215567613757744247e+00
2.215567613757744247e+00
2.215567613757744247e+00
2.215567613757744247e+00
2.093688894314401416e+00
2.093688894314401416e+00
2.093688894314401416e+00
2.167566148869289222e+00
2.167566148869289222e+00
2.167566148869289222e+00
2.419198828089236475e+00
2.419198828089236475e+00
2.419198828089236475e+00
2.419198828089236475e+00
2.341196447645496725e+00
2.341196447645496725e+00
2.341196447645496725e+00
2.301445234534745587e+00
2.301445234534745587e+00
2.301445234534745587e+00
2.313445600756859122e+00
2.313445600756859122e+00
2.313445600756859122e+00
2.313445600756859122e+00
2.319070772423474924e+00
2.319070772423474924e+00
2.319070772423474924e+00
2.314195623645741495e+00
2.314195623645741495e+00
2.314195623645741495e+00
2.331258644367808941e+00
2.331258644367808941e+00
2.331258644367808941e+00
2.331258644367808941e+00
2.360884548478652700e+00
2.360884548478652700e+00
2.360884548478652700e+00
2.256443861201819168e+00
2.256443861201819168e+00
2.256443861201819168e+00
2.216130130924405695e+00
2.216130130924405695e+00
2.216130130924405695e+00
2.216130130924405695e+00
2.193254432813501520e+00
2.193254432813501520e+00
2.193254432813501520e+00
2.168316171758171151e+00
2.168316171758171151e+00
2.168316171758171151e+00
2.070063173314615312e+00
2.070063173314615312e+00
2.070063173314615312e+00
2.070063173314615312e+00
2.276319467757194737e+00
2.276319467757194737e+00
2.276319467757194737e+00
2.434386791589098653e+00
2.434386791589098653e+00
2.434386791589098653e+00
2.360884548478652700e+00
2.360884548478652700e+00
2.360884548478652700e+00
2.360884548478652700e+00
2.325070955534531691e+00
2.325070955534531691e+00
2.325070955534531691e+00
2.325820978423414065e+00
2.325820978423414065e+00
2.325820978423414065e+00
2.308382946256904766e+00
2.308382946256904766e+00
2.308382946256904766e+00
2.308382946256904766e+00
2.307445417645802355e+00
2.307445417645802355e+00
2.307445417645802355e+00
2.357134434034241721e+00
2.357134434034241721e+00
2.357134434034241721e+00
2.338946378978850937e+00
2.338946378978850937e+00
2.338946378978850937e+00
2.338946378978850937e+00
2.255131321146275347e+00
2.255131321146275347e+00
2.255131321146275347e+00
2.213130039368877089e+00
2.213130039368877089e+00
2.213130039368877089e+00
2.207692373424482213e+00
2.207692373424482213e+00
2.207692373424482213e+00
2.207692373424482213e+00
2.163066011535996758e+00
2.163066011535996758e+00
2.163066011535996758e+00
2.075688344981231115e+00
2.075688344981231115e+00
2.075688344981231115e+00
2.075688344981231115e+00
2.371384868923001932e+00
2.371384868923001932e+00
2.371384868923001932e+00
2.369697317423017147e+00
2.369697317423017147e+00
2.369697317423017147e+00
2.304257820368053267e+00
2.304257820368053267e+00
2.304257820368053267e+00
2.304257820368053267e+00
2.311758049256874337e+00
2.311758049256874337e+00
2.311758049256874337e+00
2.308570451979125249e+00
2.308570451979125249e+00
2.308570451979125249e+00
2.287757316812646824e+00
2.287757316812646824e+00
2.287757316812646824e+00
2.287757316812646824e+00
2.287194799645985377e+00
2.287194799645985377e+00
2.287194799645985377e+00
2.364447157200842309e+00
2.364447157200842309e+00
2.364447157200842309e+00
2.314758140812402942e+00
2.314758140812402942e+00
2.273881893368328022e+00
2.273881893368328022e+00
2.231505600146489243e+00
2.231505600146489243e+00
2.229818048646504014e+00
2.229818048646504014e+00
2.126314889980773337e+00
2.126314889980773337e+00
2.126314889980773337e+00
2.131002533036286284e+00
2.131002533036286284e+00
2.419198828089236475e+00
2.419198828089236475e+00
2.353571825312051669e+00
2.353571825312051669e+00
2.302007751701407035e+00
2.302007751701407035e+00
2.312320566423536228e+00
2.312320566423536228e+00
2.307632923368022837e+00
2.307632923368022837e+00
2.301820245979186552e+00
2.301820245979186552e+00
2.320945829645680192e+00
2.320945829645680192e+00
2.389572923978392716e+00
2.389572923978392716e+00
2.389572923978392716e+00
2.281194616534928166e+00
2.281194616534928166e+00
2.232630634479812137e+00
2.232630634479812137e+00
2.196442030091250608e+00
2.196442030091250608e+00
2.202629718924527857e+00
2.202629718924527857e+00
2.090876308481094181e+00
2.090876308481094181e+00
2.215005096591082356e+00
2.215005096591082356e+00
2.398385692922757606e+00
2.398385692922757606e+00
2.322633381145664977e+00
2.322633381145664977e+00
2.322633381145664977e+00
2.311570543534653854e+00
2.311570543534653854e+00
2.325258461256752618e+00
2.325258461256752618e+00
2.308382946256904766e+00
2.308382946256904766e+00
2.302007751701407035e+00
2.302007751701407035e+00
2.344571550645466296e+00
2.344571550645466296e+00
2.350759239478743989e+00
2.350759239478743989e+00
2.264694112979522167e+00
2.264694112979522167e+00
2.264694112979522167e+00
2.225130405590991067e+00
2.225130405590991067e+00
2.202254707480086449e+00
2.202254707480086449e+00
2.176378917813653668e+00
2.176378917813653668e+00
2.091063814203314664e+00
2.091063814203314664e+00
2.346634113589892490e+00
2.346634113589892490e+00
2.407385967589342979e+00
2.407385967589342979e+00
2.330696127201147494e+00
2.330696127201147494e+00
2.305382854701376161e+00
2.305382854701376161e+00
2.296382580034791232e+00
2.296382580034791232e+00
2.264131595812860720e+00
2.264131595812860720e+00
2.264131595812860720e+00
2.273131870479445649e+00
2.273131870479445649e+00
2.348884182256538722e+00
2.348884182256538722e+00
2.298257637256996500e+00
2.298257637256996500e+00
2.224942899868770141e+00
2.224942899868770141e+00
2.187629261146885273e+00
2.187629261146885273e+00
2.202442213202307375e+00
2.202442213202307375e+00
2.149003082369457029e+00
2.149003082369457029e+00
2.108501846369823074e+00
2.108501846369823074e+00
2.108501846369823074e+00
2.413386150700399746e+00
2.413386150700399746e+00
2.385447798089541660e+00
2.385447798089541660e+00
2.326758507034516477e+00
2.326758507034516477e+00
2.331821161534470832e+00
2.331821161534470832e+00
2.331258644367808941e+00
2.331258644367808941e+00
2.320195806756797818e+00
2.320195806756797818e+00
2.336883816034425188e+00
2.336883816034425188e+00
2.430636677144688562e+00
2.430636677144688562e+00
2.336508804589983779e+00
2.336508804589983779e+00
2.336508804589983779e+00
2.273506881923887057e+00
2.273506881923887057e+00
2.206192327646717910e+00
2.206192327646717910e+00
2.196629535813471090e+00
2.196629535813471090e+00
2.079813470870083059e+00
2.079813470870083059e+00
2.164753563035981099e+00
2.164753563035981099e+00
2.411323587755973996e+00
2.411323587755973996e+00
2.335946287423322332e+00
2.335946287423322332e+00
2.296195074312570750e+00
2.296195074312570750e+00
2.288882351145970162e+00
2.288882351145970162e+00
2.288882351145970162e+00
2.279882076479384789e+00
2.279882076479384789e+00
2.274444410534989469e+00
2.274444410534989469e+00
2.307820429090243319e+00
2.307820429090243319e+00
2.357696951200903612e+00
2.357696951200903612e+00
2.268444227423932702e+00
2.268444227423932702e+00
2.238255806146427940e+00
2.238255806146427940e+00
2.229818048646504014e+00
2.229818048646504014e+00
2.229818048646504014e+00
2.218005188146610962e+00
2.218005188146610962e+00
2.090126285592211808e+00
2.090126285592211808e+00
2.250631183812982439e+00
2.250631183812982439e+00
2.350384228034303025e+00
2.350384228034303025e+00
2.275944456312753772e+00
2.275944456312753772e+00
2.286632282479323930e+00
2.286632282479323930e+00
2.319633289590136371e+00
2.319633289590136371e+00
2.330508621478927012e+00
2.330508621478927012e+00
2.330508621478927012e+00
2.330883632923367976e+00
2.330883632923367976e+00
2.355634388256477418e+00
2.355634388256477418e+00
2.296195074312570750e+00
2.296195074312570750e+00
2.186316721091342341e+00
2.186316721091342341e+00
2.151253151036103706e+00
2.151253151036103706e+00
2.156315805536057617e+00
2.156315805536057617e+00
2.115439558091983141e+00
2.115439558091983141e+00
2.038749717703787212e+00
2.038749717703787212e+00
2.334446241645558029e+00
2.334446241645558029e+00
2.349259193700979687e+00
2.349259193700979687e+00
2.308382946256904766e+00
2.308382946256904766e+00
2.335946287423322332e+00
2.335946287423322332e+00
2.335946287423322332e+00
2.357321939756462204e+00
2.357321939756462204e+00
2.317758232367931104e+00
2.317758232367931104e+00
2.293007477034821662e+00
2.293007477034821662e+00
2.296382580034791232e+00
2.296382580034791232e+00
2.164941068758201581e+00
2.164941068758201581e+00
2.113189489425336465e+00
2.113189489425336465e+00
2.054500198370311725e+00
2.054500198370311725e+00
2.045312417981505870e+00
2.045312417981505870e+00
2.045312417981505870e+00
1.913120883816034512e+00
1.913120883816034512e+00
1.903183080538346506e+00
1.903183080538346506e+00
2.194754478591265823e+00
2.194754478591265823e+00
2.172441297647023095e+00
2.172441297647023095e+00
2.185379192480239485e+00
2.185379192480239485e+00
2.329196081423383191e+00
2.329196081423383191e+00
2.481825739310891787e+00
2.481825739310891787e+00
2.481825739310891787e+00
2.532077272865993045e+00
2.532077272865993045e+00
2.559640614032411055e+00
2.559640614032411055e+00
2.562078188421277325e+00
2.562078188421277325e+00
2.400823267311624321e+00
2.400823267311624321e+00
2.279882076479384789e+00
2.279882076479384789e+00
2.172628803369243577e+00
2.172628803369243577e+00
2.164753563035981099e+00
2.164753563035981099e+00
2.079063447981200685e+00
2.079063447981200685e+00
2.079063447981200685e+00
2.180691549424726094e+00
2.180691549424726094e+00
2.290944914090395912e+00
2.290944914090395912e+00
2.183691640980254700e+00
2.183691640980254700e+00
2.163628528702658205e+00
2.163628528702658205e+00
2.217067659535508550e+00
2.217067659535508550e+00
2.259443952757347329e+00
2.259443952757347329e+00
2.317008209479048730e+00
2.317008209479048730e+00
2.419573839533677440e+00
2.419573839533677440e+00
2.485950865199743731e+00
2.485950865199743731e+00
2.485950865199743731e+00
2.471887936033204003e+00
2.471887936033204003e+00
2.472450453199865894e+00
2.472450453199865894e+00
2.446012146366771223e+00
2.446012146366771223e+00
2.377947569200720146e+00
2.377947569200720146e+00
2.261881527146214044e+00
2.261881527146214044e+00
2.484075807977538464e+00
2.484075807977538464e+00
2.538827478865932186e+00
2.538827478865932186e+00
2.484075807977538464e+00
2.484075807977538464e+00
2.484075807977538464e+00
2.486325876644184696e+00
2.486325876644184696e+00
2.448449720755638381e+00
2.448449720755638381e+00
2.351134250923184954e+00
2.351134250923184954e+00
2.286632282479323930e+00
2.286632282479323930e+00
2.264319101535081202e+00
2.264319101535081202e+00
2.153128208258308529e+00
2.153128208258308529e+00
2.102126651814325342e+00
2.102126651814325342e+00
2.100439100314340557e+00
2.100439100314340557e+00
2.104189214758751536e+00
2.104189214758751536e+00
2.104189214758751536e+00
2.041187292092654371e+00
2.041187292092654371e+00
2.011186376537369647e+00
2.011186376537369647e+00
2.370634846034120002e+00
2.370634846034120002e+00
2.378322580645161111e+00
2.378322580645161111e+00
2.359384502700888397e+00
2.359384502700888397e+00
2.372509903256325270e+00
2.372509903256325270e+00
2.332383678701132279e+00
2.332383678701132279e+00
2.309507980590228104e+00
2.309507980590228104e+00
2.309507980590228104e+00
2.271631824701681346e+00
2.271631824701681346e+00
2.241255897701956545e+00
2.241255897701956545e+00
2.075875850703451597e+00
2.075875850703451597e+00
2.039499740592669585e+00
2.039499740592669585e+00
2.071188207647938206e+00
2.071188207647938206e+00
2.128564958647419569e+00
2.128564958647419569e+00
2.078313425092318756e+00
2.078313425092318756e+00
2.227005462813196335e+00
2.227005462813196335e+00
2.227005462813196335e+00
2.486138370921964214e+00
2.486138370921964214e+00
2.463262672811060039e+00
2.463262672811060039e+00
2.478825647755364070e+00
2.478825647755364070e+00
2.520076906643879511e+00
2.520076906643879511e+00
2.496638691366313889e+00
2.496638691366313889e+00
2.451262306588946061e+00
2.451262306588946061e+00
2.488388439588610446e+00
2.488388439588610446e+00
2.528327158421582510e+00
2.528327158421582510e+00
2.399885738700521909e+00
2.399885738700521909e+00
2.399885738700521909e+00
2.355821893978697901e+00
2.355821893978697901e+00
2.306132877590258534e+00
2.306132877590258534e+00
2.229068025757622085e+00
2.229068025757622085e+00
2.077938413647877791e+00
2.077938413647877791e+00
2.246881069368571904e+00
2.246881069368571904e+00
2.315508163701284872e+00
2.315508163701284872e+00
2.223630359813226764e+00
2.223630359813226764e+00
2.314195623645741495e+00
2.314195623645741495e+00
2.314195623645741495e+00
2.350759239478743989e+00
2.350759239478743989e+00
2.307820429090243319e+00
2.307820429090243319e+00
2.310445509201330516e+00
2.310445509201330516e+00
2.366697225867488541e+00
2.366697225867488541e+00
2.341946470534379099e+00
2.341946470534379099e+00
2.245006012146367080e+00
2.245006012146367080e+00
2.216692648091067142e+00
2.216692648091067142e+00
2.229443037202063049e+00
2.229443037202063049e+00
2.138502761925107798e+00
2.138502761925107798e+00
2.138502761925107798e+00
2.037812189092684800e+00
2.037812189092684800e+00
2.308570451979125249e+00
2.308570451979125249e+00
2.237693288979766049e+00
2.237693288979766049e+00
2.151628162480544670e+00
2.151628162480544670e+00
2.176566423535874595e+00
2.176566423535874595e+00
2.195129490035706787e+00
2.195129490035706787e+00
2.183504135258034218e+00
2.183504135258034218e+00
2.238068300424207457e+00
2.238068300424207457e+00
2.238068300424207457e+00
2.311570543534653854e+00
2.311570543534653854e+00
2.229068025757622085e+00
2.229068025757622085e+00
2.235818231757560781e+00
2.235818231757560781e+00
2.280257087923826198e+00
2.280257087923826198e+00
2.341946470534379099e+00
2.341946470534379099e+00
2.277632007812738557e+00
2.277632007812738557e+00
2.272569353312784202e+00
2.272569353312784202e+00
2.491388531144139051e+00
2.491388531144139051e+00
2.491388531144139051e+00
2.333696218756676100e+00
2.333696218756676100e+00
2.207692373424482213e+00
2.207692373424482213e+00
2.195504501480147752e+00
2.195504501480147752e+00
2.189316812646870059e+00
2.189316812646870059e+00
2.183504135258034218e+00
2.183504135258034218e+00
2.236568254646443155e+00
2.236568254646443155e+00
2.357134434034241721e+00
2.357134434034241721e+00
2.236380748924222672e+00
2.236380748924222672e+00
2.236380748924222672e+00
2.167566148869289222e+00
2.167566148869289222e+00
2.151628162480544670e+00
2.151628162480544670e+00
2.176941434980315559e+00
2.176941434980315559e+00
2.067625598925748598e+00
2.067625598925748598e+00
2.223442854091006282e+00
2.223442854091006282e+00
2.439261940366832526e+00
2.439261940366832526e+00
2.368759788811914291e+00
2.368759788811914291e+00
2.342321481978820064e+00
2.342321481978820064e+00
2.387885372478407930e+00
2.387885372478407930e+00
2.439636951811273491e+00
2.439636951811273491e+00
2.439636951811273491e+00
2.486513382366405178e+00
2.486513382366405178e+00
2.548202764976958523e+00
2.548202764976958523e+00
2.530952238532670151e+00
2.530952238532670151e+00
2.398948210089419053e+00
2.398948210089419053e+00
2.297320108645893644e+00
2.297320108645893644e+00
2.230568071535386387e+00
2.230568071535386387e+00
2.180129032258064647e+00
2.180129032258064647e+00
2.119752189703054679e+00
2.119752189703054679e+00
2.119752189703054679e+00
2.372697408978545752e+00
2.372697408978545752e+00
2.402135807367168141e+00
2.402135807367168141e+00
2.218380199591051927e+00
2.218380199591051927e+00
2.151253151036103706e+00
2.151253151036103706e+00
2.156503311258278099e+00
2.156503311258278099e+00
2.173003814813684542e+00
2.173003814813684542e+00
2.223067842646564873e+00
2.223067842646564873e+00
2.223067842646564873e+00
2.354134342478713116e+00
2.354134342478713116e+00
2.326758507034516477e+00
2.326758507034516477e+00
2.240693380535294654e+00
2.240693380535294654e+00
2.175628894924771739e+00
2.175628894924771739e+00
2.168128666035950669e+00
2.168128666035950669e+00
2.160815942869350526e+00
2.160815942869350526e+00
2.164003540147099169e+00
2.164003540147099169e+00
2.516701803643909940e+00
2.516701803643909940e+00
2.516701803643909940e+00
2.472075441755424485e+00
2.472075441755424485e+00
2.326195989867855030e+00
2.326195989867855030e+00
2.248568620868556689e+00
2.248568620868556689e+00
2.182379100924710880e+00
2.182379100924710880e+00
2.167378643147068740e+00
2.167378643147068740e+00
2.206192327646717910e+00
2.206192327646717910e+00
2.311383037812433372e+00
2.311383037812433372e+00
2.231693105868709726e+00
2.231693105868709726e+00
2.226442945646534444e+00
2.226442945646534444e+00
2.226442945646534444e+00
2.230193060090945423e+00
2.230193060090945423e+00
2.241818414868617992e+00
2.241818414868617992e+00
2.100439100314340557e+00
2.100439100314340557e+00
2.157440839869380955e+00
2.157440839869380955e+00
2.372697408978545752e+00
2.372697408978545752e+00
2.272756859035004684e+00
2.272756859035004684e+00
2.223255348368785356e+00
2.223255348368785356e+00
2.274256904812768987e+00
2.274256904812768987e+00
2.274256904812768987e+00
2.323195898312326424e+00
2.323195898312326424e+00
2.333321207312235135e+00
2.333321207312235135e+00
2.379822626422925413e+00
2.379822626422925413e+00
2.439074434644612044e+00
2.439074434644612044e+00
2.335571275978881367e+00
2.335571275978881367e+00
2.317758232367931104e+00
2.317758232367931104e+00
2.227567979979857782e+00
2.227567979979857782e+00
2.115252052369762659e+00
2.115252052369762659e+00
2.115252052369762659e+00
1.981935483870967740e+00
1.981935483870967740e+00
2.220630268257698603e+00
2.220630268257698603e+00
2.365197180089724238e+00
2.365197180089724238e+00
2.317945738090151586e+00
2.317945738090151586e+00
2.348509170812097757e+00
2.348509170812097757e+00
2.438136906033509188e+00
2.438136906033509188e+00
2.526077089754936722e+00
2.526077089754936722e+00
2.539389996032593633e+00
2.539389996032593633e+00
2.539389996032593633e+00
2.521951963866084778e+00
2.521951963866084778e+00
2.391260475478377501e+00
2.391260475478377501e+00
2.262256538590655452e+00
2.262256538590655452e+00
2.185566698202459968e+00
2.185566698202459968e+00
2.151815668202764709e+00
2.151815668202764709e+00
2.082626056703390294e+00
2.082626056703390294e+00
1.975560289315469786e+00
1.975560289315469786e+00
2.329383587145603673e+00
2.329383587145603673e+00
2.329383587145603673e+00
2.351884273812066883e+00
2.351884273812066883e+00
2.310070497756889552e+00
2.310070497756889552e+00
2.319633289590136371e+00
2.319633289590136371e+00
2.250443678090761956e+00
2.250443678090761956e+00
2.179754020813623683e+00
2.179754020813623683e+00
2.203192236091189304e+00
2.203192236091189304e+00
2.293569994201483109e+00
2.293569994201483109e+00
2.262631550035096417e+00
2.262631550035096417e+00
2.298070131534776017e+00
2.298070131534776017e+00
2.298070131534776017e+00
2.290194891201513983e+00
2.290194891201513983e+00
2.304445326090273749e+00
2.304445326090273749e+00
2.161753471480452937e+00
2.161753471480452937e+00
2.136815210425123013e+00
2.136815210425123013e+00
2.402135807367168141e+00
2.402135807367168141e+00
2.367072237311929506e+00
2.367072237311929506e+00
2.397635670033875677e+00
2.397635670033875677e+00
2.362197088534196077e+00
2.362197088534196077e+00
2.301070223090304623e+00
2.301070223090304623e+00
2.301070223090304623e+00
2.210504959257789892e+00
2.210504959257789892e+00
2.204879787591174090e+00
2.204879787591174090e+00
2.275194433423871843e+00
2.275194433423871843e+00
2.220067751091036712e+00
2.220067751091036712e+00
2.136815210425123013e+00
2.136815210425123013e+00
2.073813287759025847e+00
2.073813287759025847e+00
2.092188848536637558e+00
2.092188848536637558e+00
1.964872463148899850e+00
1.964872463148899850e+00
1.964872463148899850e+00
2.138315256202887316e+00
2.138315256202887316e+00
2.383010223700674501e+00
2.383010223700674501e+00
2.297320108645893644e+00
2.297320108645893644e+00
2.255881344035157721e+00
2.255881344035157721e+00
2.337258827478866152e+00
2.337258827478866152e+00
2.395198095645008962e+00
2.395198095645008962e+00
2.345321573534348669e+00
2.345321573534348669e+00
2.370072328867458111e+00
2.370072328867458111e+00
2.370072328867458111e+00
2.388447889645069822e+00
2.388447889645069822e+00
2.321883358256782603e+00
2.321883358256782603e+00
2.287007293923764895e+00
2.287007293923764895e+00
2.251756218146305777e+00
2.251756218146305777e+00
2.224192876979888212e+00
2.224192876979888212e+00
2.172441297647023095e+00
2.172441297647023095e+00
2.485763359477523249e+00
2.485763359477523249e+00
2.453887386700033701e+00
2.453887386700033701e+00
2.453887386700033701e+00
2.290569902645954947e+00
2.290569902645954947e+00
2.222317819757682944e+00
2.222317819757682944e+00
2.194754478591265823e+00
2.194754478591265823e+00
2.276131962034974254e+00
2.276131962034974254e+00
2.382447706534013054e+00
2.382447706534013054e+00
2.573891048921170377e+00
2.573891048921170377e+00
2.555515488143559111e+00
2.555515488143559111e+00
2.430636677144688562e+00
2.430636677144688562e+00
2.267319193090609808e+00
2.267319193090609808e+00
2.267319193090609808e+00
2.154440748313852350e+00
2.154440748313852350e+00
2.000123538926358524e+00
2.000123538926358524e+00
1.986810632648701391e+00
1.986810632648701391e+00
2.331633655812249906e+00
2.331633655812249906e+00
2.263381572923978347e+00
2.263381572923978347e+00
2.164003540147099169e+00
2.164003540147099169e+00
2.216692648091067142e+00
2.216692648091067142e+00
2.332946195867793726e+00
2.332946195867793726e+00
2.370447340311899076e+00
2.370447340311899076e+00
2.370447340311899076e+00
2.394448072756126589e+00
2.394448072756126589e+00
2.590016541032135855e+00
2.590016541032135855e+00
2.461387615588854771e+00
2.461387615588854771e+00
2.215567613757744247e+00
2.215567613757744247e+00
2.067438093203528116e+00
2.067438093203528116e+00
1.940871730704672338e+00
1.940871730704672338e+00
1.734240424817651949e+00
1.734240424817651949e+00
1.825930722983489574e+00
1.825930722983489574e+00
1.825930722983489574e+00
2.128377452925199087e+00
2.128377452925199087e+00
2.167753654591509704e+00
2.167753654591509704e+00
2.310258003479110034e+00
2.310258003479110034e+00
2.506201483199560265e+00
2.506201483199560265e+00
2.564140751365703075e+00
2.564140751365703075e+00
2.631267799920652184e+00
2.631267799920652184e+00
2.680019287697988695e+00
2.680019287697988695e+00
2.725020661030915559e+00
2.725020661030915559e+00
2.572015991698965554e+00
2.572015991698965554e+00
2.572015991698965554e+00
2.506951506088442638e+00
2.506951506088442638e+00
2.386385326700643628e+00
2.386385326700643628e+00
2.243130954924161813e+00
2.243130954924161813e+00
2.041937314981536300e+00
2.041937314981536300e+00
2.145627979369487459e+00
2.145627979369487459e+00
2.166066103091524919e+00
2.166066103091524919e+00
2.021499191259499284e+00
2.021499191259499284e+00
2.016061525315103520e+00
2.016061525315103520e+00
2.016061525315103520e+00
2.086188665425580790e+00
2.086188665425580790e+00
2.128377452925199087e+00
2.128377452925199087e+00
2.038562211981566730e+00
2.038562211981566730e+00
2.042124820703756782e+00
2.042124820703756782e+00
2.152190679647205673e+00
2.152190679647205673e+00
2.209192419202246516e+00
2.209192419202246516e+00
2.271819330423901828e+00
2.271819330423901828e+00
2.301070223090304623e+00
2.301070223090304623e+00
2.301070223090304623e+00
2.196442030091250608e+00
2.196442030091250608e+00
2.024874294259468410e+00
2.024874294259468410e+00
2.306695394756919981e+00
2.306695394756919981e+00
2.256631366924039650e+00
2.256631366924039650e+00
2.184629169591357556e+00
2.184629169591357556e+00
2.144877956480605530e+00
2.144877956480605530e+00
2.228130497146519229e+00
2.228130497146519229e+00
2.390322946867275089e+00
2.390322946867275089e+00
2.604079470198675583e+00
2.604079470198675583e+00
2.604079470198675583e+00
2.892650776696066295e+00
2.892650776696066295e+00
2.906526200140385097e+00
2.906526200140385097e+00
2.775459700308236854e+00
2.775459700308236854e+00
2.535264870143742133e+00
2.535264870143742133e+00
2.277444502090518075e+00
2.277444502090518075e+00
1.906558183538316076e+00
1.906558183538316076e+00
1.814680379650257747e+00
1.814680379650257747e+00
2.039312234870449103e+00
2.039312234870449103e+00
2.039312234870449103e+00
1.993185827204199345e+00
1.993185827204199345e+00
1.964684957426679368e+00
1.964684957426679368e+00
2.050000061037018817e+00
2.050000061037018817e+00
2.095001434369945237e+00
2.095001434369945237e+00
2.250443678090761956e+00
2.250443678090761956e+00
2.482388256477553679e+00
2.482388256477553679e+00
2.731395855586413290e+00
2.731395855586413290e+00
2.563765739921262110e+00
2.563765739921262110e+00
2.563765739921262110e+00
2.219692739646595747e+00
2.219692739646595747e+00
1.820305551316873771e+00
1.820305551316873771e+00
1.729927793206579745e+00
1.729927793206579745e+00
1.701801934873500954e+00
1.701801934873500954e+00
1.989810724204229997e+00
1.989810724204229997e+00
2.293757499923703591e+00
2.293757499923703591e+00
2.351509262367625919e+00
2.351509262367625919e+00
2.507889034699545494e+00
2.507889034699545494e+00
2.507889034699545494e+00
2.715457869197668295e+00
2.715457869197668295e+00
2.565078279976805931e+00
2.565078279976805931e+00
2.543327616199224650e+00
2.543327616199224650e+00
2.465512741477706271e+00
2.465512741477706271e+00
2.345696584978789634e+00
2.345696584978789634e+00
2.065750541703543330e+00
2.065750541703543330e+00
1.963372417371135548e+00
1.963372417371135548e+00
1.969372600482192537e+00
1.969372600482192537e+00
2.021311685537278358e+00
2.021311685537278358e+00
2.140940336313974068e+00
2.140940336313974068e+00
2.140940336313974068e+00
2.600141850032044566e+00
2.600141850032044566e+00
2.670268990142521393e+00
2.670268990142521393e+00
2.564890774254585448e+00
2.564890774254585448e+00
2.605954527420880851e+00
2.605954527420880851e+00
2.787085055085909424e+00
2.787085055085909424e+00
2.834524002807703003e+00
2.834524002807703003e+00
2.870900112918485014e+00
2.870900112918485014e+00
2.904463637195959347e+00
2.904463637195959347e+00
2.904463637195959347e+00
2.625642628254035937e+00
2.625642628254035937e+00
2.282507156590471986e+00
2.282507156590471986e+00
2.032562028870509963e+00
2.032562028870509963e+00
1.838118594927823590e+00
1.838118594927823590e+00
1.683238868373668762e+00
1.683238868373668762e+00
1.660363170262764365e+00
1.660363170262764365e+00
2.144877956480605530e+00
2.144877956480605530e+00
2.133252601702932960e+00
2.133252601702932960e+00
2.133252601702932960e+00
1.894182805871761355e+00
1.894182805871761355e+00
1.782804406872768421e+00
1.782804406872768421e+00
1.587423444318979415e+00
1.587423444318979415e+00
1.329228064821314170e+00
1.329228064821314170e+00
1.489732963042085023e+00
1.489732963042085023e+00
1.900558000427259309e+00
1.900558000427259309e+00
2.188941801202429094e+00
2.188941801202429094e+00
2.470012878810998735e+00
2.470012878810998735e+00
2.470012878810998735e+00
2.770959562974944390e+00
2.770959562974944390e+00
3.113345011749625968e+00
3.113345011749625968e+00
3.175034394360179313e+00
3.175034394360179313e+00
3.219660756248664768e+00
3.219660756248664768e+00
3.141095858638264016e+00
3.141095858638264016e+00
2.581953794976653338e+00
2.581953794976653338e+00
2.193816949980162967e+00
2.193816949980162967e+00
2.024874294259468410e+00
2.024874294259468410e+00
2.024874294259468410e+00
1.938996673482467070e+00
1.938996673482467070e+00
1.882557451094088563e+00
1.882557451094088563e+00
1.850493972594378533e+00
1.850493972594378533e+00
1.843743766594439615e+00
1.843743766594439615e+00
1.805867610705893078e+00
1.805867610705893078e+00
1.986435621204260427e+00
1.986435621204260427e+00
2.223442854091006282e+00
2.223442854091006282e+00
2.544077639088107023e+00
2.544077639088107023e+00
2.544077639088107023e+00
2.498513748588519157e+00
2.498513748588519157e+00
2.512951689199499850e+00
2.512951689199499850e+00
2.526827112643818651e+00
2.526827112643818651e+00
2.361634571367534630e+00
2.361634571367534630e+00
2.590766563921018228e+00
2.590766563921018228e+00
2.658268623920407858e+00
2.658268623920407858e+00
2.308570451979125249e+00
2.308570451979125249e+00
2.041937314981536300e+00
2.041937314981536300e+00
2.059000335703604190e+00
2.059000335703604190e+00
2.185004181035798521e+00
2.185004181035798521e+00
2.456137455366679934e+00
2.456137455366679934e+00
2.456137455366679934e+00
2.526264595477157204e+00
2.526264595477157204e+00
2.724833155308695076e+00
2.724833155308695076e+00
2.843711783196508414e+00
2.843711783196508414e+00
2.675519150364696230e+00
2.675519150364696230e+00
2.841461714529862626e+00
2.841461714529862626e+00
2.517639332255012796e+00
2.517639332255012796e+00
2.078125919370098273e+00
2.078125919370098273e+00
1.666175847651600872e+00
1.666175847651600872e+00
1.666175847651600872e+00
1.286664265877254687e+00
1.286664265877254687e+00
1.222912320322275370e+00
1.222912320322275370e+00
1.390729941709647033e+00
1.390729941709647033e+00
1.570735435041352490e+00
1.570735435041352490e+00
1.397855159154027138e+00
1.397855159154027138e+00
1.492545548875392925e+00
1.492545548875392925e+00
1.672738547929319308e+00
1.672738547929319308e+00
1.933746513260292454e+00
1.933746513260292454e+00
1.933746513260292454e+00
2.146753013702810797e+00
2.146753013702810797e+00
2.549702810754722826e+00
2.549702810754722826e+00
3.110344920194097806e+00
3.110344920194097806e+00
3.381290688802759181e+00
3.381290688802759181e+00
3.656549089022492094e+00
3.656549089022492094e+00
3.607797601245155139e+00
3.607797601245155139e+00
3.340414441358684261e+00
3.340414441358684261e+00
2.780334849085970728e+00
2.780334849085970728e+00
2.409448530533769173e+00
2.409448530533769173e+00
2.409448530533769173e+00
2.436261848811303921e+00
2.436261848811303921e+00
2.276694479201635701e+00
2.276694479201635701e+00
2.272006836146122755e+00
2.272006836146122755e+00
2.248193609424115724e+00
2.248193609424115724e+00
2.342883999145481511e+00
2.342883999145481511e+00
2.391822992645039392e+00
2.391822992645039392e+00
2.540890041810357936e+00
2.540890041810357936e+00
2.452387340922269399e+00
2.452387340922269399e+00
2.075125827814569668e+00
2.075125827814569668e+00
2.075125827814569668e+00
1.782991912594988904e+00
1.782991912594988904e+00
1.767428937650685317e+00
1.767428937650685317e+00
1.805867610705893078e+00
1.805867610705893078e+00
1.940684224982451855e+00
1.940684224982451855e+00
1.938621662038026106e+00
1.938621662038026106e+00
2.041374797814874853e+00
2.041374797814874853e+00
1.949121982482375781e+00
1.949121982482375781e+00
1.937684133426923250e+00
1.937684133426923250e+00
1.937684133426923250e+00
1.952309579760124647e+00
1.952309579760124647e+00
2.110189397869807859e+00
2.110189397869807859e+00
2.227567979979857782e+00
2.227567979979857782e+00
2.599579332865382675e+00
2.599579332865382675e+00
2.647580797753837700e+00
2.647580797753837700e+00
2.745833796197393983e+00
2.745833796197393983e+00
2.744146244697409198e+00
2.744146244697409198e+00
2.290382396923734465e+00
2.290382396923734465e+00
2.290382396923734465e+00
1.966747520371105118e+00
1.966747520371105118e+00
1.872057130649739110e+00
1.872057130649739110e+00
1.916870998260445047e+00
1.916870998260445047e+00
1.944434339426862390e+00
1.944434339426862390e+00
2.183316629535813735e+00
2.183316629535813735e+00
2.612329721976378583e+00
2.612329721976378583e+00
3.005341715750602827e+00
3.005341715750602827e+00
3.085781670583208847e+00
3.085781670583208847e+00
3.085781670583208847e+00
2.936714621417890303e+00
2.936714621417890303e+00
2.987716177861873046e+00
2.987716177861873046e+00
2.743396221808526825e+00
2.743396221808526825e+00
2.370259834589678594e+00
2.370259834589678594e+00
1.920246101260414395e+00
1.920246101260414395e+00
1.515608752708517581e+00
1.515608752708517581e+00
1.459919553209021226e+00
1.459919553209021226e+00
1.638049989318521860e+00
1.638049989318521860e+00
2.089188756981108952e+00
2.089188756981108952e+00
2.310445509201330516e+00
2.310445509201330516e+00
2.310445509201330516e+00
2.612704733420819547e+00
2.612704733420819547e+00
2.882712973418378066e+00
2.882712973418378066e+00
2.948714987640003837e+00
2.948714987640003837e+00
2.738708578753013434e+00
2.738708578753013434e+00
2.585141392254402426e+00
2.585141392254402426e+00
2.178066469313638454e+00
2.178066469313638454e+00
1.506983489486373617e+00
1.506983489486373617e+00
1.167973143711661166e+00
1.167973143711661166e+00
1.167973143711661166e+00
1.182598590044862119e+00
1.182598590044862119e+00
1.479607654042176756e+00
1.479607654042176756e+00
2.260756492812891150e+00
2.260756492812891150e+00
3.103969725638599630e+00
3.103969725638599630e+00
3.449355265968810258e+00
3.449355265968810258e+00
3.250974211859492868e+00
3.250974211859492868e+00
2.882712973418378066e+00
2.882712973418378066e+00
2.542015076143681274e+00
2.542015076143681274e+00
2.215755119479964730e+00
2.215755119479964730e+00
2.215755119479964730e+00
1.893057771538438017e+00
1.893057771538438017e+00
2.183504135258034218e+00
2.183504135258034218e+00
2.542952604754783685e+00
2.542952604754783685e+00
2.549890316476943308e+00
2.549890316476943308e+00
2.483888302255317981e+00
2.483888302255317981e+00
2.292819971312600735e+00
2.292819971312600735e+00
2.032562028870509963e+00
2.032562028870509963e+00
1.863244361705374219e+00
1.863244361705374219e+00
1.863244361705374219e+00
1.934309030426953901e+00
1.934309030426953901e+00
2.009686330759605788e+00
2.009686330759605788e+00
2.051125095370342155e+00
2.051125095370342155e+00
2.001248573259681862e+00
2.001248573259681862e+00
1.827430768761253654e+00
1.827430768761253654e+00
1.683051362651448057e+00
1.683051362651448057e+00
1.519546372875148821e+00
1.519546372875148821e+00
1.956997222815637594e+00
1.956997222815637594e+00
1.956997222815637594e+00
2.317383220923490139e+00
2.317383220923490139e+00
2.777709768974883087e+00
2.777709768974883087e+00
3.036280159916989518e+00
3.036280159916989518e+00
2.533764824365978274e+00
2.533764824365978274e+00
2.085626148258918899e+00
2.085626148258918899e+00
1.701989440595721437e+00
1.701989440595721437e+00
1.395605090487380684e+00
1.395605090487380684e+00
1.419418317209387492e+00
1.419418317209387492e+00
1.419418317209387492e+00
1.920246101260414395e+00
1.920246101260414395e+00
2.405698416089358194e+00
2.405698416089358194e+00
2.999341532639546060e+00
2.999341532639546060e+00
3.498669270912808660e+00
3.498669270912808660e+00
3.683174901577807248e+00
3.683174901577807248e+00
3.821366618854335151e+00
3.821366618854335151e+00
3.538045472579119277e+00
3.538045472579119277e+00
3.047155491805780159e+00
3.047155491805780159e+00
3.047155491805780159e+00
2.641393108920560451e+00
2.641393108920560451e+00
2.378885097811823002e+00
2.378885097811823002e+00
2.266569170201727434e+00
2.266569170201727434e+00
2.221567796868801015e+00
2.221567796868801015e+00
2.165503585924863472e+00
2.165503585924863472e+00
1.959622302926725235e+00
1.959622302926725235e+00
1.908995757927182790e+00
1.908995757927182790e+00
1.864931913205359004e+00
1.864931913205359004e+00
1.864931913205359004e+00
1.710052186651203954e+00
1.710052186651203954e+00
1.353603808709982648e+00
1.353603808709982648e+00
1.444544083986938121e+00
1.444544083986938121e+00
1.915933469649342413e+00
1.915933469649342413e+00
2.328446058534500818e+00
2.328446058534500818e+00
2.555702993865779593e+00
2.555702993865779593e+00
2.622267525254066367e+00
2.622267525254066367e+00
2.683394390697958265e+00
2.683394390697958265e+00
2.683394390697958265e+00
2.600891872920926495e+00
2.600891872920926495e+00
2.502826380199591139e+00
2.502826380199591139e+00
2.376822534867396808e+00
2.376822534867396808e+00
2.345696584978789634e+00
2.345696584978789634e+00
2.409261024811548246e+00
2.409261024811548246e+00
2.336696310312204705e+00
2.336696310312204705e+00
2.007811273537400520e+00
2.007811273537400520e+00
1.722052552873317710e+00
1.722052552873317710e+00
1.722052552873317710e+00
1.793304727317117875e+00
1.793304727317117875e+00
1.621174474318674230e+00
1.621174474318674230e+00
1.414355662709433359e+00
1.414355662709433359e+00
1.209411908322397533e+00
1.209411908322397533e+00
1.191036347544786045e+00
1.191036347544786045e+00
1.633924863429670138e+00
1.633924863429670138e+00
2.376072511978514878e+00
2.376072511978514878e+00
2.923401715140232948e+00
2.923401715140232948e+00
2.923401715140232948e+00
3.383915768913845934e+00
3.383915768913845934e+00
3.684862453077792033e+00
3.684862453077792033e+00
3.495294167912839089e+00
3.495294167912839089e+00
3.005716727195043791e+00
3.005716727195043791e+00
2.487263405255287552e+00
2.487263405255287552e+00
2.254756309701834383e+00
2.254756309701834383e+00
2.594704184087649246e+00
2.594704184087649246e+00
2.604079470198675583e+00
2.604079470198675583e+00
2.604079470198675583e+00
2.489138462477492819e+00
2.489138462477492819e+00
2.476950590533158358e+00
2.476950590533158358e+00
2.490826013977477604e+00
2.490826013977477604e+00
2.278382030701620931e+00
2.278382030701620931e+00
1.952122074037903943e+00
1.952122074037903943e+00
1.869432050538651691e+00
1.869432050538651691e+00
1.813555345316934853e+00
1.813555345316934853e+00
1.838868617816705742e+00
1.838868617816705742e+00
1.851619006927701649e+00
1.851619006927701649e+00
2.034624591814935712e+00
2.034624591814935712e+00
2.287944822534867306e+00
2.287944822534867306e+00
2.440949491866817311e+00
2.440949491866817311e+00
2.440949491866817311e+00
2.563390728476821145e+00
2.563390728476821145e+00
2.456512466811120898e+00
2.456512466811120898e+00
2.397260658589434712e+00
2.397260658589434712e+00
2.152753196813867564e+00
2.152753196813867564e+00
1.990185735648670962e+00
1.990185735648670962e+00
2.068563127536851454e+00
2.068563127536851454e+00
2.250443678090761956e+00
2.250443678090761956e+00
2.479013153477584552e+00
2.479013153477584552e+00
2.479013153477584552e+00
2.581203772087771409e+00
2.581203772087771409e+00
2.661456221198156946e+00
2.661456221198156946e+00
2.525702078310495757e+00
2.525702078310495757e+00
2.286257271034882521e+00
2.286257271034882521e+00
2.066688070314646186e+00
2.066688070314646186e+00
2.187066743980223826e+00
2.187066743980223826e+00
2.307257911923581428e+00
2.307257911923581428e+00
2.282882168034912951e+00
2.282882168034912951e+00
2.282882168034912951e+00
2.261131504257332114e+00
2.261131504257332114e+00
2.213880062257759462e+00
2.213880062257759462e+00
2.135127658925138228e+00
2.135127658925138228e+00
1.974060243537705706e+00
1.974060243537705706e+00
1.913683400982696181e+00
1.913683400982696181e+00
1.962622394482253396e+00
1.962622394482253396e+00
2.062937955870235207e+00
2.062937955870235207e+00
1.930746421704764071e+00
1.930746421704764071e+00
1.930746421704764071e+00
1.889870174260689151e+00
1.889870174260689151e+00
1.947059419537949809e+00
1.947059419537949809e+00
1.861556810205389434e+00
1.861556810205389434e+00
2.030874477370525177e+00
2.030874477370525177e+00
2.297507614368114126e+00
2.297507614368114126e+00
2.624892605365154008e+00
2.624892605365154008e+00
2.980590960417493385e+00
2.980590960417493385e+00
3.270662312692647955e+00
3.270662312692647955e+00
3.270662312692647955e+00
3.356539933469649739e+00
3.356539933469649739e+00
3.173346842860194528e+00
3.173346842860194528e+00
2.859274758140812445e+00
2.859274758140812445e+00
2.521951963866084778e+00
2.521951963866084778e+00
2.293757499923703591e+00
2.293757499923703591e+00
2.159690908536027187e+00
2.159690908536027187e+00
2.099876583147679110e+00
2.099876583147679110e+00
1.932246467482528152e+00
1.932246467482528152e+00
1.854619098483230255e+00
1.854619098483230255e+00
1.854619098483230255e+00
2.110189397869807859e+00
2.110189397869807859e+00
2.054125186925870761e+00
2.054125186925870761e+00
1.937496627704702989e+00
1.937496627704702989e+00
1.953997131260109432e+00
1.953997131260109432e+00
2.167566148869289222e+00
2.167566148869289222e+00
2.264131595812860720e+00
2.264131595812860720e+00
2.469075350199895880e+00
2.469075350199895880e+00
2.554577959532456255e+00
2.554577959532456255e+00
2.554577959532456255e+00
2.191191869869075770e+00
2.191191869869075770e+00
1.896620380260628069e+00
1.896620380260628069e+00
1.710052186651203954e+00
1.710052186651203954e+00
1.718864955595568844e+00
1.718864955595568844e+00
1.795929807428205294e+00
1.795929807428205294e+00
2.328071047090059853e+00
2.328071047090059853e+00
2.847274391918698466e+00
2.847274391918698466e+00
2.858712240974150998e+00
2.858712240974150998e+00
2.858712240974150998e+00
2.772647114474929175e+00
2.772647114474929175e+00
2.665768852809228928e+00
2.665768852809228928e+00
2.563578234199041628e+00
2.563578234199041628e+00
2.469825373088778253e+00
2.469825373088778253e+00
2.509576586199530279e+00
2.509576586199530279e+00
2.518014343699453761e+00
2.518014343699453761e+00
2.525139561143833866e+00
2.525139561143833866e+00
2.483888302255317981e+00
2.483888302255317981e+00
2.483888302255317981e+00
2.288132328257088233e+00
2.288132328257088233e+00
2.051687612537003602e+00
2.051687612537003602e+00
1.704614520706808634e+00
1.704614520706808634e+00
1.760678731650746176e+00
1.760678731650746176e+00
1.765366374706259345e+00
1.765366374706259345e+00
1.827618274483474137e+00
1.827618274483474137e+00
1.974435254982146670e+00
1.974435254982146670e+00
2.246318552201910457e+00
2.246318552201910457e+00
2.487075899533067069e+00
2.487075899533067069e+00
2.487075899533067069e+00
2.629017731254005508e+00
2.629017731254005508e+00
2.768521988586077676e+00
2.768521988586077676e+00
2.613454756309701921e+00
2.613454756309701921e+00
2.505826471755119300e+00
2.505826471755119300e+00
2.339321390423291458e+00
2.339321390423291458e+00
2.283444685201574842e+00
2.283444685201574842e+00
2.027686880092776089e+00
2.027686880092776089e+00
1.825368205816828127e+00
1.825368205816828127e+00
2.043062349314859638e+00
2.043062349314859638e+00
2.043062349314859638e+00
2.059750358592486119e+00
2.059750358592486119e+00
2.061437910092470904e+00
2.061437910092470904e+00
2.252693746757408633e+00
2.252693746757408633e+00
2.539952513199255080e+00
2.539952513199255080e+00
2.638580523087252327e+00
2.638580523087252327e+00
2.390510452589495571e+00
2.390510452589495571e+00
2.399885738700521909e+00
2.399885738700521909e+00
2.384322763756218322e+00
2.384322763756218322e+00
2.384322763756218322e+00
2.366509720145268059e+00
2.366509720145268059e+00
2.220817773979919085e+00
2.220817773979919085e+00
2.271631824701681346e+00
2.271631824701681346e+00
2.217817682424390480e+00
2.217817682424390480e+00
2.402885830256050514e+00
2.402885830256050514e+00
2.567703360087893572e+00
2.567703360087893572e+00
2.173566331980346433e+00
2.173566331980346433e+00
2.027874385814997016e+00
2.027874385814997016e+00
2.027874385814997016e+00
1.953247108371227281e+00
1.953247108371227281e+00
1.978185369426557427e+00
1.978185369426557427e+00
2.100439100314340557e+00
2.100439100314340557e+00
2.497388714255195818e+00
2.497388714255195818e+00
2.863774895474105353e+00
2.863774895474105353e+00
2.729895809808648988e+00
2.729895809808648988e+00
2.552140385143589540e+00
2.552140385143589540e+00
2.495326151310770069e+00
2.495326151310770069e+00
2.358634479812006024e+00
2.358634479812006024e+00
2.016061525315103520e+00
2.016061525315103520e+00
2.016061525315103520e+00
2.085626148258918899e+00
2.085626148258918899e+00
2.197004547257912055e+00
2.197004547257912055e+00
2.261881527146214044e+00
2.261881527146214044e+00
2.335383770256660885e+00
2.335383770256660885e+00
2.325258461256752618e+00
2.325258461256752618e+00
2.336133793145542814e+00
2.336133793145542814e+00
2.261131504257332114e+00
2.261131504257332114e+00
2.196442030091250608e+00
2.196442030091250608e+00
2.166066103091524919e+00
2.166066103091524919e+00
2.166066103091524919e+00
2.148253059480575100e+00
2.148253059480575100e+00
2.151815668202764709e+00
2.151815668202764709e+00
2.271819330423901828e+00
2.271819330423901828e+00
2.255131321146275347e+00
2.255131321146275347e+00
2.152190679647205673e+00
2.152190679647205673e+00
2.436636860255744885e+00
2.436636860255744885e+00
2.318508255256813033e+00
2.318508255256813033e+00
2.115439558091983141e+00
2.115439558091983141e+00
2.115439558091983141e+00
2.050375072481459782e+00
2.050375072481459782e+00
2.156878322702719064e+00
2.156878322702719064e+00
2.303882808923612302e+00
2.303882808923612302e+00
2.398198187200537124e+00
2.398198187200537124e+00
2.568640888698995983e+00
2.568640888698995983e+00
2.544077639088107023e+00
2.544077639088107023e+00
2.476763084810937876e+00
2.476763084810937876e+00
2.316633198034607766e+00
2.316633198034607766e+00
2.234130680257575996e+00
2.234130680257575996e+00
2.234130680257575996e+00
2.009498825037385306e+00
2.009498825037385306e+00
1.852931546983245470e+00
1.852931546983245470e+00
2.134752647480697263e+00
2.134752647480697263e+00
2.223255348368785356e+00
2.223255348368785356e+00
2.278194524979400004e+00
2.278194524979400004e+00
2.367447248756370914e+00
2.367447248756370914e+00
2.422948942533646566e+00
2.422948942533646566e+00
2.534889858699301168e+00
2.534889858699301168e+00
2.506951506088442638e+00
2.506951506088442638e+00
2.505451460310678335e+00
2.505451460310678335e+00
2.505451460310678335e+00
2.395760612811670409e+00
2.395760612811670409e+00
2.307257911923581428e+00
2.307257911923581428e+00
2.152940702536088047e+00
2.152940702536088047e+00
2.044749900814844423e+00
2.044749900814844423e+00
1.842993743705557463e+00
1.842993743705557463e+00
1.970685140537736135e+00
1.970685140537736135e+00
2.115627063814203623e+00
2.115627063814203623e+00
2.059375347148045154e+00
2.059375347148045154e+00
2.059375347148045154e+00
2.192504409924619146e+00
2.192504409924619146e+00
2.478075624866481697e+00
2.478075624866481697e+00
2.486138370921964214e+00
2.486138370921964214e+00
2.305195348979155678e+00
2.305195348979155678e+00
2.397073152867214230e+00
2.397073152867214230e+00
2.561890682699057287e+00
2.561890682699057287e+00
2.583453840754417641e+00
2.583453840754417641e+00
2.555702993865779593e+00
2.555702993865779593e+00
2.427449079866939474e+00
2.427449079866939474e+00
2.427449079866939474e+00
2.278382030701620931e+00
2.278382030701620931e+00
2.027124362926114642e+00
2.027124362926114642e+00
2.227567979979857782e+00
2.227567979979857782e+00
2.161565965758232455e+00
2.161565965758232455e+00
2.034999603259376677e+00
2.034999603259376677e+00
2.094438917203283790e+00
2.094438917203283790e+00
2.272756859035004684e+00
2.272756859035004684e+00
2.374009949034089573e+00
2.374009949034089573e+00
2.374009949034089573e+00
2.384510269478438804e+00
2.384510269478438804e+00
2.345884090701010116e+00
2.345884090701010116e+00
2.080938505203405953e+00
2.080938505203405953e+00
1.819368022705771137e+00
1.819368022705771137e+00
1.665050813318277534e+00
1.665050813318277534e+00
1.767428937650685317e+00
1.767428937650685317e+00
2.004248664815210468e+00
2.004248664815210468e+00
2.319070772423474924e+00
2.319070772423474924e+00
2.319070772423474924e+00
2.853087069307535195e+00
2.853087069307535195e+00
3.031780022583697054e+00
3.031780022583697054e+00
3.068531144138920030e+00
3.068531144138920030e+00
2.969903134250923227e+00
2.969903134250923227e+00
2.704207525864436690e+00
2.704207525864436690e+00
2.402510818811609106e+00
2.402510818811609106e+00
2.228318002868740155e+00
2.228318002868740155e+00
2.133252601702932960e+00
2.133252601702932960e+00
1.958872280037843083e+00
1.958872280037843083e+00
2.001623584704122827e+00
2.001623584704122827e+00
2.001623584704122827e+00
2.079625965147862576e+00
2.079625965147862576e+00
2.257193884090700653e+00
2.257193884090700653e+00
2.267131687368389326e+00
2.267131687368389326e+00
2.407198461867122496e+00
2.407198461867122496e+00
2.639330545976134701e+00
2.639330545976134701e+00
2.462887661366619074e+00
2.462887661366619074e+00
2.329571092867824156e+00
2.329571092867824156e+00
2.298445142979216982e+00
2.298445142979216982e+00
2.298445142979216982e+00
2.273131870479445649e+00
2.273131870479445649e+00
2.325633472701193583e+00
2.325633472701193583e+00
2.368197271645252844e+00
2.368197271645252844e+00
2.375697500534073914e+00
2.375697500534073914e+00
2.200004638813440216e+00
2.200004638813440216e+00
2.071750724814600098e+00
2.071750724814600098e+00
1.943684316537980239e+00
1.943684316537980239e+00
1.909933286538285424e+00
1.909933286538285424e+00
1.909933286538285424e+00
1.858181707205420086e+00
1.858181707205420086e+00
2.112439466536454535e+00
2.112439466536454535e+00
2.222505325479903426e+00
2.222505325479903426e+00
2.227380474257637299e+00
2.227380474257637299e+00
2.294507522812585520e+00
2.294507522812585520e+00
2.417698782311472172e+00
2.417698782311472172e+00
2.449199743644520311e+00
2.449199743644520311e+00
2.466075258644368162e+00
2.466075258644368162e+00
2.466075258644368162e+00
2.498326242866298674e+00
2.498326242866298674e+00
2.383947752311777357e+00
2.383947752311777357e+00
2.244255989257484707e+00
2.244255989257484707e+00
2.177316446424756524e+00
2.177316446424756524e+00
2.111876949369793088e+00
2.111876949369793088e+00
1.999373516037476817e+00
1.999373516037476817e+00
1.899245460371715488e+00
1.899245460371715488e+00
2.240693380535294654e+00
2.240693380535294654e+00
2.310445509201330516e+00
2.310445509201330516e+00
2.310445509201330516e+00
2.318883266701254442e+00
2.318883266701254442e+00
2.311570543534653854e+00
2.311570543534653854e+00
2.381885189367351607e+00
2.381885189367351607e+00
2.400635761589403838e+00
2.400635761589403838e+00
2.377197546311838217e+00
2.377197546311838217e+00
2.330321115756706529e+00
2.330321115756706529e+00
2.048875026703695923e+00
2.048875026703695923e+00
1.971435163426618287e+00
1.971435163426618287e+00
1.971435163426618287e+00
2.047374980925931620e+00
2.047374980925931620e+00
2.168878688924833043e+00
2.168878688924833043e+00
2.187441755424664791e+00
2.187441755424664791e+00
2.447324686422315043e+00
2.447324686422315043e+00
2.922464186529130092e+00
2.922464186529130092e+00
2.772834620197149658e+00
2.772834620197149658e+00
2.592079103976562049e+00
2.592079103976562049e+00
2.519889400921659028e+00
2.519889400921659028e+00
2.519889400921659028e+00
2.494201116977446731e+00
2.494201116977446731e+00
2.402323313089388623e+00
2.402323313089388623e+00
2.298070131534776017e+00
2.298070131534776017e+00
2.311945554979094819e+00
2.311945554979094819e+00
2.211629993591112786e+00
2.211629993591112786e+00
2.211817499313333268e+00
2.211817499313333268e+00
2.193066927091281038e+00
2.193066927091281038e+00
2.180129032258064647e+00
2.180129032258064647e+00
2.107751823480941145e+00
2.107751823480941145e+00
2.277444502090518075e+00
2.277444502090518075e+00
2.277444502090518075e+00
2.361259559923093665e+00
2.361259559923093665e+00
2.203004730368968822e+00
2.203004730368968822e+00
2.122002258369701355e+00
2.122002258369701355e+00
2.090313791314432290e+00
2.090313791314432290e+00
2.090876308481094181e+00
2.090876308481094181e+00
2.132690084536271069e+00
2.132690084536271069e+00
2.222880336924344391e+00
2.222880336924344391e+00
2.270694296090578934e+00
2.270694296090578934e+00
2.270694296090578934e+00
2.247068575090792386e+00
2.247068575090792386e+00
2.251193700979644330e+00
2.251193700979644330e+00
2.224192876979888212e+00
2.224192876979888212e+00
2.165503585924863472e+00
2.165503585924863472e+00
2.096126468703268575e+00
2.096126468703268575e+00
2.331071138645588459e+00
2.331071138645588459e+00
2.249318643757439062e+00
2.249318643757439062e+00
2.115439558091983141e+00
2.115439558091983141e+00
2.115439558091983141e+00
2.116939603869747000e+00
2.116939603869747000e+00
2.218380199591051927e+00
2.218380199591051927e+00
2.320383312479018745e+00
2.320383312479018745e+00
2.411698599200414961e+00
2.411698599200414961e+00
2.639518051698355183e+00
2.639518051698355183e+00
2.648893337809381521e+00
2.648893337809381521e+00
2.648143314920499147e+00
2.648143314920499147e+00
2.576328623310037536e+00
2.576328623310037536e+00
2.576328623310037536e+00
2.492513565477461945e+00
2.492513565477461945e+00
2.292819971312600735e+00
2.292819971312600735e+00
2.159315897091586223e+00
2.159315897091586223e+00
2.416386242255928352e+00
2.416386242255928352e+00
2.372322397534104788e+00
2.372322397534104788e+00
2.311945554979094819e+00
2.311945554979094819e+00
2.284757225257118218e+00
2.284757225257118218e+00
2.192316904202398664e+00
2.192316904202398664e+00
2.192316904202398664e+00
2.069875667592394830e+00
2.069875667592394830e+00
2.059937864314706601e+00
2.059937864314706601e+00
2.169628711813714972e+00
2.169628711813714972e+00
2.072500747703482027e+00
2.072500747703482027e+00
2.149378093813898438e+00
2.149378093813898438e+00
2.235255714590899334e+00
2.235255714590899334e+00
2.292069948423719250e+00
2.292069948423719250e+00
2.223067842646564873e+00
2.223067842646564873e+00
2.223067842646564873e+00
2.290194891201513983e+00
2.290194891201513983e+00
2.366884731589709023e+00
2.366884731589709023e+00
2.194941984313486305e+00
2.194941984313486305e+00
2.172441297647023095e+00
2.172441297647023095e+00
2.193441938535722002e+00
2.193441938535722002e+00
2.196442030091250608e+00
2.196442030091250608e+00
2.256443861201819168e+00
2.256443861201819168e+00
2.386010315256203107e+00
2.386010315256203107e+00
2.526827112643818651e+00
2.526827112643818651e+00
2.526827112643818651e+00
2.503763908810693550e+00
2.503763908810693550e+00
2.449012237922299828e+00
2.449012237922299828e+00
2.331071138645588459e+00
2.331071138645588459e+00
2.215380108035523765e+00
2.215380108035523765e+00
2.003123630481887130e+00
2.003123630481887130e+00
2.184441663869136629e+00
2.184441663869136629e+00
2.310820520645771925e+00
2.310820520645771925e+00
2.248943632312997654e+00
2.248943632312997654e+00
2.248943632312997654e+00
2.130252510147404355e+00
2.130252510147404355e+00
2.100064088869899592e+00
2.100064088869899592e+00
2.235068208868678852e+00
2.235068208868678852e+00
2.436636860255744885e+00
2.436636860255744885e+00
2.594329172643208281e+00
2.594329172643208281e+00
2.549515305032502344e+00
2.549515305032502344e+00
2.462325144199957183e+00
2.462325144199957183e+00
2.435324320200201509e+00
2.435324320200201509e+00
2.435324320200201509e+00
2.350571733756523507e+00
2.350571733756523507e+00
2.205442304757835537e+00
2.205442304757835537e+00
2.081126010925626435e+00
2.081126010925626435e+00
2.372884914700766235e+00
2.372884914700766235e+00
2.345696584978789634e+00
2.345696584978789634e+00
2.273881893368328022e+00
2.273881893368328022e+00
2.250818689535202921e+00
2.250818689535202921e+00
2.258506424146244473e+00
2.258506424146244473e+00
2.258506424146244473e+00
2.229068025757622085e+00
2.229068025757622085e+00
2.236568254646443155e+00
2.236568254646443155e+00
2.329946104312265120e+00
2.329946104312265120e+00
2.226630451368755370e+00
2.226630451368755370e+00
2.136627704702902530e+00
2.136627704702902530e+00
2.077750907925656865e+00
2.077750907925656865e+00
2.157440839869380955e+00
2.157440839869380955e+00
2.020374156926175946e+00
2.020374156926175946e+00
2.029936948759422766e+00
2.029936948759422766e+00
2.316633198034607766e+00
2.316633198034607766e+00
2.316633198034607766e+00
2.273131870479445649e+00
2.273131870479445649e+00
2.291132419812616394e+00
2.291132419812616394e+00
2.369134800256355700e+00
2.369134800256355700e+00
2.405885921811578676e+00
2.405885921811578676e+00
2.425949034089175171e+00
2.425949034089175171e+00
2.464575212866603859e+00
2.464575212866603859e+00
2.483138279366435608e+00
2.483138279366435608e+00
2.336508804589983779e+00
2.336508804589983779e+00
2.336508804589983779e+00
2.239943357646412725e+00
2.239943357646412725e+00
2.161565965758232455e+00
2.161565965758232455e+00
2.139065279091769245e+00
2.139065279091769245e+00
2.032374523148289480e+00
2.032374523148289480e+00
2.147128025147251762e+00
2.147128025147251762e+00
2.287757316812646824e+00
2.287757316812646824e+00
2.234693197424237443e+00
2.234693197424237443e+00
2.259443952757347329e+00
2.259443952757347329e+00
2.259443952757347329e+00
2.354321848200934042e+00
2.354321848200934042e+00
2.345134067812128187e+00
2.345134067812128187e+00
2.303507797479171337e+00
2.303507797479171337e+00
2.371197363200781449e+00
2.371197363200781449e+00
2.324695944090090727e+00
2.324695944090090727e+00
2.212755027924436124e+00
2.212755027924436124e+00
2.203942258980071234e+00
2.203942258980071234e+00
2.214067567979979945e+00
2.214067567979979945e+00
2.214067567979979945e+00
2.203942258980071234e+00
2.203942258980071234e+00
2.176191412091433186e+00
2.176191412091433186e+00
2.531702261421552080e+00
2.531702261421552080e+00
2.545202673421430362e+00
2.545202673421430362e+00
2.423323953978087530e+00
2.423323953978087530e+00
2.382072695089572090e+00
2.382072695089572090e+00
2.384510269478438804e+00
2.384510269478438804e+00
2.301070223090304623e+00
2.301070223090304623e+00
2.247443586535233351e+00
2.247443586535233351e+00
2.247443586535233351e+00
2.335946287423322332e+00
2.335946287423322332e+00
2.259818964201788294e+00
2.259818964201788294e+00
2.162315988647114828e+00
2.162315988647114828e+00
2.106064271980956359e+00
2.106064271980956359e+00
2.101939146092104860e+00
2.101939146092104860e+00
2.077188390758995418e+00
2.077188390758995418e+00
2.117877132480849411e+00
2.117877132480849411e+00
2.455762443922238969e+00
2.455762443922238969e+00
2.452199835200048916e+00
2.452199835200048916e+00
2.452199835200048916e+00
2.422761436811426083e+00
2.422761436811426083e+00
2.406635944700461049e+00
2.406635944700461049e+00
2.342133976256599581e+00
2.342133976256599581e+00
2.256068849757378203e+00
2.256068849757378203e+00
2.239380840479750834e+00
2.239380840479750834e+00
2.302945280312509890e+00
2.302945280312509890e+00
2.216317636646626177e+00
2.216317636646626177e+00
2.246131046479689974e+00
2.246131046479689974e+00
2.246131046479689974e+00
2.215942625202185212e+00
2.215942625202185212e+00
2.205629810480056463e+00
2.205629810480056463e+00
2.116752098147526517e+00
2.116752098147526517e+00
2.273881893368328022e+00
2.273881893368328022e+00
2.500013794366283459e+00
2.500013794366283459e+00
2.383010223700674501e+00
2.383010223700674501e+00
2.311758049256874337e+00
2.311758049256874337e+00
2.334633747367778511e+00
2.334633747367778511e+00
2.334633747367778511e+00
2.329008575701162709e+00
2.329008575701162709e+00
2.288132328257088233e+00
2.288132328257088233e+00
2.321320841090121156e+00
2.321320841090121156e+00
2.315883175145725836e+00
2.315883175145725836e+00
2.170003723258155937e+00
2.170003723258155937e+00
2.100814111758781966e+00
2.100814111758781966e+00
2.089563768425550361e+00
2.089563768425550361e+00
2.054875209814752690e+00
2.054875209814752690e+00
2.054875209814752690e+00
1.929996398815881919e+00
1.929996398815881919e+00
2.190441846980193397e+00
2.190441846980193397e+00
2.313633106479079604e+00
2.313633106479079604e+00
2.257756401257362544e+00
2.257756401257362544e+00
2.264881618701742649e+00
2.264881618701742649e+00
2.314008117923521013e+00
2.314008117923521013e+00
2.347384136478774419e+00
2.347384136478774419e+00
2.424073976866969904e+00
2.424073976866969904e+00
2.424073976866969904e+00
2.523452009643849081e+00
2.523452009643849081e+00
2.461762627033295736e+00
2.461762627033295736e+00
2.354134342478713116e+00
2.354134342478713116e+00
2.285319742423780109e+00
2.285319742423780109e+00
2.273131870479445649e+00
2.273131870479445649e+00
2.247631092257453833e+00
2.247631092257453833e+00
2.203379741813409787e+00
2.203379741813409787e+00
2.528327158421582510e+00
2.528327158421582510e+00
2.496638691366313889e+00
2.496638691366313889e+00
2.496638691366313889e+00
2.406635944700461049e+00
2.406635944700461049e+00
2.323758415478988315e+00
2.323758415478988315e+00
2.271631824701681346e+00
2.271631824701681346e+00
2.235630726035340299e+00
2.235630726035340299e+00
2.253443769646290562e+00
2.253443769646290562e+00
2.311195532090212890e+00
2.311195532090212890e+00
2.215755119479964730e+00
2.215755119479964730e+00
2.195504501480147752e+00
2.195504501480147752e+00
2.195504501480147752e+00
2.151253151036103706e+00
2.151253151036103706e+00
2.143752922147282192e+00
2.143752922147282192e+00
2.020749168370616911e+00
2.020749168370616911e+00
2.087688711203345093e+00
2.087688711203345093e+00
2.355634388256477418e+00
2.355634388256477418e+00
2.260193975646229259e+00
2.260193975646229259e+00
2.202067201757865966e+00
2.202067201757865966e+00
2.267881710257271255e+00
2.267881710257271255e+00
2.293945005645924073e+00
2.293945005645924073e+00
2.293945005645924073e+00
2.288132328257088233e+00
2.288132328257088233e+00
2.348884182256538722e+00
2.348884182256538722e+00
2.439449446089053009e+00
2.439449446089053009e+00
2.334071230201117064e+00
2.334071230201117064e+00
2.273319376201666131e+00
2.273319376201666131e+00
2.213692556535538980e+00
2.213692556535538980e+00
2.212005005035553751e+00
2.212005005035553751e+00
2.078688436536759720e+00
2.078688436536759720e+00
2.078688436536759720e+00
2.227005462813196335e+00
2.227005462813196335e+00
2.362384594256416559e+00
2.362384594256416559e+00
2.285882259590441556e+00
2.285882259590441556e+00
2.295445051423688376e+00
2.295445051423688376e+00
2.313820612201300086e+00
2.313820612201300086e+00
2.294320017090365038e+00
2.294320017090365038e+00
2.317945738090151586e+00
2.317945738090151586e+00
2.406448438978240567e+00
2.406448438978240567e+00
2.406448438978240567e+00
2.417136265144810281e+00
2.417136265144810281e+00
2.346446607867672007e+00
2.346446607867672007e+00
2.279882076479384789e+00
2.279882076479384789e+00
2.203754753257850751e+00
2.203754753257850751e+00
2.168878688924833043e+00
2.168878688924833043e+00
2.060312875759148010e+00
2.060312875759148010e+00
2.321320841090121156e+00
2.321320841090121156e+00
2.300132694479201767e+00
2.300132694479201767e+00
2.212192510757774677e+00
2.212192510757774677e+00
2.212192510757774677e+00
2.227005462813196335e+00
2.227005462813196335e+00
2.272381847590563719e+00
2.272381847590563719e+00
2.307632923368022837e+00
2.307632923368022837e+00
2.365384685811944721e+00
2.365384685811944721e+00
2.468137821588793912e+00
2.468137821588793912e+00
2.386197820978423145e+00
2.386197820978423145e+00
2.348884182256538722e+00
2.348884182256538722e+00
2.328446058534500818e+00
2.328446058534500818e+00
2.328446058534500818e+00
2.269944273201696561e+00
2.269944273201696561e+00
2.150878139591662741e+00
2.150878139591662741e+00
2.130065004425183872e+00
2.130065004425183872e+00
2.412823633533738299e+00
2.412823633533738299e+00
2.345884090701010116e+00
2.345884090701010116e+00
2.301445234534745587e+00
2.301445234534745587e+00
2.316070680867946319e+00
2.316070680867946319e+00
2.265069124423963132e+00
2.265069124423963132e+00
2.265069124423963132e+00
2.226630451368755370e+00
2.226630451368755370e+00
2.266756675923947917e+00
2.266756675923947917e+00
2.336696310312204705e+00
2.336696310312204705e+00
2.213130039368877089e+00
2.213130039368877089e+00
2.155565782647175688e+00
2.155565782647175688e+00
2.115814569536424106e+00
2.115814569536424106e+00
2.166816125980407293e+00
2.166816125980407293e+00
2.099314065981017663e+00
2.099314065981017663e+00
2.263006561479537382e+00
2.263006561479537382e+00
2.263006561479537382e+00
2.523264503921628599e+00
2.523264503921628599e+00
2.460262581255531433e+00
2.460262581255531433e+00
2.415636219367045978e+00
2.415636219367045978e+00
2.433449262977995797e+00
2.433449262977995797e+00
2.386760338145085036e+00
2.386760338145085036e+00
2.321133335367900674e+00
2.321133335367900674e+00
2.324133426923429280e+00
2.324133426923429280e+00
2.299757683034760802e+00
2.299757683034760802e+00
2.176753929258095077e+00
2.176753929258095077e+00
2.176753929258095077e+00
2.144690450758385047e+00
2.144690450758385047e+00
2.110751915036469750e+00
2.110751915036469750e+00
2.090126285592211808e+00
2.090126285592211808e+00
1.996748435926389398e+00
1.996748435926389398e+00
2.202442213202307375e+00
2.202442213202307375e+00
2.248193609424115724e+00
2.248193609424115724e+00
2.208067384868923178e+00
2.208067384868923178e+00
2.245006012146367080e+00
2.245006012146367080e+00
2.245006012146367080e+00
2.285882259590441556e+00
2.285882259590441556e+00
2.286069765312662039e+00
2.286069765312662039e+00
2.307820429090243319e+00
2.307820429090243319e+00
2.429699148533585706e+00
2.429699148533585706e+00
2.444699606311227846e+00
2.444699606311227846e+00
2.384697775200659287e+00
2.384697775200659287e+00
2.322820886867885459e+00
2.322820886867885459e+00
2.272569353312784202e+00
2.272569353312784202e+00
2.272569353312784202e+00
2.178253975035859380e+00
2.178253975035859380e+00
2.095188940092165719e+00
2.095188940092165719e+00
2.427449079866939474e+00
2.427449079866939474e+00
2.422761436811426083e+00
2.422761436811426083e+00
2.397635670033875677e+00
2.397635670033875677e+00
2.389385418256172233e+00
2.389385418256172233e+00
2.390322946867275089e+00
2.390322946867275089e+00
2.365947202978606612e+00
2.365947202978606612e+00
2.351134250923184954e+00
2.351134250923184954e+00
2.351134250923184954e+00
2.396510635700552783e+00
2.396510635700552783e+00
2.271819330423901828e+00
2.271819330423901828e+00
2.228880520035401602e+00
2.228880520035401602e+00
2.172253791924802613e+00
2.172253791924802613e+00
2.161565965758232455e+00
2.161565965758232455e+00
2.050562578203680708e+00
2.050562578203680708e+00
2.104751731925412539e+00
2.104751731925412539e+00
2.352446790978728330e+00
2.352446790978728330e+00
2.296570085757011714e+00
2.296570085757011714e+00
2.296570085757011714e+00
2.278007019257179522e+00
2.278007019257179522e+00
2.302570268868068482e+00
2.302570268868068482e+00
2.313070589312418157e+00
2.313070589312418157e+00
2.304070314645832784e+00
2.304070314645832784e+00
2.313820612201300086e+00
2.313820612201300086e+00
2.379635120700704931e+00
2.379635120700704931e+00
2.289632374034852091e+00
2.289632374034852091e+00
2.248006103701895242e+00
2.248006103701895242e+00
2.200004638813440216e+00
2.200004638813440216e+00
2.200004638813440216e+00
2.188191778313547164e+00
2.188191778313547164e+00
2.083001068147831703e+00
2.083001068147831703e+00
2.233380657368694511e+00
2.233380657368694511e+00
2.348509170812097757e+00
2.348509170812097757e+00
2.272944364757225166e+00
2.272944364757225166e+00
2.271819330423901828e+00
2.271819330423901828e+00
2.300882717368083696e+00
2.300882717368083696e+00
2.290007385479293500e+00
2.290007385479293500e+00
2.290007385479293500e+00
2.311758049256874337e+00
2.311758049256874337e+00
2.381510177922910199e+00
2.381510177922910199e+00
2.353571825312051669e+00
2.353571825312051669e+00
2.282694662312692468e+00
2.282694662312692468e+00
2.231505600146489243e+00
2.231505600146489243e+00
2.175253883480330774e+00
2.175253883480330774e+00
2.131565050202948175e+00
2.131565050202948175e+00
2.033312051759392336e+00
2.033312051759392336e+00
2.033312051759392336e+00
2.298257637256996500e+00
2.298257637256996500e+00
2.289257362590411127e+00
2.289257362590411127e+00
2.236943266090884119e+00
2.236943266090884119e+00
2.283257179479354360e+00
2.283257179479354360e+00
2.316070680867946319e+00
2.316070680867946319e+00
2.334821253089998994e+00
2.334821253089998994e+00
2.400260750144962874e+00
2.400260750144962874e+00
2.490451002533036640e+00
2.490451002533036640e+00
2.490451002533036640e+00
2.412823633533738299e+00
2.412823633533738299e+00
2.323195898312326424e+00
2.323195898312326424e+00
2.244818506424146598e+00
2.244818506424146598e+00
2.212755027924436124e+00
2.212755027924436124e+00
2.116189580980865070e+00
2.116189580980865070e+00
2.097439008758812395e+00
2.097439008758812395e+00
2.383572740867336393e+00
2.383572740867336393e+00
2.334071230201117064e+00
2.334071230201117064e+00
2.334071230201117064e+00
2.293945005645924073e+00
2.293945005645924073e+00
2.323008392590105942e+00
2.323008392590105942e+00
2.332196172978911797e+00
2.332196172978911797e+00
2.334071230201117064e+00
2.334071230201117064e+00
2.329383587145603673e+00
2.329383587145603673e+00
2.365197180089724238e+00
2.365197180089724238e+00
2.226067934202093479e+00
2.226067934202093479e+00
2.176941434980315559e+00
2.176941434980315559e+00
2.125377361369670925e+00
2.125377361369670925e+00
2.125377361369670925e+00
2.131190038758506766e+00
2.131190038758506766e+00
2.026561845759453195e+00
2.026561845759453195e+00
2.164753563035981099e+00
2.164753563035981099e+00
2.414511185033723084e+00
2.414511185033723084e+00
2.375134983367412023e+00
2.375134983367412023e+00
2.382635212256233537e+00
2.382635212256233537e+00
2.403073335978270997e+00
2.403073335978270997e+00
2.381885189367351607e+00
2.381885189367351607e+00
2.381885189367351607e+00
2.377385052034058699e+00
2.377385052034058699e+00
2.411323587755973996e+00
2.411323587755973996e+00
2.402510818811609106e+00
2.402510818811609106e+00
2.283819696646015807e+00
2.283819696646015807e+00
2.226630451368755370e+00
2.226630451368755370e+00
2.187629261146885273e+00
2.187629261146885273e+00
2.145815485091708386e+00
2.145815485091708386e+00
2.043249855037080120e+00
2.043249855037080120e+00
2.302945280312509890e+00
2.302945280312509890e+00
2.302945280312509890e+00
2.418823816644795066e+00
2.418823816644795066e+00
2.361447065645314147e+00
2.361447065645314147e+00
2.339321390423291458e+00
2.339321390423291458e+00
2.359009491256446989e+00
2.359009491256446989e+00
2.332008667256691314e+00
2.332008667256691314e+00
2.313633106479079604e+00
2.313633106479079604e+00
2.365572191534165203e+00
2.365572191534165203e+00
2.307820429090243319e+00
2.307820429090243319e+00
2.202629718924527857e+00
2.202629718924527857e+00
2.143752922147282192e+00
2.143752922147282192e+00
2.143752922147282192e+00
2.128564958647419569e+00
2.128564958647419569e+00
2.080750999481185470e+00
2.080750999481185470e+00
2.037062166203802427e+00
2.037062166203802427e+00
2.372697408978545752e+00
2.372697408978545752e+00
2.361634571367534630e+00
2.361634571367534630e+00
2.313258095034638639e+00
2.313258095034638639e+00
2.343259010589922919e+00
2.343259010589922919e+00
2.363322122867518971e+00
2.363322122867518971e+00
2.363322122867518971e+00
2.332758690145573244e+00
2.332758690145573244e+00
2.328071047090059853e+00
2.328071047090059853e+00
2.403073335978270997e+00
2.403073335978270997e+00
2.305382854701376161e+00
2.305382854701376161e+00
2.271819330423901828e+00
2.271819330423901828e+00
2.227755485702078264e+00
2.227755485702078264e+00
2.215192602313302839e+00
2.215192602313302839e+00
2.091813837092196593e+00
2.091813837092196593e+00
2.091813837092196593e+00
2.130627521591845319e+00
2.130627521591845319e+00
2.383010223700674501e+00
2.383010223700674501e+00
2.325633472701193583e+00
2.325633472701193583e+00
2.286632282479323930e+00
2.286632282479323930e+00
2.305570360423596643e+00
2.305570360423596643e+00
2.307820429090243319e+00
2.307820429090243319e+00
2.312133060701315301e+00
2.312133060701315301e+00
2.352259285256507848e+00
2.352259285256507848e+00
2.407948484756004870e+00
2.407948484756004870e+00
2.407948484756004870e+00
2.286819788201544412e+00
2.286819788201544412e+00
2.227942991424298746e+00
2.227942991424298746e+00
2.185566698202459968e+00
2.185566698202459968e+00
2.176003906369212704e+00
2.176003906369212704e+00
2.062750450148014725e+00
2.062750450148014725e+00
2.233943174535355514e+00
2.233943174535355514e+00
2.388072878200628413e+00
2.388072878200628413e+00
2.330321115756706529e+00
2.330321115756706529e+00
2.318508255256813033e+00
2.318508255256813033e+00
2.348321665089877275e+00
2.348321665089877275e+00
2.348321665089877275e+00
2.346071596423230599e+00
2.346071596423230599e+00
2.345134067812128187e+00
2.345134067812128187e+00
2.371947386089663379e+00
2.371947386089663379e+00
2.324320932645649762e+00
2.324320932645649762e+00
2.217442670979949515e+00
2.217442670979949515e+00
2.153503219702749494e+00
2.153503219702749494e+00
2.121627246925260390e+00
2.121627246925260390e+00
2.121627246925260390e+00
2.071938230536820580e+00
2.071938230536820580e+00
1.987373149815363060e+00
1.987373149815363060e+00
2.297882625812555535e+00
2.297882625812555535e+00
2.339508896145511940e+00
2.339508896145511940e+00
2.297882625812555535e+00
2.297882625812555535e+00
2.322633381145664977e+00
2.322633381145664977e+00
2.334446241645558029e+00
2.334446241645558029e+00
2.317570726645710621e+00
2.317570726645710621e+00
2.324133426923429280e+00
2.324133426923429280e+00
2.324133426923429280e+00
2.370072328867458111e+00
2.370072328867458111e+00
2.272006836146122755e+00
2.272006836146122755e+00
2.188004272591326682e+00
2.188004272591326682e+00
2.125939878536332373e+00
2.125939878536332373e+00
2.133252601702932960e+00
2.133252601702932960e+00
2.093313882869960452e+00
2.093313882869960452e+00
2.147503036591693171e+00
2.147503036591693171e+00
2.465700247199926753e+00
2.465700247199926753e+00
2.459325052644428578e+00
2.459325052644428578e+00
2.459325052644428578e+00
2.453887386700033701e+00
2.453887386700033701e+00
2.487263405255287552e+00
2.487263405255287552e+00
2.511264137699515064e+00
2.511264137699515064e+00
2.498513748588519157e+00
2.498513748588519157e+00
2.483513290810876573e+00
2.483513290810876573e+00
2.476013061922055947e+00
2.476013061922055947e+00
2.319445783867915889e+00
2.319445783867915889e+00
2.248756126590777171e+00
2.248756126590777171e+00
2.183316629535813735e+00
2.183316629535813735e+00
2.183316629535813735e+00
2.164753563035981099e+00
2.164753563035981099e+00
2.034437086092715230e+00
2.034437086092715230e+00
2.117127109591967482e+00
2.117127109591967482e+00
2.322820886867885459e+00
2.322820886867885459e+00
2.237505783257545566e+00
2.237505783257545566e+00
2.213317545091097571e+00
2.213317545091097571e+00
2.259068941312906365e+00
2.259068941312906365e+00
2.273319376201666131e+00
2.273319376201666131e+00
2.273319376201666131e+00
2.277444502090518075e+00
2.277444502090518075e+00
2.324133426923429280e+00
2.324133426923429280e+00
2.344759056367687222e+00
2.344759056367687222e+00
2.275756950590533290e+00
2.275756950590533290e+00
2.277632007812738557e+00
2.277632007812738557e+00
2.250068666646320992e+00
2.250068666646320992e+00
2.212942533646656607e+00
2.212942533646656607e+00
2.107189306314279698e+00
2.107189306314279698e+00
2.107189306314279698e+00
2.351696768089846401e+00
2.351696768089846401e+00
2.405885921811578676e+00
2.405885921811578676e+00
2.327883541367839371e+00
2.327883541367839371e+00
2.320195806756797818e+00
2.320195806756797818e+00
2.328446058534500818e+00
2.328446058534500818e+00
2.302570268868068482e+00
2.302570268868068482e+00
2.301820245979186552e+00
2.301820245979186552e+00
2.359009491256446989e+00
2.359009491256446989e+00
2.303882808923612302e+00
2.303882808923612302e+00
2.303882808923612302e+00
2.231505600146489243e+00
2.231505600146489243e+00
2.194754478591265823e+00
2.194754478591265823e+00
2.198504593035676358e+00
2.198504593035676358e+00
2.137190221869563977e+00
2.137190221869563977e+00
2.081501022370067400e+00
2.081501022370067400e+00
2.396135624256111374e+00
2.396135624256111374e+00
2.390322946867275089e+00
2.390322946867275089e+00
2.338758873256630455e+00
2.338758873256630455e+00
2.338758873256630455e+00
2.350946745200964472e+00
2.350946745200964472e+00
2.348134159367656792e+00
2.348134159367656792e+00
2.313445600756859122e+00
2.313445600756859122e+00
2.318883266701254442e+00
2.318883266701254442e+00
2.379447614978484449e+00
2.379447614978484449e+00
2.264319101535081202e+00
2.264319101535081202e+00
2.208254890591143660e+00
2.208254890591143660e+00
2.145252967925046494e+00
2.145252967925046494e+00
2.145252967925046494e+00
2.114314523758659803e+00
2.114314523758659803e+00
1.983248023926511561e+00
1.983248023926511561e+00
2.017561571092867823e+00
2.017561571092867823e+00
2.269756767479476078e+00
2.269756767479476078e+00
2.246318552201910457e+00
2.246318552201910457e+00
2.250443678090761956e+00
2.250443678090761956e+00
2.316820703756828248e+00
2.316820703756828248e+00
2.346821619312112972e+00
2.346821619312112972e+00
2.346821619312112972e+00
2.401385784478286212e+00
2.401385784478286212e+00
2.479950682088686964e+00
2.479950682088686964e+00
2.537702444532609292e+00
2.537702444532609292e+00
2.434761803033539618e+00
2.434761803033539618e+00
2.370259834589678594e+00
2.370259834589678594e+00
2.294320017090365038e+00
2.294320017090365038e+00
2.233380657368694511e+00
2.233380657368694511e+00
2.107564317758720662e+00
2.107564317758720662e+00
2.107564317758720662e+00
2.275569444868312807e+00
2.275569444868312807e+00
2.411136082033753514e+00
2.411136082033753514e+00
2.328258552812280335e+00
2.328258552812280335e+00
2.308570451979125249e+00
2.308570451979125249e+00
2.319258278145695407e+00
2.319258278145695407e+00
2.312508072145756710e+00
2.312508072145756710e+00
2.314945646534623425e+00
2.314945646534623425e+00
2.362384594256416559e+00
2.362384594256416559e+00
2.327696035645618888e+00
2.327696035645618888e+00
2.327696035645618888e+00
2.237693288979766049e+00
2.237693288979766049e+00
2.189879329813531950e+00
2.189879329813531950e+00
2.162878505813776275e+00
2.162878505813776275e+00
2.114689535203100768e+00
2.114689535203100768e+00
2.034624591814935712e+00
2.034624591814935712e+00
2.329946104312265120e+00
2.329946104312265120e+00
2.364634662923062791e+00
2.364634662923062791e+00
2.309695486312448587e+00
2.309695486312448587e+00
2.320383312479018745e+00
2.320383312479018745e+00
2.341571459089938134e+00
2.341571459089938134e+00
2.341571459089938134e+00
2.316445692312387283e+00
2.316445692312387283e+00
2.315320657979064389e+00
2.315320657979064389e+00
2.381697683645130681e+00
2.381697683645130681e+00
2.300882717368083696e+00
2.300882717368083696e+00
2.225505417035432032e+00
2.225505417035432032e+00
2.165503585924863472e+00
2.165503585924863472e+00
2.179191503646961792e+00
2.179191503646961792e+00
2.115627063814203623e+00
2.115627063814203623e+00
2.115627063814203623e+00
2.108314340647602592e+00
2.108314340647602592e+00
2.390135441145054607e+00
2.390135441145054607e+00
2.339508896145511940e+00
2.339508896145511940e+00
2.292444959868159771e+00
2.292444959868159771e+00
2.314570635090182460e+00
2.314570635090182460e+00
2.317570726645710621e+00
2.317570726645710621e+00
2.300132694479201767e+00
2.300132694479201767e+00
2.320195806756797818e+00
2.320195806756797818e+00
2.320195806756797818e+00
2.406073427533799602e+00
2.406073427533799602e+00
2.294507522812585520e+00
2.294507522812585520e+00
2.263569078646198829e+00
2.263569078646198829e+00
2.224755394146549659e+00
2.224755394146549659e+00
2.215942625202185212e+00
2.215942625202185212e+00
2.119189672536393232e+00
2.119189672536393232e+00
2.239193334757530351e+00
2.239193334757530351e+00
2.430261665700247153e+00
2.430261665700247153e+00
2.430261665700247153e+00
2.345696584978789634e+00
2.345696584978789634e+00
2.313820612201300086e+00
2.313820612201300086e+00
2.319070772423474924e+00
2.319070772423474924e+00
2.299570177312540320e+00
2.299570177312540320e+00
2.294132511368144556e+00
2.294132511368144556e+00
2.338571367534409973e+00
2.338571367534409973e+00
2.322820886867885459e+00
2.322820886867885459e+00
2.214630085146641392e+00
2.214630085146641392e+00
2.194754478591265823e+00
2.194754478591265823e+00
2.194754478591265823e+00
2.192879421369060555e+00
2.192879421369060555e+00
2.164753563035981099e+00
2.164753563035981099e+00
2.077375896481215900e+00
2.077375896481215900e+00
2.316070680867946319e+00
2.316070680867946319e+00
2.401573290200506694e+00
2.401573290200506694e+00
2.349446699423200169e+00
2.349446699423200169e+00
2.352446790978728330e+00
2.352446790978728330e+00
2.373072420422986717e+00
2.373072420422986717e+00
2.373072420422986717e+00
2.346634113589892490e+00
2.346634113589892490e+00
2.339696401867732423e+00
2.339696401867732423e+00
2.393510544145024177e+00
2.393510544145024177e+00
2.343071504867702437e+00
2.343071504867702437e+00
2.271819330423901828e+00
2.271819330423901828e+00
2.221380291146580532e+00
2.221380291146580532e+00
2.194754478591265823e+00
2.194754478591265823e+00
2.137752739036225869e+00
2.137752739036225869e+00
2.137752739036225869e+00
2.087876216925565576e+00
2.087876216925565576e+00
2.386572832422864110e+00
2.386572832422864110e+00
2.355821893978697901e+00
2.355821893978697901e+00
2.289444868312631609e+00
2.289444868312631609e+00
2.300132694479201767e+00
2.300132694479201767e+00
2.303132786034730373e+00
2.303132786034730373e+00
2.283069673757133433e+00
2.283069673757133433e+00
2.302007751701407035e+00
2.302007751701407035e+00
2.302007751701407035e+00
2.388072878200628413e+00
2.388072878200628413e+00
2.285694753868221074e+00
2.285694753868221074e+00
2.248381115146336207e+00
2.248381115146336207e+00
2.197379558702353020e+00
2.197379558702353020e+00
2.208629902035584625e+00
2.208629902035584625e+00
2.119189672536393232e+00
2.119189672536393232e+00
2.173941343424787398e+00
2.173941343424787398e+00
2.417323770867030763e+00
2.417323770867030763e+00
2.417323770867030763e+00
2.350571733756523507e+00
2.350571733756523507e+00
2.315133152256843907e+00
2.315133152256843907e+00
2.342508987701040546e+00
2.342508987701040546e+00
2.335758781701101849e+00
2.335758781701101849e+00
2.311945554979094819e+00
2.311945554979094819e+00
2.333696218756676100e+00
2.333696218756676100e+00
2.361259559923093665e+00
2.361259559923093665e+00
2.246318552201910457e+00
2.246318552201910457e+00
2.246318552201910457e+00
2.208254890591143660e+00
2.165691091647083955e+00
2.165691091647083955e+00
2.165691091647083955e+00
2.154440748313852350e+00
2.154440748313852350e+00
2.068938138981292418e+00
2.068938138981292418e+00
2.255506332590716312e+00
2.255506332590716312e+00
2.411323587755973996e+00
2.411323587755973996e+00
2.345321573534348669e+00
2.345321573534348669e+00
2.334821253089998994e+00
2.334821253089998994e+00
2.364259651478621826e+00
2.364259651478621826e+00
2.356571916867580274e+00
2.356571916867580274e+00
2.356571916867580274e+00
2.345884090701010116e+00
2.345884090701010116e+00
2.388822901089510786e+00
2.388822901089510786e+00
2.352071779534287366e+00
2.352071779534287366e+00
2.263756584368419311e+00
2.263756584368419311e+00
2.206754844813379357e+00
2.206754844813379357e+00
2.172066286202582130e+00
2.172066286202582130e+00
2.129877498702963390e+00
2.129877498702963390e+00
2.041749809259315818e+00
2.041749809259315818e+00
2.333508713034455617e+00
2.333508713034455617e+00
2.333508713034455617e+00
2.360697042756431774e+00
2.360697042756431774e+00
2.310070497756889552e+00
2.310070497756889552e+00
2.320758323923459709e+00
2.320758323923459709e+00
2.346634113589892490e+00
2.346634113589892490e+00
2.331071138645588459e+00
2.331071138645588459e+00
2.342696493423261028e+00
2.342696493423261028e+00
2.407385967589342979e+00
2.407385967589342979e+00
2.322820886867885459e+00
2.322820886867885459e+00
2.261694021423993561e+00
2.261694021423993561e+00
2.261694021423993561e+00
2.210317453535568966e+00
2.210317453535568966e+00
2.209379924924466998e+00
2.209379924924466998e+00
2.129689992980742907e+00
2.129689992980742907e+00
2.133440107425153442e+00
2.133440107425153442e+00
2.411136082033753514e+00
2.411136082033753514e+00
2.351696768089846401e+00
2.351696768089846401e+00
2.306507889034699499e+00
2.306507889034699499e+00
2.334071230201117064e+00
2.334071230201117064e+00
2.334071230201117064e+00
2.338008850367748082e+00
2.338008850367748082e+00
2.325258461256752618e+00
2.325258461256752618e+00
2.338383861812189490e+00
2.338383861812189490e+00
2.389572923978392716e+00
2.389572923978392716e+00
2.275381939146092325e+00
2.275381939146092325e+00
2.236755760368663637e+00
2.236755760368663637e+00
2.189504318369090985e+00
