2.233568163090914993e+00
2.233568163090914993e+00
2.264131595812860720e+00
2.264131595812860720e+00
2.264131595812860720e+00
2.264131595812860720e+00
2.376260017700735361e+00
2.376260017700735361e+00
2.376260017700735361e+00
2.301445234534745587e+00
2.301445234534745587e+00
2.301445234534745587e+00
2.245756035035248566e+00
2.245756035035248566e+00
2.245756035035248566e+00
2.245756035035248566e+00
2.230755577257606870e+00
2.230755577257606870e+00
2.230755577257606870e+00
2.264881618701742649e+00
2.264881618701742649e+00
2.264881618701742649e+00
2.139815301980651618e+00
2.139815301980651618e+00
2.139815301980651618e+00
2.139815301980651618e+00
2.135877681814020157e+00
2.135877681814020157e+00
2.135877681814020157e+00
2.514264229255043226e+00
2.514264229255043226e+00
2.514264229255043226e+00
2.321320841090121156e+00
2.321320841090121156e+00
2.321320841090121156e+00
2.321320841090121156e+00
2.255131321146275347e+00
2.255131321146275347e+00
2.255131321146275347e+00
2.251943723868526259e+00
2.251943723868526259e+00
2.251943723868526259e+00
2.230755577257606870e+00
2.230755577257606870e+00
2.230755577257606870e+00
2.230755577257606870e+00
2.245193517868587563e+00
2.245193517868587563e+00
2.245193517868587563e+00
2.263569078646198829e+00
2.263569078646198829e+00
2.263569078646198829e+00
2.399323221533860018e+00
2.399323221533860018e+00
2.399323221533860018e+00
2.399323221533860018e+00
2.269569261757255596e+00
2.269569261757255596e+00
2.269569261757255596e+00
2.249693655201880027e+00
2.249693655201880027e+00
2.249693655201880027e+00
2.250818689535202921e+00
2.250818689535202921e+00
2.250818689535202921e+00
2.250818689535202921e+00
2.267881710257271255e+00
2.267881710257271255e+00
2.267881710257271255e+00
2.121064729758598499e+00
2.121064729758598499e+00
2.121064729758598499e+00
2.253256263924070080e+00
2.253256263924070080e+00
2.253256263924070080e+00
2.253256263924070080e+00
2.490638508255257122e+00
2.490638508255257122e+00
2.490638508255257122e+00
2.284944730979339145e+00
2.284944730979339145e+00
2.284944730979339145e+00
2.284944730979339145e+00
2.258318918424023991e+00
2.258318918424023991e+00
2.258318918424023991e+00
2.248381115146336207e+00
2.234318185979796478e+00
2.234318185979796478e+00
2.234318185979796478e+00
2.268819238868374111e+00
2.268819238868374111e+00
2.268819238868374111e+00
2.310258003479110034e+00
2.310258003479110034e+00
2.310258003479110034e+00
2.377010040589617734e+00
2.377010040589617734e+00
2.377010040589617734e+00
2.253068758201849597e+00
2.253068758201849597e+00
2.253068758201849597e+00
2.253068758201849597e+00
2.241068391979735619e+00
2.241068391979735619e+00
2.241068391979735619e+00
2.259443952757347329e+00
2.259443952757347329e+00
2.259443952757347329e+00
2.205817316202276945e+00
2.205817316202276945e+00
2.205817316202276945e+00
2.205817316202276945e+00
2.096501480147709540e+00
2.096501480147709540e+00
2.096501480147709540e+00
2.357884456923124095e+00
2.357884456923124095e+00
2.357884456923124095e+00
2.410011047700430176e+00
2.410011047700430176e+00
2.410011047700430176e+00
2.410011047700430176e+00
2.265819147312845505e+00
2.265819147312845505e+00
2.265819147312845505e+00
2.254568803979613900e+00
2.254568803979613900e+00
2.254568803979613900e+00
2.242380932035279439e+00
2.242380932035279439e+00
2.242380932035279439e+00
2.242943449201941331e+00
2.242943449201941331e+00
2.242943449201941331e+00
2.242943449201941331e+00
2.270319284646137969e+00
2.270319284646137969e+00
2.270319284646137969e+00
2.338946378978850937e+00
2.338946378978850937e+00
2.338946378978850937e+00
2.331071138645588459e+00
2.331071138645588459e+00
2.331071138645588459e+00
2.331071138645588459e+00
2.261881527146214044e+00
2.261881527146214044e+00
2.261881527146214044e+00
2.244255989257484707e+00
2.244255989257484707e+00
2.244255989257484707e+00
2.273694387646107540e+00
2.273694387646107540e+00
2.273694387646107540e+00
2.273694387646107540e+00
2.179191503646961792e+00
2.179191503646961792e+00
2.179191503646961792e+00
2.119002166814172750e+00
2.119002166814172750e+00
2.119002166814172750e+00
2.492513565477461945e+00
2.492513565477461945e+00
2.492513565477461945e+00
2.492513565477461945e+00
2.349259193700979687e+00
2.349259193700979687e+00
2.349259193700979687e+00
2.247256080813012868e+00
2.247256080813012868e+00
2.247256080813012868e+00
2.241443403424177028e+00
2.241443403424177028e+00
2.241443403424177028e+00
2.241443403424177028e+00
2.230568071535386387e+00
2.230568071535386387e+00
2.230568071535386387e+00
2.242755943479720404e+00
2.242755943479720404e+00
2.242755943479720404e+00
2.257756401257362544e+00
2.257756401257362544e+00
2.257756401257362544e+00
2.257756401257362544e+00
2.393135532700583212e+00
2.393135532700583212e+00
2.393135532700583212e+00
2.290944914090395912e+00
2.290944914090395912e+00
2.290944914090395912e+00
2.248756126590777171e+00
2.248756126590777171e+00
2.248756126590777171e+00
2.248756126590777171e+00
2.232255623035371173e+00
2.232255623035371173e+00
2.232255623035371173e+00
2.267881710257271255e+00
2.267881710257271255e+00
2.267881710257271255e+00
2.267881710257271255e+00
2.131190038758506766e+00
2.131190038758506766e+00
2.131190038758506766e+00
2.188379284035767647e+00
2.188379284035767647e+00
2.188379284035767647e+00
2.517639332255012796e+00
2.517639332255012796e+00
2.517639332255012796e+00
2.517639332255012796e+00
2.301820245979186552e+00
2.301820245979186552e+00
2.301820245979186552e+00
2.259256447035126847e+00
2.259256447035126847e+00
2.259256447035126847e+00
2.255693838312936794e+00
2.255693838312936794e+00
2.255693838312936794e+00
2.255693838312936794e+00
2.237318277535325084e+00
2.237318277535325084e+00
2.237318277535325084e+00
2.254756309701834383e+00
2.254756309701834383e+00
2.254756309701834383e+00
2.280632099368266719e+00
2.280632099368266719e+00
2.280632099368266719e+00
2.400823267311624321e+00
2.400823267311624321e+00
2.400823267311624321e+00
2.400823267311624321e+00
2.261694021423993561e+00
2.261694021423993561e+00
2.261694021423993561e+00
2.237318277535325084e+00
2.237318277535325084e+00
2.237318277535325084e+00
2.249318643757439062e+00
2.249318643757439062e+00
2.249318643757439062e+00
2.249318643757439062e+00
2.244443494979705633e+00
2.244443494979705633e+00
2.244443494979705633e+00
2.117877132480849411e+00
2.117877132480849411e+00
2.117877132480849411e+00
2.296195074312570750e+00
2.296195074312570750e+00
2.296195074312570750e+00
2.296195074312570750e+00
2.456887478255561863e+00
2.456887478255561863e+00
2.456887478255561863e+00
2.272756859035004684e+00
2.272756859035004684e+00
2.272756859035004684e+00
2.256818872646260132e+00
2.256818872646260132e+00
2.256818872646260132e+00
2.256818872646260132e+00
2.243505966368602778e+00
2.243505966368602778e+00
2.243505966368602778e+00
2.239943357646412725e+00
2.239943357646412725e+00
2.239943357646412725e+00
2.265256630146183614e+00
2.265256630146183614e+00
2.265256630146183614e+00
2.265256630146183614e+00
2.322633381145664977e+00
2.322633381145664977e+00
2.322633381145664977e+00
2.358634479812006024e+00
2.358634479812006024e+00
2.358634479812006024e+00
2.247443586535233351e+00
2.247443586535233351e+00
2.247443586535233351e+00
2.247443586535233351e+00
2.227005462813196335e+00
2.227005462813196335e+00
2.227005462813196335e+00
2.253818781090731527e+00
2.253818781090731527e+00
2.253818781090731527e+00
2.207879879146702695e+00
2.207879879146702695e+00
2.207879879146702695e+00
2.207879879146702695e+00
2.121814752647480873e+00
2.121814752647480873e+00
2.121814752647480873e+00
2.428386608478041886e+00
2.428386608478041886e+00
2.428386608478041886e+00
2.397635670033875677e+00
2.397635670033875677e+00
2.397635670033875677e+00
2.397635670033875677e+00
2.262819055757316900e+00
2.262819055757316900e+00
2.262819055757316900e+00
2.259068941312906365e+00
2.259068941312906365e+00
2.259068941312906365e+00
2.242380932035279439e+00
2.242380932035279439e+00
2.242380932035279439e+00
2.242380932035279439e+00
2.230380565813165905e+00
2.230380565813165905e+00
2.230380565813165905e+00
2.244818506424146598e+00
2.244818506424146598e+00
2.244818506424146598e+00
2.359572008423108880e+00
2.359572008423108880e+00
2.359572008423108880e+00
2.359572008423108880e+00
2.309882992034669069e+00
2.309882992034669069e+00
2.309882992034669069e+00
2.250256172368541474e+00
2.250256172368541474e+00
2.250256172368541474e+00
2.250256172368541474e+00
2.233380657368694511e+00
2.233380657368694511e+00
2.233380657368694511e+00
2.269569261757255596e+00
2.269569261757255596e+00
2.269569261757255596e+00
2.156878322702719064e+00
2.156878322702719064e+00
2.156878322702719064e+00
2.156878322702719064e+00
2.135315164647358710e+00
2.135315164647358710e+00
2.135315164647358710e+00
2.517076815088350905e+00
2.517076815088350905e+00
2.517076815088350905e+00
2.330321115756706529e+00
2.330321115756706529e+00
2.330321115756706529e+00
2.330321115756706529e+00
2.256631366924039650e+00
2.256631366924039650e+00
2.256631366924039650e+00
2.253631275368511044e+00
2.253631275368511044e+00
2.253631275368511044e+00
2.235818231757560781e+00
2.235818231757560781e+00
2.235818231757560781e+00
2.235818231757560781e+00
2.248943632312997654e+00
2.248943632312997654e+00
2.248943632312997654e+00
2.257381389812921579e+00
2.257381389812921579e+00
2.257381389812921579e+00
2.396135624256111374e+00
2.396135624256111374e+00
2.396135624256111374e+00
2.396135624256111374e+00
2.270881801812799416e+00
2.270881801812799416e+00
2.270881801812799416e+00
2.237880794701986531e+00
2.237880794701986531e+00
2.237880794701986531e+00
2.236943266090884119e+00
2.236943266090884119e+00
2.236943266090884119e+00
2.236943266090884119e+00
2.266756675923947917e+00
2.266756675923947917e+00
2.266756675923947917e+00
2.113564500869777874e+00
2.113564500869777874e+00
2.113564500869777874e+00
2.233193151646474028e+00
2.233193151646474028e+00
2.233193151646474028e+00
2.233193151646474028e+00
2.503201391644032547e+00
2.503201391644032547e+00
2.503201391644032547e+00
2.288882351145970162e+00
2.288882351145970162e+00
2.288882351145970162e+00
2.256443861201819168e+00
2.256443861201819168e+00
2.256443861201819168e+00
2.256443861201819168e+00
2.246693563646351421e+00
2.246693563646351421e+00
2.246693563646351421e+00
2.231130588702047834e+00
2.231130588702047834e+00
2.231130588702047834e+00
2.254943815424054865e+00
2.254943815424054865e+00
2.254943815424054865e+00
2.254943815424054865e+00
2.302570268868068482e+00
2.302570268868068482e+00
2.302570268868068482e+00
2.396698141422773265e+00
2.396698141422773265e+00
2.396698141422773265e+00
2.266006653035065987e+00
2.266006653035065987e+00
2.266006653035065987e+00
2.266006653035065987e+00
2.246318552201910457e+00
2.246318552201910457e+00
2.246318552201910457e+00
2.259256447035126847e+00
2.259256447035126847e+00
2.259256447035126847e+00
2.224380382702108694e+00
2.224380382702108694e+00
2.224380382702108694e+00
2.224380382702108694e+00
2.116002075258644588e+00
2.116002075258644588e+00
2.116002075258644588e+00
2.342508987701040546e+00
2.342508987701040546e+00
2.342508987701040546e+00
2.441324503311258276e+00
2.441324503311258276e+00
2.441324503311258276e+00
2.441324503311258276e+00
2.271069307535019899e+00
2.271069307535019899e+00
2.271069307535019899e+00
2.261506515701773079e+00
2.261506515701773079e+00
2.261506515701773079e+00
2.247443586535233351e+00
2.247443586535233351e+00
2.247443586535233351e+00
2.247443586535233351e+00
2.244443494979705633e+00
2.244443494979705633e+00
2.244443494979705633e+00
2.269944273201696561e+00
2.269944273201696561e+00
2.269944273201696561e+00
2.344571550645466296e+00
2.344571550645466296e+00
2.344571550645466296e+00
2.344571550645466296e+00
2.340633930478835278e+00
2.340633930478835278e+00
2.340633930478835278e+00
2.261506515701773079e+00
2.261506515701773079e+00
2.261506515701773079e+00
2.248568620868556689e+00
2.248568620868556689e+00
2.248568620868556689e+00
2.248568620868556689e+00
2.273694387646107540e+00
2.273694387646107540e+00
2.273694387646107540e+00
2.183504135258034218e+00
2.183504135258034218e+00
2.183504135258034218e+00
2.120127201147496088e+00
2.120127201147496088e+00
2.120127201147496088e+00
2.120127201147496088e+00
2.470200384533219218e+00
2.470200384533219218e+00
2.470200384533219218e+00
2.372509903256325270e+00
2.372509903256325270e+00
2.372509903256325270e+00
2.261319009979552597e+00
2.261319009979552597e+00
2.261319009979552597e+00
2.261319009979552597e+00
2.258131412701803509e+00
2.258131412701803509e+00
2.258131412701803509e+00
2.228693014313181120e+00
2.228693014313181120e+00
2.228693014313181120e+00
2.228693014313181120e+00
2.229818048646504014e+00
2.229818048646504014e+00
2.229818048646504014e+00
2.248943632312997654e+00
2.248943632312997654e+00
2.248943632312997654e+00
2.379447614978484449e+00
2.379447614978484449e+00
2.379447614978484449e+00
2.284382213812677254e+00
2.284382213812677254e+00
2.284382213812677254e+00
2.284382213812677254e+00
2.242380932035279439e+00
2.242380932035279439e+00
2.242380932035279439e+00
2.233943174535355514e+00
2.233943174535355514e+00
2.233943174535355514e+00
2.266194158757286470e+00
2.266194158757286470e+00
2.266194158757286470e+00
2.266194158757286470e+00
2.129314981536301499e+00
2.129314981536301499e+00
2.129314981536301499e+00
2.151815668202764709e+00
2.151815668202764709e+00
2.151815668202764709e+00
2.514264229255043226e+00
2.514264229255043226e+00
2.514264229255043226e+00
2.514264229255043226e+00
2.313070589312418157e+00
2.313070589312418157e+00
2.313070589312418157e+00
2.259068941312906365e+00
2.259068941312906365e+00
2.259068941312906365e+00
2.259068941312906365e+00
2.256256355479598685e+00
2.256256355479598685e+00
2.256256355479598685e+00
2.243130954924161813e+00
2.243130954924161813e+00
2.243130954924161813e+00
2.268069215979491737e+00
2.268069215979491737e+00
2.268069215979491737e+00
2.288694845423749680e+00
2.288694845423749680e+00
2.288694845423749680e+00
2.288694845423749680e+00
2.406635944700461049e+00
2.406635944700461049e+00
2.406635944700461049e+00
2.257756401257362544e+00
2.257756401257362544e+00
2.257756401257362544e+00
2.242005920590838475e+00
2.242005920590838475e+00
2.242005920590838475e+00
2.242005920590838475e+00
2.245006012146367080e+00
2.245006012146367080e+00
2.245006012146367080e+00
2.241443403424177028e+00
2.241443403424177028e+00
2.241443403424177028e+00
2.099689077425458628e+00
2.099689077425458628e+00
2.099689077425458628e+00
2.099689077425458628e+00
2.254943815424054865e+00
2.254943815424054865e+00
2.254943815424054865e+00
2.465137730033265306e+00
2.465137730033265306e+00
2.465137730033265306e+00
2.272569353312784202e+00
2.272569353312784202e+00
2.272569353312784202e+00
2.272569353312784202e+00
2.254943815424054865e+00
2.254943815424054865e+00
2.254943815424054865e+00
2.240318369090853690e+00
2.240318369090853690e+00
2.240318369090853690e+00
2.240318369090853690e+00
2.225505417035432032e+00
2.225505417035432032e+00
2.225505417035432032e+00
2.258693929868464956e+00
2.258693929868464956e+00
2.258693929868464956e+00
2.317008209479048730e+00
2.317008209479048730e+00
2.317008209479048730e+00
2.317008209479048730e+00
2.369509811700796664e+00
2.369509811700796664e+00
2.369509811700796664e+00
2.251568712424085295e+00
2.251568712424085295e+00
2.251568712424085295e+00
2.247256080813012868e+00
2.247256080813012868e+00
2.247256080813012868e+00
2.247256080813012868e+00
2.270506790368358452e+00
2.270506790368358452e+00
2.270506790368358452e+00
2.219130222479934300e+00
2.219130222479934300e+00
2.219130222479934300e+00
2.114689535203100768e+00
2.114689535203100768e+00
2.114689535203100768e+00
2.114689535203100768e+00
2.375509994811853431e+00
2.375509994811853431e+00
2.375509994811853431e+00
2.393698049867244659e+00
2.393698049867244659e+00
2.393698049867244659e+00
2.256631366924039650e+00
2.256631366924039650e+00
2.256631366924039650e+00
2.256631366924039650e+00
2.250631183812982439e+00
2.250631183812982439e+00
2.250631183812982439e+00
2.236193243202001746e+00
2.236193243202001746e+00
2.236193243202001746e+00
2.231318094424268317e+00
2.231318094424268317e+00
2.231318094424268317e+00
2.231318094424268317e+00
2.266944181646168399e+00
2.266944181646168399e+00
2.266944181646168399e+00
2.357509445478682686e+00
2.357509445478682686e+00
2.357509445478682686e+00
2.329383587145603673e+00
2.329383587145603673e+00
2.329383587145603673e+00
2.329383587145603673e+00
2.264319101535081202e+00
2.264319101535081202e+00
2.264319101535081202e+00
2.244818506424146598e+00
2.244818506424146598e+00
2.244818506424146598e+00
2.244818506424146598e+00
2.277256996368297592e+00
2.277256996368297592e+00
2.277256996368297592e+00
2.169628711813714972e+00
2.169628711813714972e+00
2.169628711813714972e+00
2.122377269814142320e+00
2.122377269814142320e+00
2.122377269814142320e+00
2.122377269814142320e+00
2.505263954588457853e+00
2.505263954588457853e+00
2.505263954588457853e+00
2.344946562089907705e+00
2.344946562089907705e+00
2.344946562089907705e+00
2.257193884090700653e+00
2.257193884090700653e+00
2.257193884090700653e+00
2.257193884090700653e+00
2.251943723868526259e+00
2.251943723868526259e+00
2.251943723868526259e+00
2.234130680257575996e+00
2.234130680257575996e+00
2.234130680257575996e+00
2.240130863368633207e+00
2.240130863368633207e+00
2.261694021423993561e+00
2.261694021423993561e+00
2.261694021423993561e+00
2.261694021423993561e+00
2.399885738700521909e+00
2.399885738700521909e+00
2.399885738700521909e+00
2.285319742423780109e+00
2.285319742423780109e+00
2.285319742423780109e+00
2.264319101535081202e+00
2.264319101535081202e+00
2.264319101535081202e+00
2.264319101535081202e+00
2.260756492812891150e+00
2.260756492812891150e+00
2.260756492812891150e+00
2.267694204535050773e+00
2.267694204535050773e+00
2.267694204535050773e+00
2.110751915036469750e+00
2.110751915036469750e+00
2.110751915036469750e+00
2.110751915036469750e+00
2.195316995757927270e+00
2.195316995757927270e+00
2.195316995757927270e+00
2.491388531144139051e+00
2.491388531144139051e+00
2.491388531144139051e+00
2.287194799645985377e+00
2.287194799645985377e+00
2.287194799645985377e+00
2.287194799645985377e+00
2.253443769646290562e+00
2.253443769646290562e+00
2.253443769646290562e+00
2.242005920590838475e+00
2.242005920590838475e+00
2.242005920590838475e+00
2.219880245368816230e+00
2.219880245368816230e+00
2.219880245368816230e+00
2.219880245368816230e+00
2.247818597979674760e+00
2.247818597979674760e+00
2.247818597979674760e+00
2.277444502090518075e+00
2.277444502090518075e+00
2.277444502090518075e+00
2.277444502090518075e+00
2.386947843867305519e+00
2.386947843867305519e+00
2.386947843867305519e+00
2.257756401257362544e+00
2.257756401257362544e+00
2.257756401257362544e+00
2.243505966368602778e+00
2.243505966368602778e+00
2.243505966368602778e+00
2.243505966368602778e+00
2.264319101535081202e+00
2.264319101535081202e+00
2.264319101535081202e+00
2.248568620868556689e+00
2.248568620868556689e+00
2.248568620868556689e+00
2.129314981536301499e+00
2.129314981536301499e+00
2.129314981536301499e+00
2.129314981536301499e+00
2.322445875423444495e+00
2.322445875423444495e+00
2.322445875423444495e+00
2.440761986144596829e+00
2.440761986144596829e+00
2.440761986144596829e+00
2.258318918424023991e+00
2.258318918424023991e+00
2.258318918424023991e+00
2.258318918424023991e+00
2.251756218146305777e+00
2.251756218146305777e+00
2.251756218146305777e+00
2.245381023590808045e+00
2.245381023590808045e+00
2.245381023590808045e+00
2.237130771813104602e+00
2.237130771813104602e+00
2.237130771813104602e+00
2.237130771813104602e+00
2.266194158757286470e+00
2.266194158757286470e+00
2.266194158757286470e+00
2.338196356089969008e+00
2.338196356089969008e+00
2.338196356089969008e+00
2.352071779534287366e+00
2.352071779534287366e+00
2.352071779534287366e+00
2.352071779534287366e+00
2.254193792535172935e+00
2.254193792535172935e+00
2.254193792535172935e+00
2.238630817590868904e+00
2.238630817590868904e+00
2.238630817590868904e+00
2.259631458479567812e+00
2.259631458479567812e+00
2.259631458479567812e+00
2.183879146702475182e+00
2.183879146702475182e+00
2.183879146702475182e+00
2.114877040925321250e+00
2.114877040925321250e+00
2.114877040925321250e+00
2.450137272255623166e+00
2.450137272255623166e+00
2.450137272255623166e+00
2.450137272255623166e+00
2.382072695089572090e+00
2.382072695089572090e+00
2.382072695089572090e+00
2.263569078646198829e+00
2.263569078646198829e+00
2.263569078646198829e+00
2.250818689535202921e+00
2.250818689535202921e+00
2.250818689535202921e+00
2.250818689535202921e+00
2.231505600146489243e+00
2.231505600146489243e+00
2.231505600146489243e+00
2.229443037202063049e+00
2.229443037202063049e+00
2.229443037202063049e+00
2.262256538590655452e+00
2.262256538590655452e+00
2.262256538590655452e+00
2.262256538590655452e+00
2.370634846034120002e+00
2.370634846034120002e+00
2.370634846034120002e+00
2.302570268868068482e+00
2.302570268868068482e+00
2.302570268868068482e+00
2.253818781090731527e+00
2.253818781090731527e+00
2.253818781090731527e+00
2.253818781090731527e+00
2.233005645924253102e+00
2.233005645924253102e+00
2.233005645924253102e+00
2.265819147312845505e+00
2.265819147312845505e+00
2.265819147312845505e+00
2.143940427869502674e+00
2.143940427869502674e+00
2.143940427869502674e+00
2.143940427869502674e+00
2.149565599536118921e+00
2.149565599536118921e+00
2.149565599536118921e+00
2.522514481032746669e+00
2.522514481032746669e+00
2.522514481032746669e+00
2.331633655812249906e+00
2.331633655812249906e+00
2.331633655812249906e+00
2.331633655812249906e+00
2.265819147312845505e+00
2.265819147312845505e+00
2.265819147312845505e+00
2.258506424146244473e+00
2.258506424146244473e+00
2.258506424146244473e+00
2.241443403424177028e+00
2.241443403424177028e+00
2.241443403424177028e+00
2.241443403424177028e+00
2.252318735312967224e+00
2.252318735312967224e+00
2.252318735312967224e+00
2.265256630146183614e+00
2.265256630146183614e+00
2.265256630146183614e+00
2.399698232978301426e+00
2.399698232978301426e+00
2.399698232978301426e+00
2.399698232978301426e+00
2.257943906979583026e+00
2.257943906979583026e+00
2.257943906979583026e+00
2.231880611590930208e+00
2.231880611590930208e+00
2.231880611590930208e+00
2.231880611590930208e+00
2.236193243202001746e+00
2.236193243202001746e+00
2.236193243202001746e+00
2.255506332590716312e+00
2.255506332590716312e+00
2.255506332590716312e+00
2.113939512314218838e+00
2.113939512314218838e+00
2.113939512314218838e+00
2.113939512314218838e+00
2.252131229590746742e+00
2.252131229590746742e+00
2.252131229590746742e+00
2.491013519699698087e+00
2.491013519699698087e+00
2.491013519699698087e+00
2.286819788201544412e+00
2.286819788201544412e+00
2.286819788201544412e+00
2.286819788201544412e+00
2.256256355479598685e+00
2.256256355479598685e+00
2.256256355479598685e+00
2.250068666646320992e+00
2.250068666646320992e+00
2.250068666646320992e+00
2.240130863368633207e+00
2.240130863368633207e+00
2.240130863368633207e+00
2.240130863368633207e+00
2.260568987090670667e+00
2.260568987090670667e+00
2.260568987090670667e+00
2.299945188756981285e+00
2.299945188756981285e+00
2.299945188756981285e+00
2.366322214423047576e+00
2.366322214423047576e+00
2.366322214423047576e+00
2.366322214423047576e+00
2.245568529313028083e+00
2.245568529313028083e+00
2.245568529313028083e+00
2.234318185979796478e+00
2.234318185979796478e+00
2.234318185979796478e+00
2.257756401257362544e+00
2.257756401257362544e+00
2.257756401257362544e+00
2.257756401257362544e+00
2.215942625202185212e+00
2.215942625202185212e+00
2.215942625202185212e+00
2.119189672536393232e+00
2.119189672536393232e+00
2.119189672536393232e+00
2.368009765923032361e+00
2.368009765923032361e+00
2.368009765923032361e+00
2.368009765923032361e+00
2.418823816644795066e+00
2.418823816644795066e+00
2.418823816644795066e+00
2.272569353312784202e+00
2.272569353312784202e+00
2.272569353312784202e+00
2.270694296090578934e+00
2.270694296090578934e+00
2.270694296090578934e+00
2.270694296090578934e+00
2.251006195257423848e+00
2.251006195257423848e+00
2.251006195257423848e+00
2.248756126590777171e+00
2.248756126590777171e+00
2.248756126590777171e+00
2.268819238868374111e+00
2.268819238868374111e+00
2.268819238868374111e+00
2.268819238868374111e+00
2.354321848200934042e+00
2.354321848200934042e+00
2.354321848200934042e+00
2.325445966978973100e+00
2.325445966978973100e+00
2.325445966978973100e+00
2.245006012146367080e+00
2.245006012146367080e+00
2.245006012146367080e+00
2.245006012146367080e+00
2.230755577257606870e+00
2.230755577257606870e+00
2.230755577257606870e+00
2.275944456312753772e+00
2.275944456312753772e+00
2.275944456312753772e+00
2.183879146702475182e+00
2.183879146702475182e+00
2.183879146702475182e+00
2.183879146702475182e+00
2.119377178258613714e+00
2.119377178258613714e+00
2.119377178258613714e+00
2.486138370921964214e+00
2.486138370921964214e+00
2.486138370921964214e+00
2.350009216589862060e+00
2.350009216589862060e+00
2.350009216589862060e+00
2.350009216589862060e+00
2.254568803979613900e+00
2.254568803979613900e+00
2.254568803979613900e+00
2.251381206701864812e+00
2.251381206701864812e+00
2.251381206701864812e+00
2.251381206701864812e+00
2.232818140202032620e+00
2.232818140202032620e+00
2.232818140202032620e+00
2.246318552201910457e+00
2.246318552201910457e+00
2.246318552201910457e+00
2.264319101535081202e+00
2.264319101535081202e+00
2.264319101535081202e+00
2.264319101535081202e+00
2.384322763756218322e+00
2.384322763756218322e+00
2.384322763756218322e+00
2.279319559312723342e+00
2.279319559312723342e+00
2.279319559312723342e+00
2.246881069368571904e+00
2.246881069368571904e+00
2.246881069368571904e+00
2.246881069368571904e+00
2.235630726035340299e+00
2.235630726035340299e+00
2.235630726035340299e+00
2.276319467757194737e+00
2.276319467757194737e+00
2.276319467757194737e+00
2.133627613147373925e+00
2.133627613147373925e+00
2.133627613147373925e+00
2.133627613147373925e+00
2.190816858424634361e+00
2.190816858424634361e+00
2.190816858424634361e+00
2.518576860866115208e+00
2.518576860866115208e+00
2.518576860866115208e+00
2.303695303201391820e+00
2.303695303201391820e+00
2.303695303201391820e+00
2.303695303201391820e+00
2.257006378368480615e+00
2.257006378368480615e+00
2.257006378368480615e+00
2.249506149479659545e+00
2.249506149479659545e+00
2.249506149479659545e+00
2.236943266090884119e+00
2.236943266090884119e+00
2.236943266090884119e+00
2.236943266090884119e+00
2.256068849757378203e+00
2.256068849757378203e+00
2.256068849757378203e+00
2.275381939146092325e+00
2.275381939146092325e+00
2.275381939146092325e+00
2.386197820978423145e+00
2.386197820978423145e+00
2.386197820978423145e+00
2.386197820978423145e+00
2.252881252479629115e+00
2.252881252479629115e+00
2.252881252479629115e+00
2.245756035035248566e+00
2.245756035035248566e+00
2.245756035035248566e+00
2.241255897701956545e+00
2.241255897701956545e+00
2.241255897701956545e+00
2.241255897701956545e+00
2.242568437757499922e+00
2.242568437757499922e+00
2.242568437757499922e+00
2.115252052369762659e+00
2.115252052369762659e+00
2.115252052369762659e+00
2.301445234534745587e+00
2.301445234534745587e+00
2.301445234534745587e+00
2.301445234534745587e+00
2.455012421033357040e+00
2.455012421033357040e+00
2.455012421033357040e+00
2.275756950590533290e+00
2.275756950590533290e+00
2.275756950590533290e+00
2.262069032868434526e+00
2.262069032868434526e+00
2.262069032868434526e+00
2.262069032868434526e+00
2.246881069368571904e+00
2.246881069368571904e+00
2.246881069368571904e+00
2.237130771813104602e+00
2.237130771813104602e+00
2.237130771813104602e+00
2.262631550035096417e+00
2.262631550035096417e+00
2.262631550035096417e+00
2.262631550035096417e+00
2.325070955534531691e+00
2.325070955534531691e+00
2.325070955534531691e+00
2.356009399700918827e+00
2.356009399700918827e+00
2.356009399700918827e+00
2.356009399700918827e+00
2.259631458479567812e+00
2.259631458479567812e+00
2.259631458479567812e+00
2.244631000701926116e+00
2.244631000701926116e+00
2.244631000701926116e+00
2.269569261757255596e+00
2.269569261757255596e+00
2.269569261757255596e+00
2.269569261757255596e+00
2.204129764702292160e+00
2.204129764702292160e+00
2.204129764702292160e+00
2.121439741203039464e+00
2.121439741203039464e+00
2.121439741203039464e+00
2.422761436811426083e+00
2.422761436811426083e+00
2.422761436811426083e+00
2.422761436811426083e+00
2.388822901089510786e+00
2.388822901089510786e+00
2.388822901089510786e+00
2.258506424146244473e+00
2.258506424146244473e+00
2.258506424146244473e+00
2.248006103701895242e+00
2.248006103701895242e+00
2.248006103701895242e+00
2.248006103701895242e+00
2.229818048646504014e+00
2.229818048646504014e+00
2.229818048646504014e+00
2.229443037202063049e+00
2.229443037202063049e+00
2.229443037202063049e+00
2.258881435590685438e+00
2.258881435590685438e+00
2.258881435590685438e+00
2.258881435590685438e+00
2.369322305978576182e+00
2.369322305978576182e+00
2.369322305978576182e+00
2.307820429090243319e+00
2.307820429090243319e+00
2.307820429090243319e+00
2.253256263924070080e+00
2.253256263924070080e+00
2.253256263924070080e+00
2.253256263924070080e+00
2.246881069368571904e+00
2.246881069368571904e+00
2.246881069368571904e+00
2.278194524979400004e+00
2.278194524979400004e+00
2.278194524979400004e+00
2.152565691091647082e+00
2.152565691091647082e+00
2.152565691091647082e+00
2.152565691091647082e+00
2.125189855647450443e+00
2.125189855647450443e+00
2.125189855647450443e+00
2.502076357310709209e+00
2.502076357310709209e+00
2.502076357310709209e+00
2.326383495590075512e+00
2.326383495590075512e+00
2.326383495590075512e+00
2.326383495590075512e+00
2.252506241035188150e+00
2.252506241035188150e+00
2.252506241035188150e+00
2.253256263924070080e+00
2.253256263924070080e+00
2.253256263924070080e+00
2.235443220313119816e+00
2.235443220313119816e+00
2.235443220313119816e+00
2.235443220313119816e+00
2.244818506424146598e+00
2.244818506424146598e+00
2.244818506424146598e+00
2.267881710257271255e+00
2.267881710257271255e+00
2.267881710257271255e+00
2.403448347422711961e+00
2.403448347422711961e+00
2.403448347422711961e+00
2.403448347422711961e+00
2.274444410534989469e+00
2.274444410534989469e+00
2.274444410534989469e+00
2.249881160924100509e+00
2.249881160924100509e+00
2.249881160924100509e+00
2.241630909146397510e+00
2.241630909146397510e+00
2.241630909146397510e+00
2.241630909146397510e+00
2.271819330423901828e+00
2.271819330423901828e+00
2.271819330423901828e+00
2.123314798425245176e+00
2.123314798425245176e+00
2.123314798425245176e+00
2.123314798425245176e+00
2.243130954924161813e+00
2.243130954924161813e+00
2.243130954924161813e+00
2.496638691366313889e+00
2.496638691366313889e+00
2.496638691366313889e+00
2.279694570757164307e+00
2.279694570757164307e+00
2.279694570757164307e+00
2.279694570757164307e+00
2.253068758201849597e+00
2.253068758201849597e+00
2.253068758201849597e+00
2.250818689535202921e+00
2.250818689535202921e+00
2.250818689535202921e+00
2.237130771813104602e+00
2.237130771813104602e+00
2.237130771813104602e+00
2.237130771813104602e+00
2.254943815424054865e+00
2.254943815424054865e+00
2.254943815424054865e+00
2.289257362590411127e+00
2.289257362590411127e+00
2.289257362590411127e+00
2.364259651478621826e+00
2.364259651478621826e+00
2.364259651478621826e+00
2.246693563646351421e+00
2.246693563646351421e+00
2.246693563646351421e+00
2.246693563646351421e+00
2.236568254646443155e+00
2.236568254646443155e+00
2.236568254646443155e+00
2.261506515701773079e+00
2.261506515701773079e+00
2.261506515701773079e+00
2.261506515701773079e+00
2.226630451368755370e+00
2.226630451368755370e+00
2.226630451368755370e+00
2.126502395702994264e+00
2.126502395702994264e+00
2.126502395702994264e+00
2.368759788811914291e+00
2.368759788811914291e+00
2.368759788811914291e+00
2.368759788811914291e+00
2.434574297311319135e+00
2.434574297311319135e+00
2.434574297311319135e+00
2.274631916257209951e+00
2.274631916257209951e+00
2.274631916257209951e+00
2.264131595812860720e+00
2.264131595812860720e+00
2.264131595812860720e+00
2.264131595812860720e+00
2.239943357646412725e+00
2.239943357646412725e+00
2.239943357646412725e+00
2.232068117313150690e+00
2.232068117313150690e+00
2.232068117313150690e+00
2.254381298257393418e+00
2.254381298257393418e+00
2.254381298257393418e+00
2.254381298257393418e+00
2.334258735923337547e+00
2.334258735923337547e+00
2.334258735923337547e+00
2.329008575701162709e+00
2.329008575701162709e+00
2.329008575701162709e+00
2.244068483535264225e+00
2.244068483535264225e+00
2.244068483535264225e+00
2.244068483535264225e+00
2.229630542924283532e+00
2.229630542924283532e+00
2.229630542924283532e+00
2.264131595812860720e+00
2.264131595812860720e+00
2.264131595812860720e+00
2.172628803369243577e+00
2.172628803369243577e+00
2.172628803369243577e+00
2.172628803369243577e+00
2.108689352092044000e+00
2.108689352092044000e+00
2.108689352092044000e+00
2.469637867366557771e+00
2.469637867366557771e+00
2.469637867366557771e+00
2.365947202978606612e+00
2.365947202978606612e+00
2.365947202978606612e+00
2.365947202978606612e+00
2.255881344035157721e+00
2.255881344035157721e+00
2.255881344035157721e+00
2.251756218146305777e+00
2.251756218146305777e+00
2.251756218146305777e+00
2.235068208868678852e+00
2.235068208868678852e+00
2.235068208868678852e+00
2.235068208868678852e+00
2.244068483535264225e+00
2.244068483535264225e+00
2.244068483535264225e+00
2.270881801812799416e+00
2.270881801812799416e+00
2.270881801812799416e+00
2.270881801812799416e+00
2.393698049867244659e+00
2.393698049867244659e+00
2.393698049867244659e+00
2.298257637256996500e+00
2.298257637256996500e+00
2.298257637256996500e+00
2.254381298257393418e+00
2.254381298257393418e+00
2.254381298257393418e+00
2.238630817590868904e+00
2.238630817590868904e+00
2.238630817590868904e+00
2.238630817590868904e+00
2.264319101535081202e+00
2.264319101535081202e+00
2.264319101535081202e+00
2.122939786980803767e+00
2.122939786980803767e+00
2.122939786980803767e+00
2.163066011535996758e+00
2.163066011535996758e+00
2.163066011535996758e+00
2.163066011535996758e+00
2.514076723532822744e+00
2.514076723532822744e+00
2.514076723532822744e+00
2.315508163701284872e+00
2.315508163701284872e+00
2.315508163701284872e+00
2.265444135868404540e+00
2.265444135868404540e+00
2.265444135868404540e+00
2.265444135868404540e+00
2.250818689535202921e+00
2.250818689535202921e+00
2.250818689535202921e+00
2.226442945646534444e+00
2.226442945646534444e+00
2.226442945646534444e+00
2.226442945646534444e+00
2.252506241035188150e+00
2.252506241035188150e+00
2.252506241035188150e+00
2.278194524979400004e+00
2.278194524979400004e+00
2.278194524979400004e+00
2.398573198644978088e+00
2.398573198644978088e+00
2.398573198644978088e+00
2.398573198644978088e+00
2.265444135868404540e+00
2.265444135868404540e+00
2.265444135868404540e+00
2.240130863368633207e+00
2.240130863368633207e+00
2.240130863368633207e+00
2.245756035035248566e+00
2.245756035035248566e+00
2.245756035035248566e+00
2.245756035035248566e+00
2.252131229590746742e+00
2.252131229590746742e+00
2.252131229590746742e+00
2.110189397869807859e+00
2.110189397869807859e+00
2.110189397869807859e+00
2.270506790368358452e+00
2.270506790368358452e+00
2.270506790368358452e+00
2.270506790368358452e+00
2.470200384533219218e+00
2.470200384533219218e+00
2.470200384533219218e+00
2.285132236701559627e+00
2.285132236701559627e+00
2.285132236701559627e+00
2.255318826868495830e+00
2.255318826868495830e+00
2.255318826868495830e+00
2.255318826868495830e+00
2.247818597979674760e+00
2.247818597979674760e+00
2.247818597979674760e+00
2.231505600146489243e+00
2.231505600146489243e+00
2.231505600146489243e+00
2.255506332590716312e+00
2.255506332590716312e+00
2.255506332590716312e+00
2.255506332590716312e+00
2.313070589312418157e+00
2.313070589312418157e+00
2.313070589312418157e+00
2.358821985534226506e+00
2.358821985534226506e+00
2.358821985534226506e+00
2.257943906979583026e+00
2.257943906979583026e+00
2.257943906979583026e+00
2.257943906979583026e+00
2.243880977813043742e+00
2.243880977813043742e+00
2.243880977813043742e+00
2.260756492812891150e+00
2.260756492812891150e+00
2.260756492812891150e+00
2.200942167424543072e+00
2.200942167424543072e+00
2.200942167424543072e+00
2.200942167424543072e+00
2.108501846369823074e+00
2.108501846369823074e+00
2.108501846369823074e+00
2.398385692922757606e+00
2.398385692922757606e+00
2.398385692922757606e+00
2.409448530533769173e+00
2.409448530533769173e+00
2.409448530533769173e+00
2.409448530533769173e+00
2.265256630146183614e+00
2.265256630146183614e+00
2.265256630146183614e+00
2.257943906979583026e+00
2.257943906979583026e+00
2.257943906979583026e+00
2.247818597979674760e+00
2.247818597979674760e+00
2.247818597979674760e+00
2.247818597979674760e+00
2.249318643757439062e+00
2.249318643757439062e+00
2.249318643757439062e+00
2.277632007812738557e+00
2.277632007812738557e+00
2.277632007812738557e+00
2.367259743034150432e+00
2.367259743034150432e+00
2.367259743034150432e+00
2.367259743034150432e+00
2.325070955534531691e+00
2.325070955534531691e+00
2.325070955534531691e+00
2.258131412701803509e+00
2.258131412701803509e+00
2.258131412701803509e+00
2.236380748924222672e+00
2.236380748924222672e+00
2.236380748924222672e+00
2.236380748924222672e+00
2.259256447035126847e+00
2.259256447035126847e+00
2.259256447035126847e+00
2.155190771202734279e+00
2.155190771202734279e+00
2.155190771202734279e+00
2.115814569536424106e+00
2.115814569536424106e+00
2.115814569536424106e+00
2.115814569536424106e+00
2.502263863032929692e+00
2.502263863032929692e+00
2.502263863032929692e+00
2.342133976256599581e+00
2.342133976256599581e+00
2.342133976256599581e+00
2.261506515701773079e+00
2.261506515701773079e+00
2.261506515701773079e+00
2.261506515701773079e+00
2.252881252479629115e+00
2.252881252479629115e+00
2.252881252479629115e+00
2.232818140202032620e+00
2.232818140202032620e+00
2.232818140202032620e+00
2.232818140202032620e+00
2.240880886257515137e+00
2.240880886257515137e+00
2.240880886257515137e+00
2.259443952757347329e+00
2.259443952757347329e+00
2.259443952757347329e+00
2.400073244422742391e+00
2.400073244422742391e+00
2.400073244422742391e+00
2.270506790368358452e+00
2.270506790368358452e+00
2.270506790368358452e+00
2.244068483535264225e+00
2.244068483535264225e+00
2.244068483535264225e+00
2.244068483535264225e+00
2.245006012146367080e+00
2.245006012146367080e+00
2.245006012146367080e+00
2.275194433423871843e+00
2.275194433423871843e+00
2.275194433423871843e+00
2.122564775536362802e+00
2.122564775536362802e+00
2.122564775536362802e+00
2.122564775536362802e+00
2.209754936368907963e+00
2.209754936368907963e+00
2.209754936368907963e+00
2.504326425977354997e+00
2.504326425977354997e+00
2.504326425977354997e+00
2.504326425977354997e+00
2.310070497756889552e+00
2.310070497756889552e+00
2.310070497756889552e+00
2.256443861201819168e+00
2.256443861201819168e+00
2.256443861201819168e+00
2.245006012146367080e+00
2.245006012146367080e+00
2.245006012146367080e+00
2.245006012146367080e+00
2.226255439924313961e+00
2.226255439924313961e+00
2.226255439924313961e+00
2.246506057924130939e+00
2.246506057924130939e+00
2.246506057924130939e+00
2.275569444868312807e+00
2.275569444868312807e+00
2.275569444868312807e+00
2.275569444868312807e+00
2.375134983367412023e+00
2.375134983367412023e+00
2.375134983367412023e+00
2.247631092257453833e+00
2.247631092257453833e+00
2.247631092257453833e+00
2.234693197424237443e+00
2.234693197424237443e+00
2.234693197424237443e+00
2.234693197424237443e+00
2.257193884090700653e+00
2.257193884090700653e+00
2.257193884090700653e+00
2.244068483535264225e+00
2.244068483535264225e+00
2.244068483535264225e+00
2.127064912869655711e+00
2.127064912869655711e+00
2.127064912869655711e+00
2.127064912869655711e+00
2.334821253089998994e+00
2.334821253089998994e+00
2.334821253089998994e+00
2.438886928922391562e+00
2.438886928922391562e+00
2.438886928922391562e+00
2.270506790368358452e+00
2.270506790368358452e+00
2.270506790368358452e+00
2.270506790368358452e+00
2.263944090090640238e+00
2.263944090090640238e+00
2.263944090090640238e+00
2.246318552201910457e+00
2.246318552201910457e+00
2.246318552201910457e+00
2.246318552201910457e+00
2.242755943479720404e+00
2.242755943479720404e+00
2.242755943479720404e+00
2.260943998535111632e+00
2.260943998535111632e+00
2.260943998535111632e+00
2.331071138645588459e+00
2.331071138645588459e+00
2.331071138645588459e+00
2.331071138645588459e+00
2.345696584978789634e+00
2.345696584978789634e+00
2.345696584978789634e+00
2.256443861201819168e+00
2.256443861201819168e+00
2.256443861201819168e+00
2.230755577257606870e+00
2.230755577257606870e+00
2.230755577257606870e+00
2.261694021423993561e+00
2.261694021423993561e+00
2.261694021423993561e+00
2.261694021423993561e+00
2.184629169591357556e+00
2.184629169591357556e+00
2.107564317758720662e+00
2.107564317758720662e+00
2.107564317758720662e+00
2.441512009033478758e+00
2.441512009033478758e+00
2.441512009033478758e+00
2.441512009033478758e+00
2.366884731589709023e+00
2.366884731589709023e+00
2.366884731589709023e+00
2.263756584368419311e+00
2.263756584368419311e+00
2.263756584368419311e+00
2.263756584368419311e+00
2.260381481368449741e+00
2.260381481368449741e+00
2.260381481368449741e+00
2.237505783257545566e+00
2.237505783257545566e+00
2.237505783257545566e+00
2.240505874813074172e+00
2.240505874813074172e+00
2.240505874813074172e+00
2.240505874813074172e+00
2.281569627979369130e+00
2.281569627979369130e+00
2.281569627979369130e+00
2.386385326700643628e+00
2.386385326700643628e+00
2.386385326700643628e+00
2.306695394756919981e+00
2.306695394756919981e+00
2.306695394756919981e+00
2.306695394756919981e+00
2.253068758201849597e+00
2.253068758201849597e+00
2.253068758201849597e+00
2.236005737479781263e+00
2.236005737479781263e+00
2.236005737479781263e+00
2.264694112979522167e+00
2.264694112979522167e+00
2.264694112979522167e+00
2.264694112979522167e+00
2.136065187536240639e+00
2.136065187536240639e+00
2.136065187536240639e+00
2.140565324869533104e+00
2.140565324869533104e+00
2.140565324869533104e+00
2.530577227088229186e+00
2.530577227088229186e+00
2.530577227088229186e+00
2.530577227088229186e+00
2.322070863979003530e+00
2.322070863979003530e+00
2.322070863979003530e+00
2.256068849757378203e+00
2.256068849757378203e+00
2.256068849757378203e+00
2.245943540757469048e+00
2.245943540757469048e+00
2.245943540757469048e+00
2.245943540757469048e+00
2.219317728202154782e+00
2.219317728202154782e+00
2.219317728202154782e+00
2.243693472090823260e+00
2.243693472090823260e+00
2.243693472090823260e+00
2.262819055757316900e+00
2.262819055757316900e+00
2.262819055757316900e+00
2.262819055757316900e+00
2.397635670033875677e+00
2.397635670033875677e+00
2.397635670033875677e+00
2.257756401257362544e+00
2.257756401257362544e+00
2.257756401257362544e+00
2.235255714590899334e+00
2.235255714590899334e+00
2.238630817590868904e+00
2.238630817590868904e+00
2.257568895535142062e+00
2.257568895535142062e+00
2.115814569536424106e+00
2.115814569536424106e+00
2.261319009979552597e+00
2.261319009979552597e+00
2.483325785088656090e+00
2.483325785088656090e+00
2.271819330423901828e+00
2.271819330423901828e+00
2.256818872646260132e+00
2.256818872646260132e+00
2.256818872646260132e+00
2.249693655201880027e+00
2.249693655201880027e+00
2.243318460646382295e+00
2.243318460646382295e+00
2.278194524979400004e+00
2.278194524979400004e+00
2.330321115756706529e+00
2.330321115756706529e+00
2.387510361033966966e+00
2.387510361033966966e+00
2.266944181646168399e+00
2.266944181646168399e+00
2.252881252479629115e+00
2.252881252479629115e+00
2.256818872646260132e+00
2.256818872646260132e+00
2.256818872646260132e+00
2.208254890591143660e+00
2.208254890591143660e+00
2.100814111758781966e+00
2.100814111758781966e+00
2.347946653645436310e+00
2.347946653645436310e+00
2.391635486922818910e+00
2.391635486922818910e+00
2.248943632312997654e+00
2.248943632312997654e+00
2.245943540757469048e+00
2.245943540757469048e+00
2.226067934202093479e+00
2.226067934202093479e+00
2.235818231757560781e+00
2.235818231757560781e+00
2.270319284646137969e+00
2.270319284646137969e+00
2.352634296700948813e+00
2.352634296700948813e+00
2.352634296700948813e+00
2.326571001312295994e+00
2.326571001312295994e+00
2.249131138035218136e+00
2.249131138035218136e+00
2.244443494979705633e+00
2.244443494979705633e+00
2.273319376201666131e+00
2.273319376201666131e+00
2.169816217535935454e+00
2.169816217535935454e+00
2.110564409314249268e+00
2.110564409314249268e+00
2.488950956755272337e+00
2.488950956755272337e+00
2.318133243812372069e+00
2.318133243812372069e+00
2.318133243812372069e+00
2.210879970702230857e+00
2.210879970702230857e+00
2.202442213202307375e+00
2.202442213202307375e+00
2.182379100924710880e+00
2.182379100924710880e+00
2.202442213202307375e+00
2.202442213202307375e+00
2.231505600146489243e+00
2.231505600146489243e+00
2.350384228034303025e+00
2.350384228034303025e+00
2.254006286812952009e+00
2.254006286812952009e+00
2.183504135258034218e+00
2.183504135258034218e+00
2.183504135258034218e+00
2.177503952146977007e+00
2.177503952146977007e+00
2.233193151646474028e+00
2.233193151646474028e+00
2.092563859981078966e+00
2.092563859981078966e+00
2.147128025147251762e+00
2.147128025147251762e+00
2.488575945310831372e+00
2.488575945310831372e+00
2.283819696646015807e+00
2.283819696646015807e+00
2.209567430646687480e+00
2.209567430646687480e+00
2.198129581591235393e+00
2.198129581591235393e+00
2.198129581591235393e+00
2.228880520035401602e+00
2.228880520035401602e+00
2.283632190923795324e+00
2.283632190923795324e+00
2.329571092867824156e+00
2.329571092867824156e+00
2.464012695699941968e+00
2.464012695699941968e+00
2.346821619312112972e+00
2.346821619312112972e+00
2.324883449812311209e+00
2.324883449812311209e+00
2.350946745200964472e+00
2.350946745200964472e+00
2.342508987701040546e+00
2.342508987701040546e+00
2.207692373424482213e+00
2.207692373424482213e+00
2.207692373424482213e+00
2.405885921811578676e+00
2.405885921811578676e+00
2.548202764976958523e+00
2.548202764976958523e+00
2.330883632923367976e+00
2.330883632923367976e+00
2.265819147312845505e+00
2.265819147312845505e+00
2.235068208868678852e+00
2.235068208868678852e+00
2.217442670979949515e+00
2.217442670979949515e+00
2.238818323313089387e+00
2.238818323313089387e+00
2.298820154423657947e+00
2.298820154423657947e+00
2.319820795312356854e+00
2.319820795312356854e+00
2.319820795312356854e+00
2.227192968535416817e+00
2.227192968535416817e+00
2.200004638813440216e+00
2.200004638813440216e+00
2.211442487868892304e+00
2.211442487868892304e+00
2.162503494369335311e+00
2.162503494369335311e+00
2.107189306314279698e+00
2.107189306314279698e+00
2.440386974700155864e+00
2.440386974700155864e+00
2.426886562700277583e+00
2.426886562700277583e+00
2.293382488479262626e+00
2.293382488479262626e+00
2.293382488479262626e+00
2.282882168034912951e+00
2.282882168034912951e+00
2.272756859035004684e+00
2.272756859035004684e+00
2.294320017090365038e+00
2.294320017090365038e+00
2.316820703756828248e+00
2.316820703756828248e+00
2.405698416089358194e+00
2.405698416089358194e+00
2.333883724478896582e+00
2.333883724478896582e+00
2.237130771813104602e+00
2.237130771813104602e+00
2.211254982146671821e+00
2.211254982146671821e+00
2.211254982146671821e+00
2.226630451368755370e+00
2.226630451368755370e+00
2.099689077425458628e+00
2.099689077425458628e+00
2.091626331369976111e+00
2.091626331369976111e+00
2.471887936033204003e+00
2.471887936033204003e+00
2.285319742423780109e+00
2.285319742423780109e+00
2.214255073702200427e+00
2.214255073702200427e+00
2.223442854091006282e+00
2.223442854091006282e+00
2.226442945646534444e+00
2.226442945646534444e+00
2.226442945646534444e+00
2.270319284646137969e+00
2.270319284646137969e+00
2.306882900479140464e+00
2.306882900479140464e+00
2.467575304422132465e+00
2.467575304422132465e+00
2.354134342478713116e+00
2.354134342478713116e+00
2.314570635090182460e+00
2.314570635090182460e+00
2.277069490646077110e+00
2.277069490646077110e+00
2.291882442701498768e+00
2.291882442701498768e+00
2.152940702536088047e+00
2.152940702536088047e+00
2.251006195257423848e+00
2.251006195257423848e+00
2.251006195257423848e+00
2.510889126255073656e+00
2.510889126255073656e+00
2.304257820368053267e+00
2.304257820368053267e+00
2.281194616534928166e+00
2.281194616534928166e+00
2.268631733146153184e+00
2.268631733146153184e+00
2.262631550035096417e+00
2.262631550035096417e+00
2.284007202368236289e+00
2.284007202368236289e+00
2.307820429090243319e+00
2.307820429090243319e+00
2.388260383922848895e+00
2.388260383922848895e+00
2.255506332590716312e+00
2.255506332590716312e+00
2.255506332590716312e+00
2.245381023590808045e+00
2.245381023590808045e+00
2.271631824701681346e+00
2.271631824701681346e+00
2.238443311868648422e+00
2.238443311868648422e+00
2.115627063814203623e+00
2.115627063814203623e+00
2.319820795312356854e+00
2.319820795312356854e+00
2.376072511978514878e+00
2.376072511978514878e+00
2.198504593035676358e+00
2.198504593035676358e+00
2.201879696035645484e+00
2.201879696035645484e+00
2.180691549424726094e+00
2.180691549424726094e+00
2.180691549424726094e+00
2.196067018646809643e+00
2.196067018646809643e+00
2.252131229590746742e+00
2.252131229590746742e+00
2.330133610034486047e+00
2.330133610034486047e+00
2.324320932645649762e+00
2.324320932645649762e+00
2.250631183812982439e+00
2.250631183812982439e+00
2.234130680257575996e+00
2.234130680257575996e+00
2.261694021423993561e+00
2.261694021423993561e+00
2.183316629535813735e+00
2.183316629535813735e+00
2.183316629535813735e+00
2.131002533036286284e+00
2.131002533036286284e+00
2.479575670644245999e+00
2.479575670644245999e+00
2.352259285256507848e+00
2.352259285256507848e+00
2.253443769646290562e+00
2.253443769646290562e+00
2.249318643757439062e+00
2.249318643757439062e+00
2.227942991424298746e+00
2.227942991424298746e+00
2.231318094424268317e+00
2.231318094424268317e+00
2.247631092257453833e+00
2.247631092257453833e+00
2.247631092257453833e+00
2.373634937589648164e+00
2.373634937589648164e+00
2.282882168034912951e+00
2.282882168034912951e+00
2.260381481368449741e+00
2.260381481368449741e+00
2.263006561479537382e+00
2.263006561479537382e+00
2.296195074312570750e+00
2.296195074312570750e+00
2.158753379924924776e+00
2.158753379924924776e+00
2.185379192480239485e+00
2.185379192480239485e+00
2.520639423810540958e+00
2.520639423810540958e+00
2.330696127201147494e+00
2.330696127201147494e+00
2.330696127201147494e+00
2.264506607257301685e+00
2.264506607257301685e+00
2.284757225257118218e+00
2.284757225257118218e+00
2.262444044312875935e+00
2.262444044312875935e+00
2.254381298257393418e+00
2.254381298257393418e+00
2.282319650868251504e+00
2.282319650868251504e+00
2.384697775200659287e+00
2.384697775200659287e+00
2.247818597979674760e+00
2.247818597979674760e+00
2.227942991424298746e+00
2.227942991424298746e+00
2.247256080813012868e+00
2.247256080813012868e+00
2.263944090090640238e+00
2.263944090090640238e+00
2.263944090090640238e+00
2.135315164647358710e+00
2.135315164647358710e+00
2.313445600756859122e+00
2.313445600756859122e+00
2.540515030365916971e+00
2.540515030365916971e+00
2.351509262367625919e+00
2.351509262367625919e+00
2.292069948423719250e+00
2.292069948423719250e+00
2.218942716757713818e+00
2.218942716757713818e+00
2.179003997924741309e+00
2.179003997924741309e+00
2.177316446424756524e+00
2.177316446424756524e+00
2.202254707480086449e+00
2.202254707480086449e+00
2.202254707480086449e+00
2.261881527146214044e+00
2.261881527146214044e+00
2.176566423535874595e+00
2.176566423535874595e+00
2.176566423535874595e+00
2.176566423535874595e+00
2.202254707480086449e+00
2.202254707480086449e+00
2.164753563035981099e+00
2.164753563035981099e+00
2.093501388592180934e+00
2.093501388592180934e+00
2.397823175756096159e+00
2.397823175756096159e+00
2.417136265144810281e+00
2.417136265144810281e+00
2.287944822534867306e+00
2.287944822534867306e+00
2.287944822534867306e+00
2.301445234534745587e+00
2.301445234534745587e+00
2.299945188756981285e+00
2.299945188756981285e+00
2.284569719534897736e+00
2.284569719534897736e+00
2.327508529923398850e+00
2.327508529923398850e+00
2.461762627033295736e+00
2.461762627033295736e+00
2.434574297311319135e+00
2.434574297311319135e+00
2.328821069978942226e+00
2.328821069978942226e+00
2.233380657368694511e+00
2.233380657368694511e+00
2.233380657368694511e+00
2.177128940702536042e+00
2.177128940702536042e+00
2.012123905148472502e+00
2.012123905148472502e+00
2.016811548203985893e+00
2.016811548203985893e+00
2.479200659199805035e+00
2.479200659199805035e+00
2.355821893978697901e+00
2.355821893978697901e+00
2.270319284646137969e+00
2.270319284646137969e+00
2.255131321146275347e+00
2.255131321146275347e+00
2.255131321146275347e+00
2.241255897701956545e+00
2.241255897701956545e+00
2.249693655201880027e+00
2.249693655201880027e+00
2.271444318979460864e+00
2.271444318979460864e+00
2.418073793755913137e+00
2.418073793755913137e+00
2.321320841090121156e+00
2.321320841090121156e+00
2.274256904812768987e+00
2.274256904812768987e+00
2.266194158757286470e+00
2.266194158757286470e+00
2.370447340311899076e+00
2.370447340311899076e+00
2.266194158757286470e+00
2.266194158757286470e+00
2.297882625812555535e+00
2.297882625812555535e+00
2.297882625812555535e+00
2.554015442365794808e+00
2.554015442365794808e+00
2.286257271034882521e+00
2.286257271034882521e+00
2.204692281868953607e+00
2.204692281868953607e+00
2.152003173924985191e+00
2.152003173924985191e+00
2.143190404980620745e+00
2.143190404980620745e+00
2.173378826258125951e+00
2.173378826258125951e+00
2.199629627368999252e+00
2.199629627368999252e+00
2.311195532090212890e+00
2.311195532090212890e+00
2.311195532090212890e+00
2.188566789757988129e+00
2.188566789757988129e+00
2.208067384868923178e+00
2.208067384868923178e+00
2.267131687368389326e+00
2.267131687368389326e+00
2.290944914090395912e+00
2.290944914090395912e+00
2.212005005035553751e+00
2.212005005035553751e+00
2.436074343089083438e+00
2.436074343089083438e+00
2.520826929532761884e+00
2.520826929532761884e+00
2.273506881923887057e+00
2.273506881923887057e+00
2.273506881923887057e+00
2.209004913480026033e+00
2.209004913480026033e+00
2.155753288369396170e+00
2.155753288369396170e+00
2.151253151036103706e+00
2.151253151036103706e+00
2.196067018646809643e+00
2.196067018646809643e+00
2.288319833979308715e+00
2.288319833979308715e+00
2.302570268868068482e+00
2.302570268868068482e+00
2.209754936368907963e+00
2.209754936368907963e+00
2.226630451368755370e+00
2.226630451368755370e+00
2.282882168034912951e+00
2.282882168034912951e+00
2.282882168034912951e+00
2.259068941312906365e+00
2.259068941312906365e+00
2.203754753257850751e+00
2.203754753257850751e+00
2.527952146977141545e+00
2.527952146977141545e+00
2.433449262977995797e+00
2.433449262977995797e+00
2.306320383312479017e+00
2.306320383312479017e+00
2.246131046479689974e+00
2.246131046479689974e+00
2.151253151036103706e+00
2.151253151036103706e+00
2.088438734092227023e+00
2.088438734092227023e+00
2.088438734092227023e+00
2.109251869258705447e+00
2.109251869258705447e+00
2.218567705313272853e+00
2.218567705313272853e+00
2.144315439313944083e+00
2.144315439313944083e+00
2.090688802758873255e+00
2.090688802758873255e+00
2.134190130314035372e+00
2.134190130314035372e+00
2.223255348368785356e+00
2.223255348368785356e+00
2.086563676870021755e+00
2.086563676870021755e+00
2.099876583147679110e+00
2.099876583147679110e+00
2.513326700643940814e+00
2.513326700643940814e+00
2.513326700643940814e+00
2.346259102145451525e+00
2.346259102145451525e+00
2.307632923368022837e+00
2.307632923368022837e+00
2.303320291756950855e+00
2.303320291756950855e+00
2.302757774590289408e+00
2.302757774590289408e+00
2.329946104312265120e+00
2.329946104312265120e+00
2.365947202978606612e+00
2.365947202978606612e+00
2.499076265755180604e+00
2.499076265755180604e+00
2.447512192144535526e+00
2.447512192144535526e+00
2.440386974700155864e+00
2.440386974700155864e+00
2.388822901089510786e+00
2.388822901089510786e+00
2.388822901089510786e+00
2.388072878200628413e+00
2.388072878200628413e+00
2.259068941312906365e+00
2.259068941312906365e+00
2.443762077700125435e+00
2.443762077700125435e+00
2.585141392254402426e+00
2.585141392254402426e+00
2.301257728812525105e+00
2.301257728812525105e+00
2.245381023590808045e+00
2.245381023590808045e+00
2.245568529313028083e+00
2.245568529313028083e+00
2.248568620868556689e+00
2.248568620868556689e+00
2.248568620868556689e+00
2.271444318979460864e+00
2.271444318979460864e+00
2.346259102145451525e+00
2.346259102145451525e+00
2.403073335978270997e+00
2.403073335978270997e+00
2.230193060090945423e+00
2.230193060090945423e+00
2.157440839869380955e+00
2.157440839869380955e+00
2.117314615314187964e+00
2.117314615314187964e+00
2.064438001647999510e+00
2.064438001647999510e+00
2.021874202703940249e+00
2.021874202703940249e+00
2.318883266701254442e+00
2.318883266701254442e+00
2.318883266701254442e+00
2.388447889645069822e+00
2.388447889645069822e+00
2.221567796868801015e+00
2.221567796868801015e+00
2.208254890591143660e+00
2.208254890591143660e+00
2.177316446424756524e+00
2.177316446424756524e+00
2.221942808313242423e+00
2.221942808313242423e+00
2.286444776757103448e+00
2.286444776757103448e+00
2.386010315256203107e+00
2.386010315256203107e+00
2.336883816034425188e+00
2.336883816034425188e+00
2.246881069368571904e+00
2.246881069368571904e+00
2.239193334757530351e+00
2.239193334757530351e+00
2.253443769646290562e+00
2.253443769646290562e+00
2.141690359202856442e+00
2.141690359202856442e+00
2.141690359202856442e+00
2.094438917203283790e+00
2.094438917203283790e+00
2.503201391644032547e+00
2.503201391644032547e+00
2.392760521256141804e+00
2.392760521256141804e+00
2.309132969145787140e+00
2.309132969145787140e+00
2.253443769646290562e+00
2.253443769646290562e+00
2.185379192480239485e+00
2.185379192480239485e+00
2.242943449201941331e+00
2.242943449201941331e+00
2.292069948423719250e+00
2.292069948423719250e+00
2.292069948423719250e+00
2.376822534867396808e+00
2.376822534867396808e+00
2.188754295480208611e+00
2.188754295480208611e+00
2.087501205481124167e+00
2.087501205481124167e+00
2.080375988036744506e+00
2.080375988036744506e+00
2.122377269814142320e+00
2.122377269814142320e+00
1.996185918759727951e+00
1.996185918759727951e+00
2.106064271980956359e+00
2.106064271980956359e+00
2.418448805200354101e+00
2.418448805200354101e+00
2.418448805200354101e+00
2.153878231147190458e+00
2.153878231147190458e+00
2.041937314981536300e+00
2.041937314981536300e+00
1.981185460982085589e+00
1.981185460982085589e+00
1.977810357982116241e+00
1.977810357982116241e+00
2.028811914426099428e+00
2.028811914426099428e+00
2.137190221869563977e+00
2.137190221869563977e+00
2.455949949644459451e+00
2.455949949644459451e+00
2.414886196478164049e+00
2.414886196478164049e+00
2.500013794366283459e+00
2.500013794366283459e+00
2.500013794366283459e+00
2.629955259865108363e+00
2.629955259865108363e+00
2.606517044587542742e+00
2.606517044587542742e+00
2.363697134311959935e+00
2.363697134311959935e+00
2.498701254310739639e+00
2.498701254310739639e+00
2.633142857142857007e+00
2.633142857142857007e+00
2.428949125644703777e+00
2.428949125644703777e+00
2.413761162144840711e+00
2.413761162144840711e+00
2.386947843867305519e+00
2.386947843867305519e+00
2.386947843867305519e+00
2.354696859645375007e+00
2.354696859645375007e+00
2.351134250923184954e+00
2.351134250923184954e+00
2.385635303811762142e+00
2.385635303811762142e+00
2.381510177922910199e+00
2.381510177922910199e+00
2.297882625812555535e+00
2.297882625812555535e+00
2.306882900479140464e+00
2.306882900479140464e+00
2.266194158757286470e+00
2.266194158757286470e+00
2.133065095980712478e+00
2.133065095980712478e+00
2.012498916592913467e+00
2.012498916592913467e+00
2.012498916592913467e+00
2.334446241645558029e+00
2.334446241645558029e+00
2.320945829645680192e+00
2.320945829645680192e+00
2.227192968535416817e+00
2.227192968535416817e+00
2.295445051423688376e+00
2.295445051423688376e+00
2.269194250312814631e+00
2.269194250312814631e+00
2.213880062257759462e+00
2.213880062257759462e+00
2.174503860591448845e+00
2.174503860591448845e+00
2.253256263924070080e+00
2.253256263924070080e+00
2.253256263924070080e+00
2.163253517258217240e+00
2.163253517258217240e+00
2.049250038148136888e+00
2.049250038148136888e+00
2.043249855037080120e+00
2.043249855037080120e+00
2.154815759758293314e+00
2.154815759758293314e+00
2.162315988647114828e+00
2.162315988647114828e+00
2.199254615924558287e+00
2.199254615924558287e+00
2.582516312143315229e+00
2.582516312143315229e+00
2.367259743034150432e+00
2.367259743034150432e+00
2.166816125980407293e+00
2.166816125980407293e+00
2.166816125980407293e+00
2.156690816980498582e+00
2.156690816980498582e+00
2.184629169591357556e+00
2.184629169591357556e+00
2.283444685201574842e+00
2.283444685201574842e+00
2.393510544145024177e+00
2.393510544145024177e+00
2.473762993255409270e+00
2.473762993255409270e+00
2.183504135258034218e+00
2.183504135258034218e+00
2.091251319925535146e+00
2.091251319925535146e+00
2.048875026703695923e+00
2.048875026703695923e+00
2.048875026703695923e+00
2.064250495925779028e+00
2.064250495925779028e+00
1.923621204260383966e+00
1.923621204260383966e+00
2.125564867091891408e+00
2.125564867091891408e+00
2.464762718588824342e+00
2.464762718588824342e+00
2.289632374034852091e+00
2.289632374034852091e+00
2.329758598590044638e+00
2.329758598590044638e+00
2.358259468367565059e+00
2.358259468367565059e+00
2.367822260200811879e+00
2.367822260200811879e+00
2.367822260200811879e+00
2.344571550645466296e+00
2.344571550645466296e+00
2.329571092867824156e+00
2.329571092867824156e+00
2.427636585589159957e+00
2.427636585589159957e+00
2.267694204535050773e+00
2.267694204535050773e+00
2.128939970091860534e+00
2.128939970091860534e+00
2.096688985869930022e+00
2.096688985869930022e+00
2.090876308481094181e+00
2.090876308481094181e+00
2.105689260536515395e+00
2.105689260536515395e+00
2.431199194311350009e+00
2.431199194311350009e+00
2.431199194311350009e+00
2.546140202032532773e+00
2.546140202032532773e+00
2.346634113589892490e+00
2.346634113589892490e+00
2.317570726645710621e+00
2.317570726645710621e+00
2.353571825312051669e+00
2.353571825312051669e+00
2.379072603534043484e+00
2.379072603534043484e+00
2.454074892422254184e+00
2.454074892422254184e+00
2.509014069032868388e+00
2.509014069032868388e+00
2.471325418866542556e+00
2.471325418866542556e+00
2.471325418866542556e+00
2.439449446089053009e+00
2.439449446089053009e+00
2.420323862422559369e+00
2.420323862422559369e+00
2.390510452589495571e+00
2.390510452589495571e+00
2.204317270424512643e+00
2.204317270424512643e+00
1.983810541093173230e+00
1.983810541093173230e+00
2.290382396923734465e+00
2.290382396923734465e+00
2.150128116702780368e+00
2.150128116702780368e+00
2.150128116702780368e+00
2.047374980925931620e+00
2.047374980925931620e+00
2.126127384258552855e+00
2.126127384258552855e+00
2.215755119479964730e+00
2.215755119479964730e+00
2.420511368144779851e+00
2.420511368144779851e+00
2.594329172643208281e+00
2.594329172643208281e+00
2.583828852198858606e+00
2.583828852198858606e+00
2.323008392590105942e+00
2.323008392590105942e+00
2.190816858424634361e+00
2.190816858424634361e+00
2.151440656758324188e+00
2.151440656758324188e+00
2.151440656758324188e+00
2.191004364146854844e+00
2.191004364146854844e+00
2.023374248481704107e+00
2.023374248481704107e+00
2.016436536759544484e+00
2.016436536759544484e+00
2.341383953367717208e+00
2.341383953367717208e+00
2.092751365703299449e+00
2.092751365703299449e+00
1.944809350871303355e+00
1.944809350871303355e+00
1.989998229926450479e+00
1.989998229926450479e+00
2.003311136204107612e+00
2.003311136204107612e+00
2.003311136204107612e+00
2.047749992370372585e+00
2.047749992370372585e+00
2.047937498092593067e+00
2.047937498092593067e+00
2.220630268257698603e+00
2.220630268257698603e+00
2.225505417035432032e+00
2.225505417035432032e+00
2.307632923368022837e+00
2.307632923368022837e+00
2.455949949644459451e+00
2.455949949644459451e+00
2.601641895809808869e+00
2.601641895809808869e+00
2.504701437421796406e+00
2.504701437421796406e+00
2.504701437421796406e+00
2.611579699087496653e+00
2.611579699087496653e+00
2.750333933530686004e+00
2.750333933530686004e+00
2.473950498977630197e+00
2.473950498977630197e+00
2.431386700033570492e+00
2.431386700033570492e+00
2.326758507034516477e+00
2.326758507034516477e+00
2.211254982146671821e+00
2.211254982146671821e+00
2.120689718314157535e+00
2.120689718314157535e+00
2.031436994537187068e+00
2.031436994537187068e+00
2.043249855037080120e+00
2.043249855037080120e+00
2.043249855037080120e+00
2.084126102481154597e+00
2.084126102481154597e+00
2.205629810480056463e+00
2.205629810480056463e+00
2.196817041535691573e+00
2.196817041535691573e+00
2.082438550981169811e+00
2.082438550981169811e+00
2.023374248481704107e+00
2.023374248481704107e+00
2.468512833033234433e+00
2.468512833033234433e+00
2.552515396588030505e+00
2.552515396588030505e+00
2.372697408978545752e+00
2.372697408978545752e+00
2.372697408978545752e+00
2.331446150090029423e+00
2.331446150090029423e+00
2.305195348979155678e+00
2.305195348979155678e+00
2.229068025757622085e+00
2.229068025757622085e+00
2.076250862147892562e+00
2.076250862147892562e+00
1.863806878872035888e+00
1.863806878872035888e+00
1.802117496261482765e+00
1.802117496261482765e+00
1.742865688039796135e+00
1.742865688039796135e+00
1.748865871150853124e+00
1.748865871150853124e+00
1.748865871150853124e+00
1.923058687093722297e+00
1.923058687093722297e+00
2.031624500259407551e+00
2.031624500259407551e+00
2.128377452925199087e+00
2.128377452925199087e+00
2.726333201086458935e+00
2.726333201086458935e+00
2.781459883419294066e+00
2.781459883419294066e+00
2.662581255531479840e+00
2.662581255531479840e+00
2.627142674031800240e+00
2.627142674031800240e+00
2.597329264198736443e+00
2.597329264198736443e+00
2.597329264198736443e+00
2.528327158421582510e+00
2.528327158421582510e+00
2.562265694143497807e+00
2.562265694143497807e+00
2.692582171086764120e+00
2.692582171086764120e+00
2.487825922421948999e+00
2.377010040589617734e+00
2.377010040589617734e+00
2.341946470534379099e+00
2.341946470534379099e+00
2.326008484145634547e+00
2.326008484145634547e+00
2.044374889370403459e+00
2.044374889370403459e+00
2.044374889370403459e+00
2.149940610980559885e+00
2.149940610980559885e+00
2.495326151310770069e+00
2.495326151310770069e+00
2.408135990478225352e+00
2.408135990478225352e+00
2.345509079256569152e+00
2.345509079256569152e+00
2.050000061037018817e+00
2.050000061037018817e+00
1.828930814539017957e+00
1.828930814539017957e+00
1.916308481093783378e+00
1.916308481093783378e+00
1.906183172093875111e+00
1.906183172093875111e+00
1.906183172093875111e+00
1.886495071260719580e+00
1.886495071260719580e+00
1.370291817987609351e+00
1.370291817987609351e+00
9.489664601580858339e-01
9.489664601580858339e-01
1.062594927823725222e+00
1.062594927823725222e+00
1.415480697042756475e+00
1.415480697042756475e+00
1.683238868373668762e+00
1.683238868373668762e+00
2.218567705313272853e+00
2.218567705313272853e+00
2.595454206976531619e+00
2.595454206976531619e+00
2.796272835474715723e+00
2.796272835474715723e+00
2.796272835474715723e+00
3.324663960692159748e+00
3.324663960692159748e+00
3.678112247077852448e+00
3.678112247077852448e+00
3.622985564745017761e+00
3.622985564745017761e+00
3.456855494857631328e+00
3.456855494857631328e+00
3.343414532914212423e+00
3.343414532914212423e+00
3.104157231360820113e+00
3.104157231360820113e+00
2.789522629474776583e+00
2.789522629474776583e+00
2.636517960142826578e+00
2.636517960142826578e+00
2.454262398144474666e+00
2.454262398144474666e+00
2.454262398144474666e+00
2.000498550370799933e+00
2.000498550370799933e+00
1.597173741874446939e+00
1.597173741874446939e+00
1.749615894039735275e+00
1.749615894039735275e+00
1.578798181096835229e+00
1.578798181096835229e+00
1.354353831598864799e+00
1.354353831598864799e+00
1.388104861598559614e+00
1.388104861598559614e+00
1.731990356151005717e+00
1.731990356151005717e+00
2.154065736869411385e+00
2.154065736869411385e+00
2.549890316476943308e+00
2.549890316476943308e+00
3.004591692861720897e+00
3.004591692861720897e+00
2.998591509750663686e+00
2.998591509750663686e+00
2.819336039307840380e+00
2.819336039307840380e+00
2.546140202032532773e+00
2.546140202032532773e+00
2.546140202032532773e+00
2.396323129978331856e+00
2.396323129978331856e+00
2.195504501480147752e+00
2.195504501480147752e+00
1.983810541093173230e+00
1.983810541093173230e+00
2.290194891201513983e+00
2.290194891201513983e+00
2.093126377147739969e+00
2.093126377147739969e+00
1.938434156315805401e+00
1.938434156315805401e+00
1.721302529984435559e+00
1.721302529984435559e+00
1.644800195318460556e+00
1.644800195318460556e+00
1.644800195318460556e+00
1.691676625873592243e+00
1.691676625873592243e+00
1.800054933317056793e+00
1.800054933317056793e+00
2.088813745536667987e+00
2.088813745536667987e+00
2.215005096591082356e+00
2.215005096591082356e+00
2.396885647144993747e+00
2.396885647144993747e+00
2.647018280587176253e+00
2.647018280587176253e+00
2.831523911252174841e+00
2.831523911252174841e+00
2.809585741752372634e+00
2.809585741752372634e+00
2.809585741752372634e+00
2.985841120639667778e+00
2.985841120639667778e+00
3.086156682027649811e+00
3.086156682027649811e+00
2.679644276253547730e+00
2.679644276253547730e+00
2.554952970976897664e+00
2.554952970976897664e+00
2.431386700033570492e+00
2.431386700033570492e+00
2.347946653645436310e+00
2.347946653645436310e+00
2.294507522812585520e+00
2.294507522812585520e+00
2.230005554368724940e+00
2.230005554368724940e+00
2.085813653981139382e+00
2.085813653981139382e+00
2.085813653981139382e+00
1.813930356761375817e+00
1.813930356761375817e+00
1.680988799707022308e+00
1.680988799707022308e+00
1.684363902706991878e+00
1.684363902706991878e+00
1.722990081484420344e+00
1.722990081484420344e+00
1.782429395428327235e+00
1.782429395428327235e+00
2.292069948423719250e+00
2.292069948423719250e+00
2.546140202032532773e+00
2.546140202032532773e+00
2.467950315866573430e+00
2.467950315866573430e+00
2.467950315866573430e+00
2.362384594256416559e+00
2.362384594256416559e+00
2.171128757591479275e+00
2.171128757591479275e+00
1.984935575426496124e+00
1.984935575426496124e+00
1.863994384594256370e+00
1.863994384594256370e+00
1.860619281594287022e+00
1.860619281594287022e+00
1.933746513260292454e+00
1.933746513260292454e+00
2.105501754814294912e+00
2.105501754814294912e+00
2.420886379589221260e+00
2.420886379589221260e+00
2.731958372753074737e+00
2.731958372753074737e+00
2.731958372753074737e+00
2.907088717307046544e+00
2.907088717307046544e+00
2.872025147251808352e+00
2.872025147251808352e+00
3.092344370860927061e+00
3.092344370860927061e+00
2.698207342753379923e+00
2.698207342753379923e+00
2.356196905423139309e+00
2.356196905423139309e+00
2.188941801202429094e+00
2.188941801202429094e+00
1.977810357982116241e+00
1.977810357982116241e+00
1.920808618427076064e+00
1.920808618427076064e+00
1.920808618427076064e+00
1.927933835871455948e+00
1.927933835871455948e+00
1.983998046815393712e+00
1.983998046815393712e+00
1.986435621204260427e+00
1.986435621204260427e+00
2.199629627368999252e+00
2.199629627368999252e+00
2.464200201422162451e+00
2.464200201422162451e+00
2.724645649586474594e+00
2.724645649586474594e+00
2.590579058198797746e+00
2.590579058198797746e+00
2.553452925199133361e+00
2.553452925199133361e+00
2.553452925199133361e+00
2.639143040253914219e+00
2.639143040253914219e+00
2.096126468703268575e+00
2.096126468703268575e+00
1.489920468764305506e+00
1.489920468764305506e+00
1.146972502822962037e+00
1.146972502822962037e+00
1.014780968657490900e+00
1.014780968657490900e+00
1.156910306100650043e+00
1.156910306100650043e+00
1.451294289986877040e+00
1.451294289986877040e+00
2.095938962981048093e+00
2.095938962981048093e+00
2.095938962981048093e+00
2.552890408032471470e+00
2.552890408032471470e+00
3.069281167027802404e+00
3.069281167027802404e+00
3.347164647358623402e+00
3.347164647358623402e+00
3.367790276802880900e+00
3.367790276802880900e+00
3.145220984527115959e+00
3.145220984527115959e+00
2.991091280861842616e+00
2.991091280861842616e+00
2.893400799584948224e+00
2.893400799584948224e+00
2.551952879421369058e+00
2.551952879421369058e+00
2.342883999145481511e+00
2.342883999145481511e+00
2.342883999145481511e+00
2.283069673757133433e+00
2.283069673757133433e+00
2.283632190923795324e+00
2.283632190923795324e+00
2.439074434644612044e+00
2.439074434644612044e+00
2.684894436475722568e+00
2.684894436475722568e+00
2.746771324808496395e+00
2.746771324808496395e+00
2.538827478865932186e+00
2.538827478865932186e+00
2.314758140812402942e+00
2.314758140812402942e+00
2.180504043702505612e+00
2.180504043702505612e+00
2.180504043702505612e+00
1.928121341593676652e+00
1.928121341593676652e+00
1.632987334818567282e+00
1.632987334818567282e+00
1.907683217871639192e+00
1.907683217871639192e+00
1.838868617816705742e+00
1.838868617816705742e+00
1.648550309762871313e+00
1.648550309762871313e+00
1.576173100985747810e+00
1.576173100985747810e+00
1.705552049317911267e+00
1.705552049317911267e+00
1.879744865260780662e+00
1.879744865260780662e+00
1.879744865260780662e+00
2.068188116092410045e+00
2.068188116092410045e+00
2.321695852534562121e+00
2.321695852534562121e+00
2.416198736533707869e+00
2.416198736533707869e+00
2.705145054475539546e+00
2.705145054475539546e+00
2.927901852473524968e+00
2.927901852473524968e+00
2.949089999084444358e+00
2.949089999084444358e+00
2.767771965697195302e+00
2.767771965697195302e+00
2.746958830530716877e+00
2.746958830530716877e+00
3.046780480361339194e+00
3.046780480361339194e+00
3.046780480361339194e+00
2.575391094698934680e+00
2.575391094698934680e+00
2.218942716757713818e+00
2.218942716757713818e+00
1.981560472426526776e+00
1.981560472426526776e+00
1.962434888760032914e+00
1.962434888760032914e+00
2.031624500259407551e+00
2.031624500259407551e+00
2.106626789147617806e+00
2.106626789147617806e+00
2.167941160313730187e+00
2.167941160313730187e+00
1.815055391094698933e+00
1.815055391094698933e+00
1.815055391094698933e+00
1.779241798150578369e+00
1.779241798150578369e+00
1.849181432538834935e+00
1.849181432538834935e+00
1.911995849482711396e+00
1.911995849482711396e+00
1.954372142704550397e+00
1.954372142704550397e+00
2.498888760032960121e+00
2.498888760032960121e+00
2.838836634418774985e+00
2.838836634418774985e+00
2.577453657643360874e+00
2.577453657643360874e+00
2.541077547532578418e+00
2.541077547532578418e+00
2.431011688589129527e+00
2.431011688589129527e+00
2.377197546311838217e+00
2.377197546311838217e+00
2.332196172978911797e+00
2.332196172978911797e+00
2.332196172978911797e+00
2.374572466200750576e+00
2.518389355143894726e+00
2.518389355143894726e+00
2.518389355143894726e+00
2.298820154423657947e+00
2.298820154423657947e+00
2.179754020813623683e+00
2.179754020813623683e+00
2.231130588702047834e+00
2.231130588702047834e+00
2.227567979979857782e+00
2.227567979979857782e+00
2.113001983703115982e+00
2.113001983703115982e+00
2.375322489089632505e+00
2.375322489089632505e+00
2.387885372478407930e+00
2.387885372478407930e+00
2.142627887813959298e+00
2.142627887813959298e+00
2.009311319315164823e+00
2.009311319315164823e+00
2.009311319315164823e+00
2.045687429425947279e+00
2.045687429425947279e+00
2.091251319925535146e+00
2.091251319925535146e+00
2.159503402813806705e+00
2.159503402813806705e+00
2.191379375591296252e+00
2.191379375591296252e+00
2.075313333536790150e+00
2.075313333536790150e+00
1.894182805871761355e+00
1.894182805871761355e+00
1.872619647816400779e+00
1.872619647816400779e+00
1.862306833094271585e+00
1.862306833094271585e+00
1.862306833094271585e+00
1.836806054872280214e+00
1.836806054872280214e+00
2.134190130314035372e+00
2.134190130314035372e+00
2.962215399639881674e+00
2.962215399639881674e+00
2.894713339640492045e+00
2.894713339640492045e+00
2.635205420087282757e+00
2.635205420087282757e+00
2.549890316476943308e+00
2.549890316476943308e+00
2.485575853755302767e+00
2.485575853755302767e+00
2.455012421033357040e+00
2.455012421033357040e+00
2.455012421033357040e+00
2.403260841700491479e+00
2.403260841700491479e+00
2.566015808587908342e+00
2.566015808587908342e+00
2.520076906643879511e+00
2.520076906643879511e+00
2.465137730033265306e+00
2.465137730033265306e+00
2.391635486922818910e+00
2.391635486922818910e+00
2.217817682424390480e+00
2.217817682424390480e+00
1.743615710928678286e+00
1.743615710928678286e+00
1.713989806817835193e+00
1.713989806817835193e+00
2.101001617481002448e+00
2.101001617481002448e+00
2.101001617481002448e+00
1.878994842371898732e+00
1.878994842371898732e+00
1.880494888149662813e+00
1.880494888149662813e+00
2.171878780480361648e+00
2.171878780480361648e+00
2.629580248420667399e+00
2.629580248420667399e+00
2.761771782586138535e+00
2.761771782586138535e+00
2.737021027253029093e+00
2.737021027253029093e+00
2.809023224585711187e+00
2.809023224585711187e+00
2.610829676198614280e+00
2.610829676198614280e+00
2.610829676198614280e+00
2.541265053254798900e+00
2.541265053254798900e+00
2.371947386089663379e+00
2.371947386089663379e+00
2.225317911313211550e+00
2.225317911313211550e+00
1.971247657704397804e+00
1.971247657704397804e+00
2.083751091036713632e+00
2.083751091036713632e+00
2.193816949980162967e+00
2.193816949980162967e+00
2.047749992370372585e+00
2.047749992370372585e+00
2.088063722647786058e+00
2.088063722647786058e+00
2.088063722647786058e+00
2.216130130924405695e+00
2.216130130924405695e+00
2.279132053590502860e+00
2.279132053590502860e+00
2.161378460036011973e+00
2.161378460036011973e+00
2.018499099703970678e+00
2.018499099703970678e+00
2.004811181981871915e+00
2.004811181981871915e+00
1.945746879482405989e+00
1.945746879482405989e+00
2.040437269203771997e+00
2.040437269203771997e+00
2.296195074312570750e+00
2.296195074312570750e+00
2.422198919644764192e+00
2.422198919644764192e+00
2.592829126865443978e+00
2.592829126865443978e+00
2.592829126865443978e+00
2.881025421918393281e+00
2.881025421918393281e+00
2.826273751029999559e+00
2.826273751029999559e+00
2.612704733420819547e+00
2.612704733420819547e+00
2.504701437421796406e+00
2.504701437421796406e+00
2.434949308755760100e+00
2.434949308755760100e+00
2.336321298867763296e+00
2.336321298867763296e+00
2.204129764702292160e+00
2.204129764702292160e+00
2.214255073702200427e+00
2.214255073702200427e+00
2.214255073702200427e+00
2.130440015869624837e+00
2.130440015869624837e+00
2.068563127536851454e+00
2.068563127536851454e+00
2.002186101870784718e+00
2.002186101870784718e+00
1.954184636982329915e+00
1.954184636982329915e+00
1.811867793816950067e+00
1.811867793816950067e+00
1.759553697317423060e+00
1.759553697317423060e+00
2.197004547257912055e+00
2.197004547257912055e+00
2.128564958647419569e+00
2.128564958647419569e+00
2.128564958647419569e+00
2.272569353312784202e+00
2.272569353312784202e+00
2.474700521866512126e+00
2.474700521866512126e+00
2.438136906033509188e+00
2.438136906033509188e+00
2.372697408978545752e+00
2.372697408978545752e+00
2.297507614368114126e+00
2.297507614368114126e+00
2.431386700033570492e+00
2.431386700033570492e+00
2.355071871089815971e+00
2.355071871089815971e+00
2.397635670033875677e+00
2.397635670033875677e+00
2.401385784478286212e+00
2.401385784478286212e+00
2.440574480422376347e+00
2.440574480422376347e+00
2.264131595812860720e+00
2.264131595812860720e+00
2.341571459089938134e+00
2.341571459089938134e+00
2.341571459089938134e+00
2.566765831476790716e+00
2.566765831476790716e+00
2.293569994201483109e+00
2.293569994201483109e+00
2.179003997924741309e+00
2.179003997924741309e+00
2.178253975035859380e+00
2.178253975035859380e+00
2.210504959257789892e+00
2.210504959257789892e+00
2.284382213812677254e+00
2.284382213812677254e+00
2.355446882534256936e+00
2.355446882534256936e+00
2.433636768700216724e+00
2.433636768700216724e+00
2.301632740256966070e+00
2.301632740256966070e+00
2.301632740256966070e+00
2.211629993591112786e+00
2.211629993591112786e+00
2.134002624591814889e+00
2.134002624591814889e+00
2.033874568926053783e+00
2.033874568926053783e+00
1.837368572038941661e+00
1.837368572038941661e+00
2.062750450148014725e+00
2.062750450148014725e+00
2.227755485702078264e+00
2.227755485702078264e+00
2.137752739036225869e+00
2.137752739036225869e+00
2.260381481368449741e+00
2.260381481368449741e+00
2.260381481368449741e+00
2.391072969756157018e+00
2.391072969756157018e+00
2.389197912533951751e+00
2.389197912533951751e+00
2.330508621478927012e+00
2.330508621478927012e+00
2.317008209479048730e+00
2.317008209479048730e+00
2.215755119479964730e+00
2.215755119479964730e+00
2.112439466536454535e+00
2.112439466536454535e+00
2.182941618091372327e+00
2.323008392590105942e+00
2.323008392590105942e+00
2.356946928312021239e+00
2.356946928312021239e+00
2.324883449812311209e+00
2.324883449812311209e+00
2.542390087588122238e+00
2.542390087588122238e+00
2.308007934812463802e+00
2.308007934812463802e+00
2.147315530869472244e+00
2.147315530869472244e+00
2.225317911313211550e+00
2.225317911313211550e+00
2.359384502700888397e+00
2.359384502700888397e+00
2.465887752922147680e+00
2.465887752922147680e+00
2.465887752922147680e+00
2.492326059755241463e+00
2.492326059755241463e+00
2.612892239143040030e+00
2.612892239143040030e+00
2.477138096255378841e+00
2.477138096255378841e+00
2.363884640034180418e+00
2.363884640034180418e+00
2.245193517868587563e+00
2.245193517868587563e+00
2.203192236091189304e+00
2.203192236091189304e+00
2.000123538926358524e+00
2.000123538926358524e+00
2.045312417981505870e+00
2.045312417981505870e+00
2.045312417981505870e+00
2.454449903866695148e+00
2.454449903866695148e+00
2.231130588702047834e+00
2.231130588702047834e+00
2.200942167424543072e+00
2.200942167424543072e+00
2.283257179479354360e+00
2.283257179479354360e+00
2.325445966978973100e+00
2.325445966978973100e+00
2.377572557756279181e+00
2.377572557756279181e+00
2.359009491256446989e+00
2.359009491256446989e+00
2.462325144199957183e+00
2.462325144199957183e+00
2.462325144199957183e+00
2.359759514145329362e+00
2.359759514145329362e+00
2.339508896145511940e+00
2.339508896145511940e+00
2.220630268257698603e+00
2.220630268257698603e+00
2.049812555314798335e+00
2.049812555314798335e+00
1.863806878872035888e+00
1.863806878872035888e+00
2.062937955870235207e+00
2.062937955870235207e+00
2.307070406201360946e+00
2.307070406201360946e+00
2.132877590258491995e+00
2.164003540147099169e+00
2.164003540147099169e+00
2.242380932035279439e+00
2.264506607257301685e+00
2.264506607257301685e+00
2.331071138645588459e+00
2.380947660756248752e+00
2.380947660756248752e+00
2.504513931699575480e+00
2.426324045533616136e+00
2.426324045533616136e+00
2.343071504867702437e+00
2.314383129367961978e+00
2.314383129367961978e+00
2.132127567369609622e+00
1.840931180761131714e+00
1.840931180761131714e+00
2.022624225592822178e+00
2.119377178258613714e+00
2.119377178258613714e+00
2.060125370036927084e+00
2.086751182592242237e+00
2.086751182592242237e+00
2.160815942869350526e+00
2.352446790978728330e+00
2.352446790978728330e+00
2.513139194921720332e+00
2.578578691976683768e+00
2.578578691976683768e+00
2.449387249366740793e+00
2.407948484756004870e+00
2.410386059144871140e+00
2.410386059144871140e+00
2.396698141422773265e+00
2.253068758201849597e+00
2.253068758201849597e+00
2.158003357036042402e+00
2.580078737754448071e+00
2.580078737754448071e+00
2.504888943144016888e+00
2.355634388256477418e+00
2.355634388256477418e+00
2.314195623645741495e+00
2.302382763145847999e+00
2.302382763145847999e+00
2.333133701590014208e+00
2.306132877590258534e+00
2.306132877590258534e+00
2.419573839533677440e+00
2.237693288979766049e+00
2.237693288979766049e+00
2.158565874202703849e+00
2.166253608813745402e+00
2.166253608813745402e+00
2.183316629535813735e+00
2.006873744926298109e+00
2.006873744926298109e+00
2.125752372814111890e+00
2.446199652088991705e+00
2.446199652088991705e+00
2.190254341257972914e+00
2.145815485091708386e+00
2.145815485091708386e+00
2.183316629535813735e+00
2.198879604480116878e+00
2.198879604480116878e+00
2.246881069368571904e+00
2.348696676534318240e+00
2.348696676534318240e+00
2.469637867366557771e+00
2.247068575090792386e+00
2.247068575090792386e+00
2.108314340647602592e+00
2.072875759147922992e+00
2.028061891537217498e+00
2.028061891537217498e+00
1.894182805871761355e+00
2.158753379924924776e+00
2.158753379924924776e+00
2.465137730033265306e+00
2.437574388866847741e+00
2.437574388866847741e+00
2.494951139866329104e+00
2.423511459700308013e+00
2.423511459700308013e+00
2.345884090701010116e+00
2.342321481978820064e+00
2.342321481978820064e+00
2.354696859645375007e+00
2.359009491256446989e+00
2.359009491256446989e+00
2.288882351145970162e+00
2.314758140812402942e+00
2.405698416089358194e+00
2.405698416089358194e+00
2.340821436201055761e+00
2.183879146702475182e+00
2.183879146702475182e+00
2.490075991088595231e+00
2.402698324533829588e+00
2.402698324533829588e+00
2.280632099368266719e+00
2.287944822534867306e+00
2.287944822534867306e+00
2.312695577867977192e+00
2.356571916867580274e+00
2.356571916867580274e+00
2.353196813867610704e+00
2.405698416089358194e+00
2.405698416089358194e+00
2.291507431257057803e+00
2.291507431257057803e+00
2.236943266090884119e+00
2.208442396313364142e+00
2.208442396313364142e+00
2.252693746757408633e+00
2.107376812036500180e+00
2.107376812036500180e+00
2.051875118259224084e+00
2.388072878200628413e+00
2.152753196813867564e+00
2.152753196813867564e+00
2.070625690481276759e+00
2.070625690481276759e+00
2.025624317148350340e+00
2.025624317148350340e+00
2.025624317148350340e+00
2.036499649037140980e+00
2.036499649037140980e+00
2.192129398480178182e+00
2.192129398480178182e+00
2.312133060701315301e+00
2.312133060701315301e+00
2.508639057588427423e+00
2.508639057588427423e+00
2.407760979033784388e+00
2.407760979033784388e+00
2.394635578478347071e+00
2.394635578478347071e+00
2.368947294534135217e+00
2.368947294534135217e+00
2.326946012756737403e+00
2.326946012756737403e+00
2.160628437147130043e+00
2.160628437147130043e+00
2.160628437147130043e+00
2.271631824701681346e+00
2.271631824701681346e+00
2.546890224921415147e+00
2.546890224921415147e+00
2.382822717978454019e+00
2.382822717978454019e+00
2.313633106479079604e+00
2.313633106479079604e+00
2.206567339091158875e+00
2.206567339091158875e+00
2.162315988647114828e+00
2.162315988647114828e+00
2.211817499313333268e+00
2.211817499313333268e+00
2.276881984923856628e+00
2.276881984923856628e+00
2.276881984923856628e+00
2.330321115756706529e+00
2.330321115756706529e+00
2.176941434980315559e+00
2.176941434980315559e+00
2.156315805536057617e+00
2.156315805536057617e+00
2.190629352702413879e+00
2.190629352702413879e+00
2.118627155369731785e+00
2.118627155369731785e+00
1.965247474593341037e+00
1.965247474593341037e+00
2.232818140202032620e+00
2.232818140202032620e+00
2.326383495590075512e+00
2.326383495590075512e+00
2.187441755424664791e+00
2.187441755424664791e+00
2.187441755424664791e+00
2.209379924924466998e+00
2.209379924924466998e+00
2.257756401257362544e+00
2.257756401257362544e+00
2.345696584978789634e+00
2.345696584978789634e+00
2.397260658589434712e+00
2.397260658589434712e+00
2.400635761589403838e+00
2.400635761589403838e+00
2.347384136478774419e+00
2.347384136478774419e+00
2.280069582201605716e+00
2.280069582201605716e+00
2.297695120090334608e+00
2.297695120090334608e+00
2.338008850367748082e+00
2.338008850367748082e+00
2.338008850367748082e+00
2.212755027924436124e+00
2.212755027924436124e+00
2.086563676870021755e+00
2.086563676870021755e+00
2.463450178533280521e+00
2.463450178533280521e+00
2.407198461867122496e+00
2.407198461867122496e+00
2.350009216589862060e+00
2.350009216589862060e+00
2.328071047090059853e+00
2.328071047090059853e+00
2.297695120090334608e+00
2.297695120090334608e+00
2.299757683034760802e+00
2.299757683034760802e+00
2.299757683034760802e+00
2.306320383312479017e+00
2.306320383312479017e+00
2.421448896755882263e+00
2.421448896755882263e+00
2.301070223090304623e+00
2.301070223090304623e+00
2.249881160924100509e+00
2.249881160924100509e+00
2.236380748924222672e+00
2.283257179479354360e+00
2.283257179479354360e+00
2.179379009369182274e+00
2.179379009369182274e+00
2.179379009369182274e+00
2.287007293923764895e+00
2.287007293923764895e+00
2.628267708365123578e+00
2.628267708365123578e+00
2.353759331034272151e+00
2.353759331034272151e+00
2.266944181646168399e+00
2.266944181646168399e+00
2.230193060090945423e+00
2.230193060090945423e+00
2.199442121646778769e+00
2.199442121646778769e+00
2.226067934202093479e+00
2.226067934202093479e+00
2.247256080813012868e+00
2.247256080813012868e+00
2.247256080813012868e+00
2.364822168645283273e+00
2.364822168645283273e+00
2.221192785424360050e+00
2.221192785424360050e+00
2.195129490035706787e+00
2.195129490035706787e+00
2.141877864925076924e+00
2.141877864925076924e+00
2.120127201147496088e+00
2.120127201147496088e+00
1.992435804315317194e+00
1.992435804315317194e+00
2.201129673146763555e+00
2.201129673146763555e+00
2.402510818811609106e+00
2.402510818811609106e+00
2.237505783257545566e+00
2.237505783257545566e+00
2.281194616534928166e+00
2.281194616534928166e+00
2.318508255256813033e+00
2.318508255256813033e+00
2.318508255256813033e+00
2.324508438367870244e+00
2.324508438367870244e+00
2.348884182256538722e+00
2.348884182256538722e+00
2.407948484756004870e+00
2.407948484756004870e+00
2.447699697866756008e+00
2.447699697866756008e+00
2.313445600756859122e+00
2.313445600756859122e+00
2.230005554368724940e+00
2.230005554368724940e+00
2.171503769035920239e+00
2.171503769035920239e+00
2.068938138981292418e+00
2.068938138981292418e+00
1.977997863704336723e+00
1.977997863704336723e+00
1.977997863704336723e+00
2.272381847590563719e+00
2.272381847590563719e+00
2.252131229590746742e+00
2.252131229590746742e+00
2.157628345591601438e+00
2.157628345591601438e+00
2.236005737479781263e+00
2.236005737479781263e+00
2.307257911923581428e+00
2.307257911923581428e+00
2.361822077089755112e+00
2.361822077089755112e+00
2.407948484756004870e+00
2.407948484756004870e+00
2.514451734977264152e+00
2.514451734977264152e+00
2.514451734977264152e+00
2.426324045533616136e+00
2.426324045533616136e+00
2.333321207312235135e+00
2.333321207312235135e+00
2.304445326090273749e+00
2.304445326090273749e+00
2.320758323923459709e+00
2.320758323923459709e+00
2.182941618091372327e+00
2.182941618091372327e+00
2.137190221869563977e+00
2.137190221869563977e+00
2.521201940977202849e+00
2.521201940977202849e+00
2.350946745200964472e+00
2.350946745200964472e+00
2.350946745200964472e+00
2.266756675923947917e+00
2.266756675923947917e+00
2.267506698812830290e+00
2.267506698812830290e+00
2.242380932035279439e+00
2.242380932035279439e+00
2.255881344035157721e+00
2.255881344035157721e+00
2.305195348979155678e+00
2.305195348979155678e+00
2.439261940366832526e+00
2.439261940366832526e+00
2.254756309701834383e+00
2.254756309701834383e+00
2.152378185369426600e+00
2.152378185369426600e+00
2.112814477980895500e+00
2.112814477980895500e+00
2.112814477980895500e+00
2.149378093813898438e+00
2.149378093813898438e+00
2.004248664815210468e+00
2.004248664815210468e+00
2.120314706869716570e+00
2.120314706869716570e+00
2.370072328867458111e+00
2.370072328867458111e+00
2.150315622425000850e+00
2.150315622425000850e+00
2.170378734702597345e+00
2.170378734702597345e+00
2.221567796868801015e+00
2.221567796868801015e+00
2.231505600146489243e+00
2.231505600146489243e+00
2.312133060701315301e+00
2.312133060701315301e+00
2.312133060701315301e+00
2.409261024811548246e+00
2.409261024811548246e+00
2.514639240699484635e+00
2.514639240699484635e+00
2.379260109256263966e+00
2.379260109256263966e+00
2.339133884701071420e+00
2.339133884701071420e+00
2.311945554979094819e+00
2.311945554979094819e+00
2.244818506424146598e+00
2.244818506424146598e+00
2.077563402203436382e+00
2.077563402203436382e+00
2.278007019257179522e+00
2.278007019257179522e+00
2.278007019257179522e+00
2.344759056367687222e+00
2.344759056367687222e+00
2.158753379924924776e+00
2.158753379924924776e+00
2.151628162480544670e+00
2.151628162480544670e+00
2.155190771202734279e+00
2.155190771202734279e+00
2.196629535813471090e+00
2.196629535813471090e+00
2.269194250312814631e+00
2.269194250312814631e+00
2.391822992645039392e+00
2.391822992645039392e+00
2.436449354533524403e+00
2.436449354533524403e+00
2.436449354533524403e+00
2.421261391033662225e+00
2.421261391033662225e+00
2.453699880977813219e+00
2.476575579088717394e+00
2.476575579088717394e+00
2.341946470534379099e+00
2.341946470534379099e+00
2.193066927091281038e+00
2.193066927091281038e+00
2.507326517532883603e+00
2.507326517532883603e+00
2.367072237311929506e+00
2.367072237311929506e+00
2.218192693868831444e+00
2.218192693868831444e+00
2.203004730368968822e+00
2.203004730368968822e+00
2.186504226813562823e+00
2.186504226813562823e+00
2.186504226813562823e+00
2.200192144535660699e+00
2.200192144535660699e+00
2.234880703146458369e+00
2.234880703146458369e+00
2.366697225867488541e+00
2.366697225867488541e+00
2.271069307535019899e+00
2.271069307535019899e+00
2.218192693868831444e+00
2.218192693868831444e+00
2.214255073702200427e+00
2.214255073702200427e+00
2.255131321146275347e+00
2.255131321146275347e+00
2.125564867091891408e+00
2.125564867091891408e+00
2.125564867091891408e+00
2.149003082369457029e+00
2.149003082369457029e+00
2.498701254310739639e+00
2.498701254310739639e+00
2.281007110812707683e+00
2.281007110812707683e+00
2.217442670979949515e+00
2.217442670979949515e+00
2.197004547257912055e+00
2.197004547257912055e+00
2.169066194647053525e+00
2.169066194647053525e+00
2.172253791924802613e+00
2.172253791924802613e+00
2.185566698202459968e+00
2.185566698202459968e+00
2.313820612201300086e+00
2.313820612201300086e+00
2.313820612201300086e+00
2.199629627368999252e+00
2.199629627368999252e+00
2.212192510757774677e+00
2.212192510757774677e+00
2.251006195257423848e+00
2.251006195257423848e+00
2.275381939146092325e+00
2.275381939146092325e+00
2.151628162480544670e+00
2.151628162480544670e+00
2.335196264534440402e+00
2.335196264534440402e+00
2.569578417310098839e+00
2.569578417310098839e+00
2.375322489089632505e+00
2.375322489089632505e+00
2.362384594256416559e+00
2.362384594256416559e+00
2.362384594256416559e+00
2.309695486312448587e+00
2.309695486312448587e+00
2.249693655201880027e+00
2.249693655201880027e+00
2.225130405590991067e+00
2.225130405590991067e+00
2.275944456312753772e+00
2.275944456312753772e+00
2.342696493423261028e+00
2.342696493423261028e+00
2.258318918424023991e+00
2.258318918424023991e+00
2.253256263924070080e+00
2.253256263924070080e+00
2.273319376201666131e+00
2.273319376201666131e+00
2.224942899868770141e+00
2.224942899868770141e+00
2.224942899868770141e+00
2.140940336313974068e+00
2.140940336313974068e+00
2.405698416089358194e+00
2.405698416089358194e+00
2.411511093478194478e+00
2.411511093478194478e+00
2.271631824701681346e+00
2.271631824701681346e+00
2.269194250312814631e+00
2.269194250312814631e+00
2.265819147312845505e+00
2.265819147312845505e+00
2.286257271034882521e+00
2.286257271034882521e+00
2.317008209479048730e+00
2.317008209479048730e+00
2.317008209479048730e+00
2.387885372478407930e+00
2.387885372478407930e+00
2.324695944090090727e+00
2.324695944090090727e+00
2.211817499313333268e+00
2.211817499313333268e+00
2.177503952146977007e+00
2.183691640980254700e+00
2.183691640980254700e+00
2.097814020203253360e+00
2.097814020203253360e+00
2.097814020203253360e+00
2.087313699758903685e+00
2.087313699758903685e+00
2.467575304422132465e+00
2.467575304422132465e+00
2.321133335367900674e+00
2.321133335367900674e+00
2.234693197424237443e+00
2.234693197424237443e+00
2.242005920590838475e+00
2.242005920590838475e+00
2.232818140202032620e+00
2.232818140202032620e+00
2.259068941312906365e+00
2.259068941312906365e+00
2.289257362590411127e+00
2.289257362590411127e+00
2.445074617755668811e+00
2.445074617755668811e+00
2.445074617755668811e+00
2.314383129367961978e+00
2.314383129367961978e+00
2.266756675923947917e+00
2.266756675923947917e+00
2.255881344035157721e+00
2.255881344035157721e+00
2.274069399090548504e+00
2.274069399090548504e+00
2.123689809869686140e+00
2.123689809869686140e+00
2.197192052980132537e+00
2.197192052980132537e+00
2.481638233588671305e+00
2.481638233588671305e+00
2.240880886257515137e+00
2.240880886257515137e+00
2.240880886257515137e+00
2.186129215369121415e+00
2.186129215369121415e+00
2.194754478591265823e+00
2.194754478591265823e+00
2.185191686758019003e+00
2.185191686758019003e+00
2.221567796868801015e+00
2.221567796868801015e+00
2.254006286812952009e+00
2.254006286812952009e+00
2.345509079256569152e+00
2.345509079256569152e+00
2.233568163090914993e+00
2.233568163090914993e+00
2.246131046479689974e+00
2.246131046479689974e+00
2.246131046479689974e+00
2.279507065034943825e+00
2.265444135868404540e+00
2.265444135868404540e+00
2.157628345591601438e+00
2.157628345591601438e+00
2.385072786645100695e+00
2.385072786645100695e+00
2.511264137699515064e+00
2.511264137699515064e+00
2.353571825312051669e+00
2.353571825312051669e+00
2.349071687978759204e+00
2.349071687978759204e+00
2.324508438367870244e+00
2.324508438367870244e+00
2.322258369701224012e+00
2.322258369701224012e+00
2.322258369701224012e+00
2.330133610034486047e+00
2.330133610034486047e+00
2.350759239478743989e+00
2.350759239478743989e+00
2.310070497756889552e+00
2.310070497756889552e+00
2.190629352702413879e+00
2.190629352702413879e+00
2.167003631702627775e+00
2.167003631702627775e+00
2.200754661702322146e+00
2.200754661702322146e+00
2.122002258369701355e+00
2.122002258369701355e+00
2.067813104647969080e+00
2.067813104647969080e+00
2.403448347422711961e+00
2.403448347422711961e+00
2.360134525589770327e+00
2.360134525589770327e+00
2.261319009979552597e+00
2.261319009979552597e+00
2.261319009979552597e+00
2.261506515701773079e+00
2.261506515701773079e+00
2.220630268257698603e+00
2.220630268257698603e+00
2.205254799035615054e+00
2.205254799035615054e+00
2.205067293313394572e+00
2.205067293313394572e+00
2.287382305368205859e+00
2.287382305368205859e+00
2.206379833368938392e+00
2.206379833368938392e+00
2.156128299813837135e+00
2.156128299813837135e+00
2.168128666035950669e+00
2.168128666035950669e+00
2.168128666035950669e+00
2.235255714590899334e+00
2.235255714590899334e+00
2.176566423535874595e+00
2.176566423535874595e+00
2.262444044312875935e+00
2.262444044312875935e+00
2.682831873531296818e+00
2.682831873531296818e+00
2.494763634144108178e+00
2.494763634144108178e+00
2.402698324533829588e+00
2.402698324533829588e+00
2.356196905423139309e+00
2.356196905423139309e+00
2.302757774590289408e+00
2.302757774590289408e+00
2.302757774590289408e+00
2.292632465590380253e+00
2.292632465590380253e+00
2.277632007812738557e+00
2.277632007812738557e+00
2.383760246589556875e+00
2.383760246589556875e+00
2.235255714590899334e+00
2.235255714590899334e+00
2.217630176702169997e+00
2.217630176702169997e+00
2.229818048646504014e+00
2.229818048646504014e+00
2.245756035035248566e+00
2.245756035035248566e+00
2.104189214758751536e+00
2.104189214758751536e+00
2.104189214758751536e+00
2.239193334757530351e+00
2.239193334757530351e+00
2.470762901699881109e+00
2.470762901699881109e+00
2.266194158757286470e+00
2.266194158757286470e+00
2.251006195257423848e+00
2.251006195257423848e+00
2.248006103701895242e+00
2.248006103701895242e+00
2.235443220313119816e+00
2.235443220313119816e+00
2.250818689535202921e+00
2.250818689535202921e+00
2.288882351145970162e+00
2.288882351145970162e+00
2.288882351145970162e+00
2.363134617145298488e+00
2.363134617145298488e+00
2.251193700979644330e+00
2.251193700979644330e+00
2.248756126590777171e+00
2.248756126590777171e+00
2.263381572923978347e+00
2.221567796868801015e+00
2.221567796868801015e+00
2.122377269814142320e+00
2.122377269814142320e+00
2.349634205145421095e+00
2.349634205145421095e+00
2.374009949034089573e+00
2.374009949034089573e+00
2.219505233924375265e+00
2.219505233924375265e+00
2.232443128757591655e+00
2.232443128757591655e+00
2.240318369090853690e+00
2.240318369090853690e+00
2.234130680257575996e+00
2.234130680257575996e+00
2.234130680257575996e+00
2.266944181646168399e+00
2.266944181646168399e+00
2.353384319589831186e+00
2.353384319589831186e+00
2.331258644367808941e+00
2.331258644367808941e+00
2.269194250312814631e+00
2.269194250312814631e+00
2.241630909146397510e+00
2.241630909146397510e+00
2.251943723868526259e+00
2.251943723868526259e+00
2.132315073091830104e+00
2.132315073091830104e+00
2.093688894314401416e+00
2.093688894314401416e+00
2.093688894314401416e+00
2.480138187810907002e+00
2.480138187810907002e+00
2.351884273812066883e+00
2.351884273812066883e+00
2.265069124423963132e+00
2.265069124423963132e+00
2.269006744590594149e+00
2.269006744590594149e+00
2.247256080813012868e+00
2.247256080813012868e+00
2.246131046479689974e+00
2.246131046479689974e+00
2.263194067201757864e+00
2.263194067201757864e+00
2.376635029145176325e+00
2.376635029145176325e+00
2.376635029145176325e+00
2.277069490646077110e+00
2.277069490646077110e+00
2.254006286812952009e+00
2.254006286812952009e+00
2.260756492812891150e+00
2.294132511368144556e+00
2.294132511368144556e+00
2.144127933591723156e+00
2.144127933591723156e+00
2.192691915646840073e+00
2.192691915646840073e+00
2.511826654866176511e+00
2.511826654866176511e+00
2.326008484145634547e+00
2.326008484145634547e+00
2.267506698812830290e+00
2.267506698812830290e+00
2.251756218146305777e+00
2.251756218146305777e+00
2.220630268257698603e+00
2.220630268257698603e+00
2.220630268257698603e+00
2.243693472090823260e+00
2.243693472090823260e+00
2.258693929868464956e+00
2.258693929868464956e+00
2.358259468367565059e+00
2.358259468367565059e+00
2.229443037202063049e+00
2.229443037202063049e+00
2.230568071535386387e+00
2.230568071535386387e+00
2.255131321146275347e+00
2.255131321146275347e+00
2.238255806146427940e+00
2.238255806146427940e+00
2.112814477980895500e+00
2.112814477980895500e+00
2.281007110812707683e+00
2.281007110812707683e+00
2.281007110812707683e+00
2.437949400311288706e+00
2.437949400311288706e+00
2.262631550035096417e+00
2.262631550035096417e+00
2.254943815424054865e+00
2.254943815424054865e+00
2.232443128757591655e+00
2.232443128757591655e+00
2.224380382702108694e+00
2.224380382702108694e+00
2.258506424146244473e+00
2.258506424146244473e+00
2.334258735923337547e+00
2.334258735923337547e+00
2.357509445478682686e+00
2.357509445478682686e+00
2.357509445478682686e+00
2.269756767479476078e+00
2.269756767479476078e+00
2.251006195257423848e+00
2.251006195257423848e+00
2.293945005645924073e+00
2.293945005645924073e+00
2.248568620868556689e+00
2.248568620868556689e+00
2.158940885647145258e+00
2.158940885647145258e+00
2.440574480422376347e+00
2.440574480422376347e+00
2.392760521256141804e+00
2.392760521256141804e+00
2.243693472090823260e+00
2.243693472090823260e+00
2.243693472090823260e+00
2.231130588702047834e+00
2.231130588702047834e+00
2.223067842646564873e+00
2.223067842646564873e+00
2.221380291146580532e+00
2.221380291146580532e+00
2.243693472090823260e+00
2.243693472090823260e+00
2.345134067812128187e+00
2.345134067812128187e+00
2.296195074312570750e+00
2.296195074312570750e+00
2.255881344035157721e+00
2.255881344035157721e+00
2.256256355479598685e+00
2.256256355479598685e+00
2.256256355479598685e+00
2.293194982757042144e+00
2.293194982757042144e+00
2.164191045869319652e+00
2.164191045869319652e+00
2.141127842036194995e+00
2.141127842036194995e+00
2.506951506088442638e+00
2.506951506088442638e+00
2.323570909756767389e+00
2.323570909756767389e+00
2.227755485702078264e+00
2.227755485702078264e+00
2.214442579424420909e+00
2.214442579424420909e+00
2.199817133091219734e+00
2.199817133091219734e+00
2.199817133091219734e+00
2.215380108035523765e+00
2.215380108035523765e+00
2.245381023590808045e+00
2.245381023590808045e+00
2.404385876033814373e+00
2.404385876033814373e+00
2.294882534257026929e+00
2.294882534257026929e+00
2.265256630146183614e+00
2.265256630146183614e+00
2.267881710257271255e+00
2.267881710257271255e+00
2.281007110812707683e+00
2.124439832758568070e+00
2.124439832758568070e+00
2.236755760368663637e+00
2.236755760368663637e+00
2.494763634144108178e+00
2.494763634144108178e+00
2.494763634144108178e+00
2.302945280312509890e+00
2.302945280312509890e+00
2.271069307535019899e+00
2.271069307535019899e+00
2.268444227423932702e+00
2.268444227423932702e+00
2.260943998535111632e+00
2.260943998535111632e+00
2.271069307535019899e+00
2.271069307535019899e+00
2.301632740256966070e+00
2.301632740256966070e+00
2.380760155034028269e+00
2.380760155034028269e+00
2.261506515701773079e+00
2.261506515701773079e+00
2.250818689535202921e+00
2.250818689535202921e+00
2.250818689535202921e+00
2.278382030701620931e+00
2.278382030701620931e+00
2.233193151646474028e+00
2.233193151646474028e+00
2.111876949369793088e+00
2.111876949369793088e+00
2.326946012756737403e+00
2.326946012756737403e+00
2.406260933256020085e+00
2.406260933256020085e+00
2.252881252479629115e+00
2.252881252479629115e+00
2.248568620868556689e+00
2.248568620868556689e+00
2.239755851924192243e+00
2.239755851924192243e+00
2.239755851924192243e+00
2.223817865535447247e+00
2.223817865535447247e+00
2.264131595812860720e+00
2.264131595812860720e+00
2.350571733756523507e+00
2.350571733756523507e+00
2.328821069978942226e+00
2.328821069978942226e+00
2.247256080813012868e+00
2.247256080813012868e+00
2.234880703146458369e+00
2.234880703146458369e+00
2.258881435590685438e+00
2.179191503646961792e+00
2.179191503646961792e+00
2.179191503646961792e+00
2.113189489425336465e+00
2.113189489425336465e+00
2.471512924588763038e+00
2.471512924588763038e+00
2.365572191534165203e+00
2.365572191534165203e+00
2.261319009979552597e+00
2.261319009979552597e+00
2.270319284646137969e+00
2.270319284646137969e+00
2.247818597979674760e+00
2.247818597979674760e+00
2.235068208868678852e+00
2.235068208868678852e+00
2.272194341868343237e+00
2.272194341868343237e+00
2.395948118533890892e+00
2.395948118533890892e+00
2.289069856868190644e+00
2.289069856868190644e+00
2.289069856868190644e+00
2.255318826868495830e+00
2.255318826868495830e+00
2.246881069368571904e+00
2.246881069368571904e+00
2.268631733146153184e+00
2.268631733146153184e+00
2.134940153202917745e+00
2.134940153202917745e+00
2.170191228980376863e+00
2.170191228980376863e+00
2.516514297921689458e+00
2.516514297921689458e+00
2.311945554979094819e+00
2.311945554979094819e+00
2.246131046479689974e+00
2.246131046479689974e+00
2.237693288979766049e+00
2.237693288979766049e+00
2.221380291146580532e+00
2.221380291146580532e+00
2.221380291146580532e+00
2.231130588702047834e+00
2.231130588702047834e+00
2.261319009979552597e+00
2.261319009979552597e+00
2.387510361033966966e+00
2.387510361033966966e+00
2.260006469924008776e+00
2.260006469924008776e+00
2.243880977813043742e+00
2.243880977813043742e+00
2.258881435590685438e+00
2.258881435590685438e+00
2.257193884090700653e+00
2.257193884090700653e+00
2.136815210425123013e+00
2.136815210425123013e+00
2.136815210425123013e+00
2.308570451979125249e+00
2.308570451979125249e+00
2.489700979644154266e+00
2.489700979644154266e+00
2.315133152256843907e+00
2.315133152256843907e+00
2.281194616534928166e+00
2.281194616534928166e+00
2.229443037202063049e+00
2.229443037202063049e+00
2.199254615924558287e+00
2.199254615924558287e+00
2.219505233924375265e+00
2.219505233924375265e+00
2.306695394756919981e+00
2.306695394756919981e+00
2.306695394756919981e+00
2.352821802423169739e+00
2.352821802423169739e+00
2.249693655201880027e+00
2.249693655201880027e+00
2.245193517868587563e+00
2.245193517868587563e+00
2.263006561479537382e+00
2.263006561479537382e+00
2.205629810480056463e+00
2.205629810480056463e+00
2.117314615314187964e+00
2.117314615314187964e+00
2.396135624256111374e+00
2.396135624256111374e+00
2.393698049867244659e+00
2.393698049867244659e+00
2.393698049867244659e+00
2.257568895535142062e+00
2.257568895535142062e+00
2.258131412701803509e+00
2.258131412701803509e+00
2.248943632312997654e+00
2.248943632312997654e+00
2.250443678090761956e+00
2.250443678090761956e+00
2.270131778923917043e+00
2.270131778923917043e+00
2.367072237311929506e+00
2.367072237311929506e+00
2.325070955534531691e+00
2.325070955534531691e+00
2.265819147312845505e+00
2.265819147312845505e+00
2.248568620868556689e+00
2.248568620868556689e+00
2.248568620868556689e+00
2.273506881923887057e+00
2.156128299813837135e+00
2.156128299813837135e+00
2.122377269814142320e+00
2.122377269814142320e+00
2.499451277199621568e+00
2.499451277199621568e+00
2.499451277199621568e+00
2.340821436201055761e+00
2.340821436201055761e+00
2.260381481368449741e+00
2.260381481368449741e+00
2.250631183812982439e+00
2.250631183812982439e+00
2.228130497146519229e+00
2.228130497146519229e+00
2.237693288979766049e+00
2.237693288979766049e+00
2.266756675923947917e+00
2.266756675923947917e+00
2.388822901089510786e+00
2.388822901089510786e+00
2.258881435590685438e+00
2.258881435590685438e+00
2.258881435590685438e+00
2.219505233924375265e+00
2.219505233924375265e+00
2.226630451368755370e+00
2.226630451368755370e+00
2.261319009979552597e+00
2.261319009979552597e+00
2.109439374980925930e+00
2.109439374980925930e+00
2.215192602313302839e+00
2.215192602313302839e+00
2.501513840144047762e+00
2.501513840144047762e+00
2.283069673757133433e+00
2.283069673757133433e+00
2.260381481368449741e+00
2.260381481368449741e+00
2.260381481368449741e+00
2.262819055757316900e+00
2.262819055757316900e+00
2.241443403424177028e+00
2.241443403424177028e+00
2.260193975646229259e+00
2.260193975646229259e+00
2.306695394756919981e+00
2.306695394756919981e+00
2.413948667867061193e+00
2.413948667867061193e+00
2.277256996368297592e+00
2.277256996368297592e+00
2.251568712424085295e+00
2.251568712424085295e+00
2.257568895535142062e+00
2.257568895535142062e+00
2.218942716757713818e+00
2.110751915036469750e+00
2.110751915036469750e+00
2.110751915036469750e+00
2.320758323923459709e+00
2.320758323923459709e+00
2.431199194311350009e+00
2.431199194311350009e+00
2.255131321146275347e+00
2.255131321146275347e+00
2.248756126590777171e+00
2.248756126590777171e+00
2.234318185979796478e+00
2.234318185979796478e+00
2.229818048646504014e+00
2.229818048646504014e+00
2.268819238868374111e+00
2.268819238868374111e+00
2.323758415478988315e+00
2.323758415478988315e+00
2.323758415478988315e+00
2.379072603534043484e+00
2.379072603534043484e+00
2.280444593646046680e+00
2.280444593646046680e+00
2.223817865535447247e+00
2.223817865535447247e+00
2.256631366924039650e+00
2.256631366924039650e+00
2.231693105868709726e+00
2.231693105868709726e+00
2.140377819147312621e+00
2.140377819147312621e+00
2.442262031922361132e+00
2.442262031922361132e+00
2.359196996978667915e+00
2.359196996978667915e+00
2.251568712424085295e+00
2.251568712424085295e+00
2.254568803979613900e+00
2.254568803979613900e+00
2.254568803979613900e+00
2.230568071535386387e+00
2.230568071535386387e+00
2.233005645924253102e+00
2.233005645924253102e+00
2.257381389812921579e+00
2.257381389812921579e+00
2.368197271645252844e+00
2.368197271645252844e+00
2.288132328257088233e+00
2.288132328257088233e+00
2.251943723868526259e+00
2.251943723868526259e+00
2.237880794701986531e+00
2.237880794701986531e+00
2.272944364757225166e+00
2.272944364757225166e+00
2.272944364757225166e+00
2.145627979369487459e+00
2.145627979369487459e+00
2.160815942869350526e+00
2.160815942869350526e+00
2.524202032532731454e+00
2.524202032532731454e+00
2.326758507034516477e+00
2.326758507034516477e+00
2.249318643757439062e+00
2.249318643757439062e+00
2.243505966368602778e+00
2.243505966368602778e+00
2.231880611590930208e+00
2.231880611590930208e+00
2.243880977813043742e+00
2.243880977813043742e+00
2.243880977813043742e+00
2.259631458479567812e+00
2.259631458479567812e+00
2.390885464033936536e+00
2.390885464033936536e+00
2.265444135868404540e+00
2.265444135868404540e+00
2.244255989257484707e+00
2.244255989257484707e+00
2.249506149479659545e+00
2.249506149479659545e+00
2.267319193090609808e+00
2.267319193090609808e+00
2.124252327036347587e+00
2.124252327036347587e+00
2.275944456312753772e+00
2.275944456312753772e+00
2.489138462477492819e+00
2.489138462477492819e+00
2.489138462477492819e+00
2.282507156590471986e+00
2.282507156590471986e+00
2.257943906979583026e+00
2.257943906979583026e+00
2.250068666646320992e+00
2.250068666646320992e+00
2.237505783257545566e+00
2.237505783257545566e+00
2.250256172368541474e+00
2.250256172368541474e+00
2.293945005645924073e+00
2.293945005645924073e+00
2.346634113589892490e+00
2.346634113589892490e+00
2.245756035035248566e+00
2.245756035035248566e+00
2.245756035035248566e+00
2.234318185979796478e+00
2.234318185979796478e+00
2.256068849757378203e+00
2.256068849757378203e+00
2.215380108035523765e+00
2.215380108035523765e+00
2.125189855647450443e+00
2.125189855647450443e+00
2.387510361033966966e+00
2.387510361033966966e+00
2.404760887478255782e+00
2.404760887478255782e+00
2.255131321146275347e+00
2.255131321146275347e+00
2.254381298257393418e+00
2.254381298257393418e+00
2.225692922757652514e+00
2.225692922757652514e+00
2.229630542924283532e+00
2.229630542924283532e+00
2.229630542924283532e+00
2.267881710257271255e+00
2.267881710257271255e+00
2.362197088534196077e+00
2.362197088534196077e+00
2.323570909756767389e+00
2.323570909756767389e+00
2.254568803979613900e+00
2.254568803979613900e+00
2.244068483535264225e+00
2.244068483535264225e+00
2.266381664479506952e+00
2.266381664479506952e+00
2.172066286202582130e+00
2.172066286202582130e+00
2.124439832758568070e+00
2.124439832758568070e+00
2.124439832758568070e+00
2.500013794366283459e+00
2.500013794366283459e+00
2.355446882534256936e+00
2.355446882534256936e+00
2.257568895535142062e+00
2.257568895535142062e+00
2.238068300424207457e+00
2.238068300424207457e+00
2.230193060090945423e+00
2.230193060090945423e+00
2.241255897701956545e+00
2.241255897701956545e+00
2.263944090090640238e+00
2.263944090090640238e+00
2.400260750144962874e+00
2.400260750144962874e+00
2.400260750144962874e+00
2.282132145146031021e+00
2.282132145146031021e+00
2.252131229590746742e+00
2.252131229590746742e+00
2.242568437757499922e+00
2.242568437757499922e+00
2.269944273201696561e+00
2.111689443647572162e+00
2.111689443647572162e+00
2.188191778313547164e+00
2.188191778313547164e+00
2.188191778313547164e+00
2.503763908810693550e+00
2.503763908810693550e+00
2.293757499923703591e+00
2.293757499923703591e+00
2.241630909146397510e+00
2.241630909146397510e+00
2.234318185979796478e+00
2.234318185979796478e+00
2.232443128757591655e+00
2.232443128757591655e+00
2.255506332590716312e+00
2.255506332590716312e+00
2.295632557145908859e+00
2.295632557145908859e+00
2.413386150700399746e+00
2.413386150700399746e+00
2.413386150700399746e+00
2.274631916257209951e+00
2.274631916257209951e+00
2.254568803979613900e+00
2.254568803979613900e+00
2.264881618701742649e+00
2.264881618701742649e+00
2.239943357646412725e+00
2.239943357646412725e+00
2.116564592425305591e+00
2.116564592425305591e+00
2.321133335367900674e+00
2.321133335367900674e+00
2.463075167088839557e+00
2.463075167088839557e+00
2.268444227423932702e+00
2.268444227423932702e+00
2.249131138035218136e+00
2.249131138035218136e+00
2.231693105868709726e+00
2.231693105868709726e+00
2.226817957090975852e+00
2.226817957090975852e+00
2.251006195257423848e+00
2.251006195257423848e+00
2.251006195257423848e+00
2.321320841090121156e+00
2.321320841090121156e+00
2.345884090701010116e+00
2.345884090701010116e+00
2.249881160924100509e+00
2.249881160924100509e+00
2.233943174535355514e+00
2.233943174535355514e+00
2.262256538590655452e+00
2.262256538590655452e+00
2.186691732535783306e+00
2.186691732535783306e+00
2.112064455092013571e+00
2.112064455092013571e+00
2.439824457533493973e+00
2.439824457533493973e+00
2.439824457533493973e+00
2.404010864589373409e+00
2.404010864589373409e+00
2.283632190923795324e+00
2.283632190923795324e+00
2.269006744590594149e+00
2.269006744590594149e+00
2.243318460646382295e+00
2.243318460646382295e+00
2.239193334757530351e+00
2.239193334757530351e+00
2.273319376201666131e+00
2.273319376201666131e+00
2.390510452589495571e+00
2.390510452589495571e+00
2.315320657979064389e+00
2.315320657979064389e+00
2.315320657979064389e+00
2.257568895535142062e+00
2.257568895535142062e+00
2.241255897701956545e+00
2.241255897701956545e+00
2.272944364757225166e+00
2.272944364757225166e+00
2.144127933591723156e+00
2.144127933591723156e+00
2.129127475814081016e+00
2.129127475814081016e+00
2.499263771477401086e+00
2.499263771477401086e+00
2.309132969145787140e+00
2.309132969145787140e+00
2.242005920590838475e+00
2.242005920590838475e+00
2.242005920590838475e+00
2.244631000701926116e+00
2.244631000701926116e+00
2.235255714590899334e+00
2.235255714590899334e+00
2.242193426313058957e+00
2.242193426313058957e+00
2.267506698812830290e+00
2.267506698812830290e+00
2.406635944700461049e+00
2.406635944700461049e+00
2.274444410534989469e+00
2.274444410534989469e+00
2.252318735312967224e+00
2.252318735312967224e+00
2.253631275368511044e+00
2.253631275368511044e+00
2.253631275368511044e+00
2.269006744590594149e+00
2.269006744590594149e+00
2.118252143925290376e+00
2.227005462813196335e+00
2.227005462813196335e+00
2.473762993255409270e+00
2.473762993255409270e+00
2.279132053590502860e+00
2.279132053590502860e+00
2.244255989257484707e+00
2.244255989257484707e+00
2.244255989257484707e+00
2.233005645924253102e+00
2.233005645924253102e+00
2.233193151646474028e+00
2.233193151646474028e+00
2.261881527146214044e+00
2.261881527146214044e+00
2.304820337534714714e+00
2.304820337534714714e+00
2.369884823145237629e+00
2.369884823145237629e+00
2.251193700979644330e+00
2.251193700979644330e+00
2.240880886257515137e+00
2.240880886257515137e+00
2.264694112979522167e+00
2.264694112979522167e+00
2.225317911313211550e+00
2.225317911313211550e+00
2.225317911313211550e+00
2.125564867091891408e+00
2.125564867091891408e+00
2.361072054200873183e+00
2.361072054200873183e+00
2.425011505478072316e+00
2.425011505478072316e+00
2.268069215979491737e+00
2.268069215979491737e+00
2.252506241035188150e+00
2.252506241035188150e+00
2.244255989257484707e+00
2.244255989257484707e+00
2.244443494979705633e+00
2.244443494979705633e+00
2.260193975646229259e+00
2.260193975646229259e+00
2.260193975646229259e+00
2.358071962645344577e+00
2.358071962645344577e+00
2.340446424756614796e+00
2.340446424756614796e+00
2.252318735312967224e+00
2.252318735312967224e+00
2.239755851924192243e+00
2.239755851924192243e+00
2.256068849757378203e+00
2.256068849757378203e+00
2.172066286202582130e+00
2.172066286202582130e+00
2.101564134647663895e+00
2.101564134647663895e+00
2.463450178533280521e+00
2.463450178533280521e+00
2.341383953367717208e+00
2.341383953367717208e+00
2.251193700979644330e+00
2.251193700979644330e+00
2.255131321146275347e+00
2.255131321146275347e+00
2.249131138035218136e+00
2.249131138035218136e+00
2.253631275368511044e+00
2.253631275368511044e+00
2.268256721701712220e+00
2.268256721701712220e+00
2.268256721701712220e+00
2.390885464033936536e+00
2.390885464033936536e+00
2.296195074312570750e+00
2.296195074312570750e+00
2.268256721701712220e+00
2.268256721701712220e+00
2.250818689535202921e+00
2.250818689535202921e+00
2.277069490646077110e+00
2.277069490646077110e+00
2.132315073091830104e+00
2.132315073091830104e+00
2.173941343424787398e+00
2.173941343424787398e+00
2.508264046143986459e+00
2.508264046143986459e+00
2.303132786034730373e+00
2.303132786034730373e+00
2.303132786034730373e+00
2.252693746757408633e+00
2.252693746757408633e+00
2.242755943479720404e+00
2.242755943479720404e+00
2.231880611590930208e+00
2.231880611590930208e+00
2.250256172368541474e+00
2.250256172368541474e+00
2.275006927701650916e+00
2.275006927701650916e+00
2.392385509811700839e+00
2.392385509811700839e+00
2.263006561479537382e+00
2.263006561479537382e+00
2.236755760368663637e+00
2.236755760368663637e+00
2.256443861201819168e+00
2.256443861201819168e+00
2.256443861201819168e+00
2.261694021423993561e+00
2.261694021423993561e+00
2.125377361369670925e+00
2.125377361369670925e+00
2.301070223090304623e+00
2.301070223090304623e+00
2.466637775811029609e+00
2.466637775811029609e+00
2.279132053590502860e+00
2.279132053590502860e+00
2.261319009979552597e+00
2.261319009979552597e+00
2.240130863368633207e+00
2.240130863368633207e+00
2.231693105868709726e+00
2.231693105868709726e+00
2.259818964201788294e+00
2.259818964201788294e+00
2.316633198034607766e+00
2.352259285256507848e+00
2.352259285256507848e+00
2.247256080813012868e+00
2.231880611590930208e+00
2.231880611590930208e+00
2.264881618701742649e+00
