2.240693380535294654e+00
2.240693380535294654e+00
2.247068575090792386e+00
2.247068575090792386e+00
2.247068575090792386e+00
2.267694204535050773e+00
2.267694204535050773e+00
2.267694204535050773e+00
2.267694204535050773e+00
2.334821253089998994e+00
2.334821253089998994e+00
2.334821253089998994e+00
2.369509811700796664e+00
2.369509811700796664e+00
2.369509811700796664e+00
2.253631275368511044e+00
2.253631275368511044e+00
2.253631275368511044e+00
2.253631275368511044e+00
2.244631000701926116e+00
2.244631000701926116e+00
2.244631000701926116e+00
2.256818872646260132e+00
2.256818872646260132e+00
2.256818872646260132e+00
2.184629169591357556e+00
2.184629169591357556e+00
2.184629169591357556e+00
2.184629169591357556e+00
2.095563951536606684e+00
2.095563951536606684e+00
2.095563951536606684e+00
2.427824091311380439e+00
2.427824091311380439e+00
2.427824091311380439e+00
2.402510818811609106e+00
2.402510818811609106e+00
2.402510818811609106e+00
2.402510818811609106e+00
2.260381481368449741e+00
2.260381481368449741e+00
2.260381481368449741e+00
2.258693929868464956e+00
2.258693929868464956e+00
2.258693929868464956e+00
2.258693929868464956e+00
2.249506149479659545e+00
2.249506149479659545e+00
2.249506149479659545e+00
2.250443678090761956e+00
2.250443678090761956e+00
2.250443678090761956e+00
2.267506698812830290e+00
2.267506698812830290e+00
2.267506698812830290e+00
2.267506698812830290e+00
2.389010406811731269e+00
2.389010406811731269e+00
2.389010406811731269e+00
2.317945738090151586e+00
2.317945738090151586e+00
2.317945738090151586e+00
2.246881069368571904e+00
2.246881069368571904e+00
2.246881069368571904e+00
2.246881069368571904e+00
2.220067751091036712e+00
2.220067751091036712e+00
2.220067751091036712e+00
2.232818140202032620e+00
2.232818140202032620e+00
2.232818140202032620e+00
2.232818140202032620e+00
2.106626789147617806e+00
2.106626789147617806e+00
2.106626789147617806e+00
2.091626331369976111e+00
2.091626331369976111e+00
2.091626331369976111e+00
2.518201849421674243e+00
2.518201849421674243e+00
2.518201849421674243e+00
2.518201849421674243e+00
2.331633655812249906e+00
2.331633655812249906e+00
2.331633655812249906e+00
2.255506332590716312e+00
2.255506332590716312e+00
2.255506332590716312e+00
2.259256447035126847e+00
2.259256447035126847e+00
2.259256447035126847e+00
2.245381023590808045e+00
2.245381023590808045e+00
2.245381023590808045e+00
2.264319101535081202e+00
2.264319101535081202e+00
2.264319101535081202e+00
2.292819971312600735e+00
2.292819971312600735e+00
2.292819971312600735e+00
2.292819971312600735e+00
2.437386883144627259e+00
2.437386883144627259e+00
2.437386883144627259e+00
2.278757042146061895e+00
2.278757042146061895e+00
2.278757042146061895e+00
2.248006103701895242e+00
2.248006103701895242e+00
2.248006103701895242e+00
2.248006103701895242e+00
2.244255989257484707e+00
2.244255989257484707e+00
2.244255989257484707e+00
2.255881344035157721e+00
2.255881344035157721e+00
2.255881344035157721e+00
2.089376262703329878e+00
2.089376262703329878e+00
2.089376262703329878e+00
2.089376262703329878e+00
2.221755302591021497e+00
2.221755302591021497e+00
2.221755302591021497e+00
2.514639240699484635e+00
2.514639240699484635e+00
2.514639240699484635e+00
2.296195074312570750e+00
2.296195074312570750e+00
2.296195074312570750e+00
2.296195074312570750e+00
2.263006561479537382e+00
2.263006561479537382e+00
2.263006561479537382e+00
2.259443952757347329e+00
2.259443952757347329e+00
2.259443952757347329e+00
2.258318918424023991e+00
2.258318918424023991e+00
2.258318918424023991e+00
2.273319376201666131e+00
2.273319376201666131e+00
2.273319376201666131e+00
2.307257911923581428e+00
2.307257911923581428e+00
2.307257911923581428e+00
2.307257911923581428e+00
2.393885555589465142e+00
2.393885555589465142e+00
2.393885555589465142e+00
2.237505783257545566e+00
2.237505783257545566e+00
2.237505783257545566e+00
2.215005096591082356e+00
2.215005096591082356e+00
2.215005096591082356e+00
2.215005096591082356e+00
2.250631183812982439e+00
2.250631183812982439e+00
2.250631183812982439e+00
2.192316904202398664e+00
2.192316904202398664e+00
2.192316904202398664e+00
2.087688711203345093e+00
2.087688711203345093e+00
2.087688711203345093e+00
2.087688711203345093e+00
2.362384594256416559e+00
2.362384594256416559e+00
2.362384594256416559e+00
2.458012512588885201e+00
2.458012512588885201e+00
2.458012512588885201e+00
2.284194708090456771e+00
2.284194708090456771e+00
2.284194708090456771e+00
2.284194708090456771e+00
2.275944456312753772e+00
2.275944456312753772e+00
2.275944456312753772e+00
2.258318918424023991e+00
2.258318918424023991e+00
2.258318918424023991e+00
2.241068391979735619e+00
2.241068391979735619e+00
2.241068391979735619e+00
2.254943815424054865e+00
2.254943815424054865e+00
2.254943815424054865e+00
2.254943815424054865e+00
2.341571459089938134e+00
2.341571459089938134e+00
2.341571459089938134e+00
2.323570909756767389e+00
2.323570909756767389e+00
2.323570909756767389e+00
2.226442945646534444e+00
2.226442945646534444e+00
2.226442945646534444e+00
2.226442945646534444e+00
2.199067110202337361e+00
2.199067110202337361e+00
2.199067110202337361e+00
2.221755302591021497e+00
2.221755302591021497e+00
2.221755302591021497e+00
2.137190221869563977e+00
2.137190221869563977e+00
2.137190221869563977e+00
2.137190221869563977e+00
2.089188756981108952e+00
2.089188756981108952e+00
2.089188756981108952e+00
2.503201391644032547e+00
2.503201391644032547e+00
2.503201391644032547e+00
2.394073061311685624e+00
2.394073061311685624e+00
2.394073061311685624e+00
2.394073061311685624e+00
2.291882442701498768e+00
2.291882442701498768e+00
2.291882442701498768e+00
2.295445051423688376e+00
2.295445051423688376e+00
2.295445051423688376e+00
2.275569444868312807e+00
2.275569444868312807e+00
2.275569444868312807e+00
2.275569444868312807e+00
2.269944273201696561e+00
2.269944273201696561e+00
2.269944273201696561e+00
2.282319650868251504e+00
2.282319650868251504e+00
2.282319650868251504e+00
2.282319650868251504e+00
2.414323679311502602e+00
2.414323679311502602e+00
2.414323679311502602e+00
2.289819879757073018e+00
2.289819879757073018e+00
2.289819879757073018e+00
2.237130771813104602e+00
2.237130771813104602e+00
2.237130771813104602e+00
2.237130771813104602e+00
2.219505233924375265e+00
2.219505233924375265e+00
2.219505233924375265e+00
2.246131046479689974e+00
2.246131046479689974e+00
2.246131046479689974e+00
2.096688985869930022e+00
2.096688985869930022e+00
2.096688985869930022e+00
2.096688985869930022e+00
2.160065919980468152e+00
2.160065919980468152e+00
2.160065919980468152e+00
2.553452925199133361e+00
2.553452925199133361e+00
2.553452925199133361e+00
2.323195898312326424e+00
2.323195898312326424e+00
2.323195898312326424e+00
2.323195898312326424e+00
2.251381206701864812e+00
2.251381206701864812e+00
2.251381206701864812e+00
2.262256538590655452e+00
2.262256538590655452e+00
2.262256538590655452e+00
2.248943632312997654e+00
2.248943632312997654e+00
2.248943632312997654e+00
2.251568712424085295e+00
2.251568712424085295e+00
2.251568712424085295e+00
2.251568712424085295e+00
2.266944181646168399e+00
2.266944181646168399e+00
2.266944181646168399e+00
2.395010589922788480e+00
2.395010589922788480e+00
2.395010589922788480e+00
2.395010589922788480e+00
2.232630634479812137e+00
2.232630634479812137e+00
2.232630634479812137e+00
2.221755302591021497e+00
2.221755302591021497e+00
2.221755302591021497e+00
2.236755760368663637e+00
2.236755760368663637e+00
2.236755760368663637e+00
2.236755760368663637e+00
2.227942991424298746e+00
2.227942991424298746e+00
2.227942991424298746e+00
2.073250770592364400e+00
2.073250770592364400e+00
2.073250770592364400e+00
2.274819421979430434e+00
2.274819421979430434e+00
2.274819421979430434e+00
2.274819421979430434e+00
2.488950956755272337e+00
2.488950956755272337e+00
2.488950956755272337e+00
2.311195532090212890e+00
2.311195532090212890e+00
2.311195532090212890e+00
2.311383037812433372e+00
2.311383037812433372e+00
2.311383037812433372e+00
2.311383037812433372e+00
2.289632374034852091e+00
2.289632374034852091e+00
2.289632374034852091e+00
2.263944090090640238e+00
2.263944090090640238e+00
2.263944090090640238e+00
2.267319193090609808e+00
2.267319193090609808e+00
2.267319193090609808e+00
2.267319193090609808e+00
2.329946104312265120e+00
2.329946104312265120e+00
2.329946104312265120e+00
2.359572008423108880e+00
2.359572008423108880e+00
2.359572008423108880e+00
2.243130954924161813e+00
2.243130954924161813e+00
2.243130954924161813e+00
2.243130954924161813e+00
2.233568163090914993e+00
2.233568163090914993e+00
2.233568163090914993e+00
2.251568712424085295e+00
2.251568712424085295e+00
2.251568712424085295e+00
2.185379192480239485e+00
2.185379192480239485e+00
2.185379192480239485e+00
2.185379192480239485e+00
2.082251045258949329e+00
2.082251045258949329e+00
2.082251045258949329e+00
2.414323679311502602e+00
2.414323679311502602e+00
2.414323679311502602e+00
2.396323129978331856e+00
2.396323129978331856e+00
2.396323129978331856e+00
2.396323129978331856e+00
2.250631183812982439e+00
2.250631183812982439e+00
2.250631183812982439e+00
2.246506057924130939e+00
2.246506057924130939e+00
2.246506057924130939e+00
2.237318277535325084e+00
2.237318277535325084e+00
2.237318277535325084e+00
2.237318277535325084e+00
2.231693105868709726e+00
2.231693105868709726e+00
2.231693105868709726e+00
2.236380748924222672e+00
2.236380748924222672e+00
2.236380748924222672e+00
2.236380748924222672e+00
2.359947019867549844e+00
2.359947019867549844e+00
2.359947019867549844e+00
2.312508072145756710e+00
2.312508072145756710e+00
2.312508072145756710e+00
2.258131412701803509e+00
2.258131412701803509e+00
2.258131412701803509e+00
2.243130954924161813e+00
2.243130954924161813e+00
2.243130954924161813e+00
2.243130954924161813e+00
2.281194616534928166e+00
2.281194616534928166e+00
2.281194616534928166e+00
2.157253334147160473e+00
2.157253334147160473e+00
2.157253334147160473e+00
2.157253334147160473e+00
2.120689718314157535e+00
2.120689718314157535e+00
2.120689718314157535e+00
2.517451826532791870e+00
2.517451826532791870e+00
2.517451826532791870e+00
2.342696493423261028e+00
2.342696493423261028e+00
2.342696493423261028e+00
2.342696493423261028e+00
2.269756767479476078e+00
2.269756767479476078e+00
2.269756767479476078e+00
2.263006561479537382e+00
2.263006561479537382e+00
2.263006561479537382e+00
2.252131229590746742e+00
2.252131229590746742e+00
2.252131229590746742e+00
2.252131229590746742e+00
2.271256813257240381e+00
2.271256813257240381e+00
2.271256813257240381e+00
2.287944822534867306e+00
2.287944822534867306e+00
2.287944822534867306e+00
2.437386883144627259e+00
2.437386883144627259e+00
2.437386883144627259e+00
2.437386883144627259e+00
2.262256538590655452e+00
2.262256538590655452e+00
2.262256538590655452e+00
2.231880611590930208e+00
2.231880611590930208e+00
2.231880611590930208e+00
2.218005188146610962e+00
2.218005188146610962e+00
2.218005188146610962e+00
2.241443403424177028e+00
2.241443403424177028e+00
2.241443403424177028e+00
2.241443403424177028e+00
2.086938688314462720e+00
2.086938688314462720e+00
2.086938688314462720e+00
2.215380108035523765e+00
2.215380108035523765e+00
2.215380108035523765e+00
2.522701986754967152e+00
2.522701986754967152e+00
2.522701986754967152e+00
2.522701986754967152e+00
2.327883541367839371e+00
2.327883541367839371e+00
2.327883541367839371e+00
2.276319467757194737e+00
2.276319467757194737e+00
2.276319467757194737e+00
2.259818964201788294e+00
2.259818964201788294e+00
2.259818964201788294e+00
2.259818964201788294e+00
2.243318460646382295e+00
2.243318460646382295e+00
2.243318460646382295e+00
2.254381298257393418e+00
2.254381298257393418e+00
2.254381298257393418e+00
2.301257728812525105e+00
2.301257728812525105e+00
2.301257728812525105e+00
2.301257728812525105e+00
2.395760612811670409e+00
2.395760612811670409e+00
2.395760612811670409e+00
2.242568437757499922e+00
2.242568437757499922e+00
2.242568437757499922e+00
2.222692831202123909e+00
2.222692831202123909e+00
2.222692831202123909e+00
2.222692831202123909e+00
2.235818231757560781e+00
2.235818231757560781e+00
2.235818231757560781e+00
2.184254158146916147e+00
2.184254158146916147e+00
2.184254158146916147e+00
2.074375804925687294e+00
2.074375804925687294e+00
2.074375804925687294e+00
2.074375804925687294e+00
2.350009216589862060e+00
2.350009216589862060e+00
2.350009216589862060e+00
2.461200109866634289e+00
2.461200109866634289e+00
2.461200109866634289e+00
2.461200109866634289e+00
2.300132694479201767e+00
2.300132694479201767e+00
2.300132694479201767e+00
2.282507156590471986e+00
2.282507156590471986e+00
2.282507156590471986e+00
2.258131412701803509e+00
2.258131412701803509e+00
2.258131412701803509e+00
2.258131412701803509e+00
2.251756218146305777e+00
2.251756218146305777e+00
2.251756218146305777e+00
2.278944547868282378e+00
2.278944547868282378e+00
2.278944547868282378e+00
2.377010040589617734e+00
2.377010040589617734e+00
2.377010040589617734e+00
2.377010040589617734e+00
2.345696584978789634e+00
2.345696584978789634e+00
2.345696584978789634e+00
2.238818323313089387e+00
2.238818323313089387e+00
2.238818323313089387e+00
2.228880520035401602e+00
2.228880520035401602e+00
2.228880520035401602e+00
2.228880520035401602e+00
2.251943723868526259e+00
2.251943723868526259e+00
2.251943723868526259e+00
2.146940519425031280e+00
2.146940519425031280e+00
2.146940519425031280e+00
2.071375713370158689e+00
2.071375713370158689e+00
2.071375713370158689e+00
2.071375713370158689e+00
2.473575487533188788e+00
2.473575487533188788e+00
2.473575487533188788e+00
2.359196996978667915e+00
2.359196996978667915e+00
2.359196996978667915e+00
2.254381298257393418e+00
2.254381298257393418e+00
2.254381298257393418e+00
2.254381298257393418e+00
2.253256263924070080e+00
2.253256263924070080e+00
2.253256263924070080e+00
2.246131046479689974e+00
2.246131046479689974e+00
2.246131046479689974e+00
2.245568529313028083e+00
2.245568529313028083e+00
2.245568529313028083e+00
2.245568529313028083e+00
2.264319101535081202e+00
2.264319101535081202e+00
2.264319101535081202e+00
2.411323587755973996e+00
2.411323587755973996e+00
2.411323587755973996e+00
2.287757316812646824e+00
2.287757316812646824e+00
2.287757316812646824e+00
2.287757316812646824e+00
2.251006195257423848e+00
2.251006195257423848e+00
2.251006195257423848e+00
2.238068300424207457e+00
2.238068300424207457e+00
2.238068300424207457e+00
2.238068300424207457e+00
2.265819147312845505e+00
2.265819147312845505e+00
2.265819147312845505e+00
2.111876949369793088e+00
2.111876949369793088e+00
2.111876949369793088e+00
2.158565874202703849e+00
2.158565874202703849e+00
2.158565874202703849e+00
2.158565874202703849e+00
2.535827387310404024e+00
2.535827387310404024e+00
2.535827387310404024e+00
2.319070772423474924e+00
2.319070772423474924e+00
2.319070772423474924e+00
2.264506607257301685e+00
2.264506607257301685e+00
2.264506607257301685e+00
2.264506607257301685e+00
2.256631366924039650e+00
2.256631366924039650e+00
2.256631366924039650e+00
2.247631092257453833e+00
2.247631092257453833e+00
2.247631092257453833e+00
2.261881527146214044e+00
2.261881527146214044e+00
2.261881527146214044e+00
2.261881527146214044e+00
2.293569994201483109e+00
2.293569994201483109e+00
2.293569994201483109e+00
2.423511459700308013e+00
2.423511459700308013e+00
2.423511459700308013e+00
2.257006378368480615e+00
2.257006378368480615e+00
2.257006378368480615e+00
2.257006378368480615e+00
2.238443311868648422e+00
2.238443311868648422e+00
2.238443311868648422e+00
2.232255623035371173e+00
2.232255623035371173e+00
2.232255623035371173e+00
2.220817773979919085e+00
2.220817773979919085e+00
2.220817773979919085e+00
2.220817773979919085e+00
2.086938688314462720e+00
2.086938688314462720e+00
2.086938688314462720e+00
2.289632374034852091e+00
2.289632374034852091e+00
2.289632374034852091e+00
2.498888760032960121e+00
2.498888760032960121e+00
2.498888760032960121e+00
2.498888760032960121e+00
2.304632831812494231e+00
2.304632831812494231e+00
2.304632831812494231e+00
2.276694479201635701e+00
2.276694479201635701e+00
2.276694479201635701e+00
2.247818597979674760e+00
2.247818597979674760e+00
2.247818597979674760e+00
2.247818597979674760e+00
2.241443403424177028e+00
2.241443403424177028e+00
2.241443403424177028e+00
2.252506241035188150e+00
2.252506241035188150e+00
2.252506241035188150e+00
2.252506241035188150e+00
2.330508621478927012e+00
2.330508621478927012e+00
2.330508621478927012e+00
2.362759605700857524e+00
2.362759605700857524e+00
2.362759605700857524e+00
2.238255806146427940e+00
2.238255806146427940e+00
2.238255806146427940e+00
2.238255806146427940e+00
2.211067476424451339e+00
2.211067476424451339e+00
2.211067476424451339e+00
2.228130497146519229e+00
2.228130497146519229e+00
2.228130497146519229e+00
2.173753837702566916e+00
2.173753837702566916e+00
2.173753837702566916e+00
2.173753837702566916e+00
2.090876308481094181e+00
2.090876308481094181e+00
2.090876308481094181e+00
2.439449446089053009e+00
2.439449446089053009e+00
2.439449446089053009e+00
2.432324228644673347e+00
2.432324228644673347e+00
2.432324228644673347e+00
2.432324228644673347e+00
2.284007202368236289e+00
2.284007202368236289e+00
2.284007202368236289e+00
2.259818964201788294e+00
2.259818964201788294e+00
2.259818964201788294e+00
2.236755760368663637e+00
2.236755760368663637e+00
2.236755760368663637e+00
2.236755760368663637e+00
2.254193792535172935e+00
2.254193792535172935e+00
2.254193792535172935e+00
2.275944456312753772e+00
2.275944456312753772e+00
2.275944456312753772e+00
2.393323038422803695e+00
2.393323038422803695e+00
2.393323038422803695e+00
2.393323038422803695e+00
2.319820795312356854e+00
2.319820795312356854e+00
2.319820795312356854e+00
2.249318643757439062e+00
2.249318643757439062e+00
2.249318643757439062e+00
2.230755577257606870e+00
2.230755577257606870e+00
2.230755577257606870e+00
2.230755577257606870e+00
2.258318918424023991e+00
2.258318918424023991e+00
2.258318918424023991e+00
2.119564683980834197e+00
2.119564683980834197e+00
2.119564683980834197e+00
2.094063905758842381e+00
2.094063905758842381e+00
2.094063905758842381e+00
2.546702719199194664e+00
2.546702719199194664e+00
2.546702719199194664e+00
2.546702719199194664e+00
2.353009308145390222e+00
2.353009308145390222e+00
2.353009308145390222e+00
2.254193792535172935e+00
2.254193792535172935e+00
2.254193792535172935e+00
2.250068666646320992e+00
2.250068666646320992e+00
2.250068666646320992e+00
2.250068666646320992e+00
2.243505966368602778e+00
2.243505966368602778e+00
2.243505966368602778e+00
2.237880794701986531e+00
2.237880794701986531e+00
2.237880794701986531e+00
2.248756126590777171e+00
2.248756126590777171e+00
2.248756126590777171e+00
2.248756126590777171e+00
2.412261116367076408e+00
2.412261116367076408e+00
2.412261116367076408e+00
2.266756675923947917e+00
2.266756675923947917e+00
2.266756675923947917e+00
2.266756675923947917e+00
2.251943723868526259e+00
2.251943723868526259e+00
2.251943723868526259e+00
2.230193060090945423e+00
2.230193060090945423e+00
2.230193060090945423e+00
2.253256263924070080e+00
2.253256263924070080e+00
2.253256263924070080e+00
2.253256263924070080e+00
2.094626422925504272e+00
2.094626422925504272e+00
2.094626422925504272e+00
2.219505233924375265e+00
2.219505233924375265e+00
2.219505233924375265e+00
2.529264687032685366e+00
2.529264687032685366e+00
2.529264687032685366e+00
2.529264687032685366e+00
2.315883175145725836e+00
2.315883175145725836e+00
2.315883175145725836e+00
2.265256630146183614e+00
2.265256630146183614e+00
2.265256630146183614e+00
2.250818689535202921e+00
2.250818689535202921e+00
2.250818689535202921e+00
2.250818689535202921e+00
2.241068391979735619e+00
2.241068391979735619e+00
2.241068391979735619e+00
2.261694021423993561e+00
2.261694021423993561e+00
2.261694021423993561e+00
2.305945371868038052e+00
2.305945371868038052e+00
2.305945371868038052e+00
2.305945371868038052e+00
2.403635853144932444e+00
2.403635853144932444e+00
2.403635853144932444e+00
2.248756126590777171e+00
2.248756126590777171e+00
2.248756126590777171e+00
2.233943174535355514e+00
2.233943174535355514e+00
2.233943174535355514e+00
2.233943174535355514e+00
2.234505691702016961e+00
2.234505691702016961e+00
2.234505691702016961e+00
2.193254432813501520e+00
2.193254432813501520e+00
2.193254432813501520e+00
2.067250587481307633e+00
2.067250587481307633e+00
2.067250587481307633e+00
2.067250587481307633e+00
2.327696035645618888e+00
2.327696035645618888e+00
2.327696035645618888e+00
2.433449262977995797e+00
2.433449262977995797e+00
2.433449262977995797e+00
2.433449262977995797e+00
2.268444227423932702e+00
2.268444227423932702e+00
2.268444227423932702e+00
2.274631916257209951e+00
2.274631916257209951e+00
2.274631916257209951e+00
2.273131870479445649e+00
2.273131870479445649e+00
2.273131870479445649e+00
2.265819147312845505e+00
2.265819147312845505e+00
2.265819147312845505e+00
2.265819147312845505e+00
2.283069673757133433e+00
2.283069673757133433e+00
2.283069673757133433e+00
2.371384868923001932e+00
2.371384868923001932e+00
2.371384868923001932e+00
2.357884456923124095e+00
2.357884456923124095e+00
2.357884456923124095e+00
2.357884456923124095e+00
2.259256447035126847e+00
2.259256447035126847e+00
2.259256447035126847e+00
2.223442854091006282e+00
2.223442854091006282e+00
2.223442854091006282e+00
2.241443403424177028e+00
2.241443403424177028e+00
2.241443403424177028e+00
2.241443403424177028e+00
2.138877773369548763e+00
2.138877773369548763e+00
2.138877773369548763e+00
2.073625782036805365e+00
2.073625782036805365e+00
2.073625782036805365e+00
2.474138004699850679e+00
2.474138004699850679e+00
2.474138004699850679e+00
2.474138004699850679e+00
2.356009399700918827e+00
2.356009399700918827e+00
2.356009399700918827e+00
2.251006195257423848e+00
2.251006195257423848e+00
2.251006195257423848e+00
2.251006195257423848e+00
2.245193517868587563e+00
2.245193517868587563e+00
2.245193517868587563e+00
2.245756035035248566e+00
2.245756035035248566e+00
2.245756035035248566e+00
2.250818689535202921e+00
2.250818689535202921e+00
2.250818689535202921e+00
2.250818689535202921e+00
2.265256630146183614e+00
2.265256630146183614e+00
2.265256630146183614e+00
2.394260567033906106e+00
2.394260567033906106e+00
2.394260567033906106e+00
2.275944456312753772e+00
2.275944456312753772e+00
2.275944456312753772e+00
2.275944456312753772e+00
2.246881069368571904e+00
2.246881069368571904e+00
2.246881069368571904e+00
2.246693563646351421e+00
2.246693563646351421e+00
2.246693563646351421e+00
2.301445234534745587e+00
2.301445234534745587e+00
2.301445234534745587e+00
2.301445234534745587e+00
2.159128391369365740e+00
2.159128391369365740e+00
2.159128391369365740e+00
2.192879421369060555e+00
2.192879421369060555e+00
2.192879421369060555e+00
2.566390820032349751e+00
2.566390820032349751e+00
2.566390820032349751e+00
2.566390820032349751e+00
2.333508713034455617e+00
2.333508713034455617e+00
2.333508713034455617e+00
2.264131595812860720e+00
2.264131595812860720e+00
2.264131595812860720e+00
2.265256630146183614e+00
2.265256630146183614e+00
2.265256630146183614e+00
2.265256630146183614e+00
2.248568620868556689e+00
2.248568620868556689e+00
2.248568620868556689e+00
2.248193609424115724e+00
2.248193609424115724e+00
2.248193609424115724e+00
2.279507065034943825e+00
2.279507065034943825e+00
2.279507065034943825e+00
2.279507065034943825e+00
2.417323770867030763e+00
2.417323770867030763e+00
2.417323770867030763e+00
2.253068758201849597e+00
2.253068758201849597e+00
2.253068758201849597e+00
2.224380382702108694e+00
2.224380382702108694e+00
2.224380382702108694e+00
2.224380382702108694e+00
2.214817590868861874e+00
2.214817590868861874e+00
2.214817590868861874e+00
2.205067293313394572e+00
2.205067293313394572e+00
2.205067293313394572e+00
2.065750541703543330e+00
2.065750541703543330e+00
2.065750541703543330e+00
2.065750541703543330e+00
2.278569536423841413e+00
2.278569536423841413e+00
2.278569536423841413e+00
2.500951322977385871e+00
2.500951322977385871e+00
2.500951322977385871e+00
2.303507797479171337e+00
2.303507797479171337e+00
2.303507797479171337e+00
2.303507797479171337e+00
2.280257087923826198e+00
2.280257087923826198e+00
2.280257087923826198e+00
2.259818964201788294e+00
2.259818964201788294e+00
2.259818964201788294e+00
2.238818323313089387e+00
2.238818323313089387e+00
2.238818323313089387e+00
2.238818323313089387e+00
2.256818872646260132e+00
2.256818872646260132e+00
2.256818872646260132e+00
2.328446058534500818e+00
2.328446058534500818e+00
2.328446058534500818e+00
2.365759697256386129e+00
2.365759697256386129e+00
2.365759697256386129e+00
2.365759697256386129e+00
2.242755943479720404e+00
2.242755943479720404e+00
2.242755943479720404e+00
2.223817865535447247e+00
2.223817865535447247e+00
2.223817865535447247e+00
2.248568620868556689e+00
2.248568620868556689e+00
2.248568620868556689e+00
2.248568620868556689e+00
2.178066469313638454e+00
2.178066469313638454e+00
2.178066469313638454e+00
2.090501297036652772e+00
2.090501297036652772e+00
2.090501297036652772e+00
2.430636677144688562e+00
2.430636677144688562e+00
2.430636677144688562e+00
2.427636585589159957e+00
2.427636585589159957e+00
2.427636585589159957e+00
2.427636585589159957e+00
2.293945005645924073e+00
2.293945005645924073e+00
2.293945005645924073e+00
2.290944914090395912e+00
2.290944914090395912e+00
2.290944914090395912e+00
2.256631366924039650e+00
2.256631366924039650e+00
2.256631366924039650e+00
2.256631366924039650e+00
2.248943632312997654e+00
2.248943632312997654e+00
2.248943632312997654e+00
2.264131595812860720e+00
2.264131595812860720e+00
2.264131595812860720e+00
2.376447523422955843e+00
2.376447523422955843e+00
2.376447523422955843e+00
2.376447523422955843e+00
2.293382488479262626e+00
2.293382488479262626e+00
2.293382488479262626e+00
2.223442854091006282e+00
2.223442854091006282e+00
2.223442854091006282e+00
2.211629993591112786e+00
2.211629993591112786e+00
2.211629993591112786e+00
2.211629993591112786e+00
2.246318552201910457e+00
2.246318552201910457e+00
2.246318552201910457e+00
2.123877315591906623e+00
2.123877315591906623e+00
2.123877315591906623e+00
2.102314157536546269e+00
2.102314157536546269e+00
2.102314157536546269e+00
2.102314157536546269e+00
2.532077272865993045e+00
2.532077272865993045e+00
2.532077272865993045e+00
2.339883907589953349e+00
2.339883907589953349e+00
2.339883907589953349e+00
2.339883907589953349e+00
2.257756401257362544e+00
2.257756401257362544e+00
2.257756401257362544e+00
2.258131412701803509e+00
2.258131412701803509e+00
2.258131412701803509e+00
2.245756035035248566e+00
2.245756035035248566e+00
2.245756035035248566e+00
2.245756035035248566e+00
2.248943632312997654e+00
2.248943632312997654e+00
2.248943632312997654e+00
2.260381481368449741e+00
2.260381481368449741e+00
2.260381481368449741e+00
2.415073702200384531e+00
2.415073702200384531e+00
2.415073702200384531e+00
2.415073702200384531e+00
2.254193792535172935e+00
2.254193792535172935e+00
2.254193792535172935e+00
2.228505508590960638e+00
2.228505508590960638e+00
2.228505508590960638e+00
2.230568071535386387e+00
2.230568071535386387e+00
2.230568071535386387e+00
2.245381023590808045e+00
2.245381023590808045e+00
2.245381023590808045e+00
2.245381023590808045e+00
2.079250953703421168e+00
2.079250953703421168e+00
2.079250953703421168e+00
2.219880245368816230e+00
2.219880245368816230e+00
2.219880245368816230e+00
2.534327341532639721e+00
2.534327341532639721e+00
2.534327341532639721e+00
2.534327341532639721e+00
2.316633198034607766e+00
2.316633198034607766e+00
2.316633198034607766e+00
2.272569353312784202e+00
2.272569353312784202e+00
2.272569353312784202e+00
2.257568895535142062e+00
2.257568895535142062e+00
2.257568895535142062e+00
2.257568895535142062e+00
2.239568346201971760e+00
2.239568346201971760e+00
2.239568346201971760e+00
2.249693655201880027e+00
2.249693655201880027e+00
2.249693655201880027e+00
2.295257545701467894e+00
2.295257545701467894e+00
2.295257545701467894e+00
2.295257545701467894e+00
2.388822901089510786e+00
2.388822901089510786e+00
2.388822901089510786e+00
2.256818872646260132e+00
2.256818872646260132e+00
2.256818872646260132e+00
2.251381206701864812e+00
2.251381206701864812e+00
2.251381206701864812e+00
2.251381206701864812e+00
2.262631550035096417e+00
2.262631550035096417e+00
2.262631550035096417e+00
2.215942625202185212e+00
2.215942625202185212e+00
2.215942625202185212e+00
2.083188573870052185e+00
2.083188573870052185e+00
2.083188573870052185e+00
2.083188573870052185e+00
2.350571733756523507e+00
2.350571733756523507e+00
2.350571733756523507e+00
2.447137180700094561e+00
2.447137180700094561e+00
2.447137180700094561e+00
2.272194341868343237e+00
2.272194341868343237e+00
2.272194341868343237e+00
2.272194341868343237e+00
2.265069124423963132e+00
2.265069124423963132e+00
2.265069124423963132e+00
2.254756309701834383e+00
2.254756309701834383e+00
2.254756309701834383e+00
2.237693288979766049e+00
2.237693288979766049e+00
2.237693288979766049e+00
2.237693288979766049e+00
2.253256263924070080e+00
2.253256263924070080e+00
2.253256263924070080e+00
2.361259559923093665e+00
2.361259559923093665e+00
2.361259559923093665e+00
2.358446974089785542e+00
2.358446974089785542e+00
2.358446974089785542e+00
2.358446974089785542e+00
2.252506241035188150e+00
2.252506241035188150e+00
2.252506241035188150e+00
2.237318277535325084e+00
2.237318277535325084e+00
2.237318277535325084e+00
2.272381847590563719e+00
2.272381847590563719e+00
2.272381847590563719e+00
2.272381847590563719e+00
2.173753837702566916e+00
2.173753837702566916e+00
2.173753837702566916e+00
2.102876674703207716e+00
2.102876674703207716e+00
2.102876674703207716e+00
2.518576860866115208e+00
2.518576860866115208e+00
2.518576860866115208e+00
2.518576860866115208e+00
2.405510910367137711e+00
2.405510910367137711e+00
2.405510910367137711e+00
2.283257179479354360e+00
2.283257179479354360e+00
2.283257179479354360e+00
2.268256721701712220e+00
2.268256721701712220e+00
2.268256721701712220e+00
2.268256721701712220e+00
2.255131321146275347e+00
2.255131321146275347e+00
2.255131321146275347e+00
2.256818872646260132e+00
2.256818872646260132e+00
2.256818872646260132e+00
2.278194524979400004e+00
2.278194524979400004e+00
2.278194524979400004e+00
2.278194524979400004e+00
2.410198553422650658e+00
2.410198553422650658e+00
2.410198553422650658e+00
2.293945005645924073e+00
2.293945005645924073e+00
2.293945005645924073e+00
2.246506057924130939e+00
2.246506057924130939e+00
2.246506057924130939e+00
2.246506057924130939e+00
2.222505325479903426e+00
2.222505325479903426e+00
2.222505325479903426e+00
2.245193517868587563e+00
2.245193517868587563e+00
2.245193517868587563e+00
2.079250953703421168e+00
2.079250953703421168e+00
2.079250953703421168e+00
2.079250953703421168e+00
2.128752464369640052e+00
2.128752464369640052e+00
2.128752464369640052e+00
2.517264320810571387e+00
2.517264320810571387e+00
2.517264320810571387e+00
2.295257545701467894e+00
2.295257545701467894e+00
2.295257545701467894e+00
2.295257545701467894e+00
2.238443311868648422e+00
2.238443311868648422e+00
2.238443311868648422e+00
2.224380382702108694e+00
2.224380382702108694e+00
2.224380382702108694e+00
2.241818414868617992e+00
2.241818414868617992e+00
2.241818414868617992e+00
2.241818414868617992e+00
2.253443769646290562e+00
2.253443769646290562e+00
2.253443769646290562e+00
2.282694662312692468e+00
2.282694662312692468e+00
2.282694662312692468e+00
2.416386242255928352e+00
2.416386242255928352e+00
2.416386242255928352e+00
2.416386242255928352e+00
2.262444044312875935e+00
2.262444044312875935e+00
2.262444044312875935e+00
2.244631000701926116e+00
2.244631000701926116e+00
2.244631000701926116e+00
2.236943266090884119e+00
2.236943266090884119e+00
2.236943266090884119e+00
2.236943266090884119e+00
2.233568163090914993e+00
2.233568163090914993e+00
2.233568163090914993e+00
2.088626239814447505e+00
2.088626239814447505e+00
2.088626239814447505e+00
2.289257362590411127e+00
2.289257362590411127e+00
2.289257362590411127e+00
2.289257362590411127e+00
2.498513748588519157e+00
2.498513748588519157e+00
2.498513748588519157e+00
2.280632099368266719e+00
2.280632099368266719e+00
2.280632099368266719e+00
2.270506790368358452e+00
2.270506790368358452e+00
2.270506790368358452e+00
2.270506790368358452e+00
2.267694204535050773e+00
2.267694204535050773e+00
2.267694204535050773e+00
2.262819055757316900e+00
2.262819055757316900e+00
2.262819055757316900e+00
2.252881252479629115e+00
2.252881252479629115e+00
2.252881252479629115e+00
2.252881252479629115e+00
2.310445509201330516e+00
2.310445509201330516e+00
2.310445509201330516e+00
2.357884456923124095e+00
2.357884456923124095e+00
2.357884456923124095e+00
2.245381023590808045e+00
2.245381023590808045e+00
2.245381023590808045e+00
2.245381023590808045e+00
2.249693655201880027e+00
2.249693655201880027e+00
2.249693655201880027e+00
2.275381939146092325e+00
2.275381939146092325e+00
2.275381939146092325e+00
2.193816949980162967e+00
2.193816949980162967e+00
2.193816949980162967e+00
2.193816949980162967e+00
2.073250770592364400e+00
2.073250770592364400e+00
2.073250770592364400e+00
2.396510635700552783e+00
2.396510635700552783e+00
2.396510635700552783e+00
2.396323129978331856e+00
2.396323129978331856e+00
2.396323129978331856e+00
2.396323129978331856e+00
2.257568895535142062e+00
2.257568895535142062e+00
2.257568895535142062e+00
2.266381664479506952e+00
2.266381664479506952e+00
2.266381664479506952e+00
2.266381664479506952e+00
2.268069215979491737e+00
2.268069215979491737e+00
2.268069215979491737e+00
2.264881618701742649e+00
2.264881618701742649e+00
2.264881618701742649e+00
2.269756767479476078e+00
2.269756767479476078e+00
2.269756767479476078e+00
2.269756767479476078e+00
2.392573015533921321e+00
2.392573015533921321e+00
2.392573015533921321e+00
2.331633655812249906e+00
2.331633655812249906e+00
2.331633655812249906e+00
2.266006653035065987e+00
2.266006653035065987e+00
2.266006653035065987e+00
2.266006653035065987e+00
2.236568254646443155e+00
2.236568254646443155e+00
2.236568254646443155e+00
2.255506332590716312e+00
2.255506332590716312e+00
2.255506332590716312e+00
2.120314706869716570e+00
2.120314706869716570e+00
2.120314706869716570e+00
2.120314706869716570e+00
2.082251045258949329e+00
2.082251045258949329e+00
2.082251045258949329e+00
2.523639515366069563e+00
2.523639515366069563e+00
2.523639515366069563e+00
2.347946653645436310e+00
2.347946653645436310e+00
2.347946653645436310e+00
2.347946653645436310e+00
2.262444044312875935e+00
2.262444044312875935e+00
2.262444044312875935e+00
2.252318735312967224e+00
2.252318735312967224e+00
2.252318735312967224e+00
2.240880886257515137e+00
2.240880886257515137e+00
2.240880886257515137e+00
2.240880886257515137e+00
2.242005920590838475e+00
2.242005920590838475e+00
2.242005920590838475e+00
2.258881435590685438e+00
2.258881435590685438e+00
2.258881435590685438e+00
2.424261482589190386e+00
2.424261482589190386e+00
2.424261482589190386e+00
2.424261482589190386e+00
2.282694662312692468e+00
2.282694662312692468e+00
2.282694662312692468e+00
2.245756035035248566e+00
2.245756035035248566e+00
2.245756035035248566e+00
2.238818323313089387e+00
2.238818323313089387e+00
2.238818323313089387e+00
2.238818323313089387e+00
2.255881344035157721e+00
2.255881344035157721e+00
2.255881344035157721e+00
2.086938688314462720e+00
2.086938688314462720e+00
2.086938688314462720e+00
2.086938688314462720e+00
2.210129947813348927e+00
2.210129947813348927e+00
2.210129947813348927e+00
2.521764458143864296e+00
2.521764458143864296e+00
2.521764458143864296e+00
2.305945371868038052e+00
2.305945371868038052e+00
2.305945371868038052e+00
2.305945371868038052e+00
2.278944547868282378e+00
2.278944547868282378e+00
2.278944547868282378e+00
2.259443952757347329e+00
2.259443952757347329e+00
2.259443952757347329e+00
2.240505874813074172e+00
2.240505874813074172e+00
2.240505874813074172e+00
2.247818597979674760e+00
2.247818597979674760e+00
2.247818597979674760e+00
2.247818597979674760e+00
2.285694753868221074e+00
2.285694753868221074e+00
2.285694753868221074e+00
2.387510361033966966e+00
2.387510361033966966e+00
2.387510361033966966e+00
2.387510361033966966e+00
2.226442945646534444e+00
2.226442945646534444e+00
2.226442945646534444e+00
2.200567155980101663e+00
2.200567155980101663e+00
2.200567155980101663e+00
2.228880520035401602e+00
2.228880520035401602e+00
2.228880520035401602e+00
2.228880520035401602e+00
2.212942533646656607e+00
2.212942533646656607e+00
2.212942533646656607e+00
2.107376812036500180e+00
2.107376812036500180e+00
2.107376812036500180e+00
2.361447065645314147e+00
2.361447065645314147e+00
2.361447065645314147e+00
2.361447065645314147e+00
2.452199835200048916e+00
2.452199835200048916e+00
2.452199835200048916e+00
2.267881710257271255e+00
2.267881710257271255e+00
2.267881710257271255e+00
2.255693838312936794e+00
2.255693838312936794e+00
2.255693838312936794e+00
2.255693838312936794e+00
2.250818689535202921e+00
2.250818689535202921e+00
2.250818689535202921e+00
2.247068575090792386e+00
2.247068575090792386e+00
2.247068575090792386e+00
2.260381481368449741e+00
2.260381481368449741e+00
2.260381481368449741e+00
2.260381481368449741e+00
2.357134434034241721e+00
2.357134434034241721e+00
2.357134434034241721e+00
2.346071596423230599e+00
2.346071596423230599e+00
2.346071596423230599e+00
2.251006195257423848e+00
2.251006195257423848e+00
2.251006195257423848e+00
2.251006195257423848e+00
2.248756126590777171e+00
2.248756126590777171e+00
2.248756126590777171e+00
2.264131595812860720e+00
2.264131595812860720e+00
2.264131595812860720e+00
2.161753471480452937e+00
2.161753471480452937e+00
2.161753471480452937e+00
2.161753471480452937e+00
2.094251411481063307e+00
2.094251411481063307e+00
2.094251411481063307e+00
2.503576403088473068e+00
2.503576403088473068e+00
2.503576403088473068e+00
2.389947935422834124e+00
2.389947935422834124e+00
2.389947935422834124e+00
2.389947935422834124e+00
2.282132145146031021e+00
2.282132145146031021e+00
2.282132145146031021e+00
2.270881801812799416e+00
2.270881801812799416e+00
2.270881801812799416e+00
2.251006195257423848e+00
2.251006195257423848e+00
2.251006195257423848e+00
2.251006195257423848e+00
2.249131138035218136e+00
2.249131138035218136e+00
2.249131138035218136e+00
2.265256630146183614e+00
2.265256630146183614e+00
2.265256630146183614e+00
2.396885647144993747e+00
2.396885647144993747e+00
2.396885647144993747e+00
2.396885647144993747e+00
2.273506881923887057e+00
2.273506881923887057e+00
2.273506881923887057e+00
2.209379924924466998e+00
2.209379924924466998e+00
2.209379924924466998e+00
2.207317361980041248e+00
2.207317361980041248e+00
2.207317361980041248e+00
2.207317361980041248e+00
2.259631458479567812e+00
2.259631458479567812e+00
2.259631458479567812e+00
2.109814386425366894e+00
2.109814386425366894e+00
2.109814386425366894e+00
2.164566057313760616e+00
2.164566057313760616e+00
2.164566057313760616e+00
2.164566057313760616e+00
2.553640430921353843e+00
2.553640430921353843e+00
2.553640430921353843e+00
2.319445783867915889e+00
2.319445783867915889e+00
2.319445783867915889e+00
2.257943906979583026e+00
2.257943906979583026e+00
2.257943906979583026e+00
2.257943906979583026e+00
2.254943815424054865e+00
2.254943815424054865e+00
2.254943815424054865e+00
2.228130497146519229e+00
2.228130497146519229e+00
2.228130497146519229e+00
2.247631092257453833e+00
2.247631092257453833e+00
2.247631092257453833e+00
2.247631092257453833e+00
2.302757774590289408e+00
2.302757774590289408e+00
2.302757774590289408e+00
2.440761986144596829e+00
2.440761986144596829e+00
2.440761986144596829e+00
2.265444135868404540e+00
2.265444135868404540e+00
2.265444135868404540e+00
2.265444135868404540e+00
2.264694112979522167e+00
2.264694112979522167e+00
2.264694112979522167e+00
2.276319467757194737e+00
2.276319467757194737e+00
2.276319467757194737e+00
2.272756859035004684e+00
2.272756859035004684e+00
2.272756859035004684e+00
2.272756859035004684e+00
2.097626514481032878e+00
2.097626514481032878e+00
2.097626514481032878e+00
2.275194433423871843e+00
2.275194433423871843e+00
2.275194433423871843e+00
2.478263130588702179e+00
2.478263130588702179e+00
2.478263130588702179e+00
2.478263130588702179e+00
2.267694204535050773e+00
2.267694204535050773e+00
2.267694204535050773e+00
2.246506057924130939e+00
2.246506057924130939e+00
2.246506057924130939e+00
2.246506057924130939e+00
2.236005737479781263e+00
2.236005737479781263e+00
2.236005737479781263e+00
2.228880520035401602e+00
2.228880520035401602e+00
2.228880520035401602e+00
2.248381115146336207e+00
2.248381115146336207e+00
2.248381115146336207e+00
2.248381115146336207e+00
2.328071047090059853e+00
2.328071047090059853e+00
2.328071047090059853e+00
2.367072237311929506e+00
2.367072237311929506e+00
2.367072237311929506e+00
2.243693472090823260e+00
2.243693472090823260e+00
2.243693472090823260e+00
2.243693472090823260e+00
2.224005371257667729e+00
2.224005371257667729e+00
2.224005371257667729e+00
2.242380932035279439e+00
2.242380932035279439e+00
2.242380932035279439e+00
2.182566606646931362e+00
2.182566606646931362e+00
2.182566606646931362e+00
2.182566606646931362e+00
2.084688619647816488e+00
2.084688619647816488e+00
2.084688619647816488e+00
2.417323770867030763e+00
2.417323770867030763e+00
2.417323770867030763e+00
2.416948759422589799e+00
2.416948759422589799e+00
2.416948759422589799e+00
2.416948759422589799e+00
2.267694204535050773e+00
2.267694204535050773e+00
2.267694204535050773e+00
2.265256630146183614e+00
2.265256630146183614e+00
2.265256630146183614e+00
2.260756492812891150e+00
2.260756492812891150e+00
2.260756492812891150e+00
2.260756492812891150e+00
2.259068941312906365e+00
2.259068941312906365e+00
2.259068941312906365e+00
2.276319467757194737e+00
2.276319467757194737e+00
2.276319467757194737e+00
2.388447889645069822e+00
2.388447889645069822e+00
2.388447889645069822e+00
2.388447889645069822e+00
2.309320474868007622e+00
2.309320474868007622e+00
2.309320474868007622e+00
2.231130588702047834e+00
2.231130588702047834e+00
2.231130588702047834e+00
2.213505050813318054e+00
2.213505050813318054e+00
2.213505050813318054e+00
2.213505050813318054e+00
2.242005920590838475e+00
2.242005920590838475e+00
2.242005920590838475e+00
2.120689718314157535e+00
2.120689718314157535e+00
2.120689718314157535e+00
2.094813928647724754e+00
2.094813928647724754e+00
2.094813928647724754e+00
2.094813928647724754e+00
2.535827387310404024e+00
2.535827387310404024e+00
2.535827387310404024e+00
2.356009399700918827e+00
2.356009399700918827e+00
2.356009399700918827e+00
2.272381847590563719e+00
2.272381847590563719e+00
2.272381847590563719e+00
2.272381847590563719e+00
2.275381939146092325e+00
2.275381939146092325e+00
2.275381939146092325e+00
2.250443678090761956e+00
2.250443678090761956e+00
2.250443678090761956e+00
2.244068483535264225e+00
2.244068483535264225e+00
2.244068483535264225e+00
2.244068483535264225e+00
2.257381389812921579e+00
2.257381389812921579e+00
2.257381389812921579e+00
2.399885738700521909e+00
2.399885738700521909e+00
2.399885738700521909e+00
2.235255714590899334e+00
2.235255714590899334e+00
2.235255714590899334e+00
2.235255714590899334e+00
2.195504501480147752e+00
2.195504501480147752e+00
2.195504501480147752e+00
2.225317911313211550e+00
2.225317911313211550e+00
2.225317911313211550e+00
2.225317911313211550e+00
2.290007385479293500e+00
2.290007385479293500e+00
2.290007385479293500e+00
2.124439832758568070e+00
2.124439832758568070e+00
2.124439832758568070e+00
2.252881252479629115e+00
2.252881252479629115e+00
2.252881252479629115e+00
2.252881252479629115e+00
2.563390728476821145e+00
2.563390728476821145e+00
2.563390728476821145e+00
2.332571184423352761e+00
2.332571184423352761e+00
2.332571184423352761e+00
2.286257271034882521e+00
2.286257271034882521e+00
2.286257271034882521e+00
2.286257271034882521e+00
2.290194891201513983e+00
2.290194891201513983e+00
2.290194891201513983e+00
2.260568987090670667e+00
2.260568987090670667e+00
2.260568987090670667e+00
2.251756218146305777e+00
2.251756218146305777e+00
2.251756218146305777e+00
2.251756218146305777e+00
2.277069490646077110e+00
2.277069490646077110e+00
2.277069490646077110e+00
2.367259743034150432e+00
2.367259743034150432e+00
2.367259743034150432e+00
2.219317728202154782e+00
2.219317728202154782e+00
2.219317728202154782e+00
2.217442670979949515e+00
2.217442670979949515e+00
2.217442670979949515e+00
2.232818140202032620e+00
2.232818140202032620e+00
2.188379284035767647e+00
2.188379284035767647e+00
2.065375530259102366e+00
2.065375530259102366e+00
2.323383404034546906e+00
2.323383404034546906e+00
2.438699423200171079e+00
2.438699423200171079e+00
2.438699423200171079e+00
2.269006744590594149e+00
2.269006744590594149e+00
2.278007019257179522e+00
2.278007019257179522e+00
2.276131962034974254e+00
2.276131962034974254e+00
2.238443311868648422e+00
2.238443311868648422e+00
2.250818689535202921e+00
2.250818689535202921e+00
2.325633472701193583e+00
2.325633472701193583e+00
2.330508621478927012e+00
2.330508621478927012e+00
2.225130405590991067e+00
2.225130405590991067e+00
2.191941892757957699e+00
2.191941892757957699e+00
2.217630176702169997e+00
2.217630176702169997e+00
2.217630176702169997e+00
2.126877407147435228e+00
2.126877407147435228e+00
2.055437726981414581e+00
2.055437726981414581e+00
2.461762627033295736e+00
2.461762627033295736e+00
2.396135624256111374e+00
2.396135624256111374e+00
2.285319742423780109e+00
2.285319742423780109e+00
2.279882076479384789e+00
2.279882076479384789e+00
2.248193609424115724e+00
2.248193609424115724e+00
2.238818323313089387e+00
2.238818323313089387e+00
2.244255989257484707e+00
2.244255989257484707e+00
2.244255989257484707e+00
2.403448347422711961e+00
2.403448347422711961e+00
2.353759331034272151e+00
2.353759331034272151e+00
2.350384228034303025e+00
2.350384228034303025e+00
2.312320566423536228e+00
2.312320566423536228e+00
2.307632923368022837e+00
2.307632923368022837e+00
2.114502029480880285e+00
2.114502029480880285e+00
2.131002533036286284e+00
2.131002533036286284e+00
2.528139652699362028e+00
2.528139652699362028e+00
2.528139652699362028e+00
2.314945646534623425e+00
2.314945646534623425e+00
2.226067934202093479e+00
2.226067934202093479e+00
2.212755027924436124e+00
2.212755027924436124e+00
2.223817865535447247e+00
2.223817865535447247e+00
2.224380382702108694e+00
2.224380382702108694e+00
2.263194067201757864e+00
2.263194067201757864e+00
2.409823541978209693e+00
2.409823541978209693e+00
2.266194158757286470e+00
2.266194158757286470e+00
2.260381481368449741e+00
2.260381481368449741e+00
2.260381481368449741e+00
2.293757499923703591e+00
2.293757499923703591e+00
2.294507522812585520e+00
2.294507522812585520e+00
2.126502395702994264e+00
2.126502395702994264e+00
2.307257911923581428e+00
2.307257911923581428e+00
2.504513931699575480e+00
2.504513931699575480e+00
2.292632465590380253e+00
2.292632465590380253e+00
2.279694570757164307e+00
2.279694570757164307e+00
2.256256355479598685e+00
2.256256355479598685e+00
2.229068025757622085e+00
2.229068025757622085e+00
2.229068025757622085e+00
2.258693929868464956e+00
2.258693929868464956e+00
2.353571825312051669e+00
2.353571825312051669e+00
2.412448622089296890e+00
2.412448622089296890e+00
2.283632190923795324e+00
2.283632190923795324e+00
2.232255623035371173e+00
2.232255623035371173e+00
2.203004730368968822e+00
2.203004730368968822e+00
2.118064638203069894e+00
2.118064638203069894e+00
2.026936857203894160e+00
2.026936857203894160e+00
2.026936857203894160e+00
2.392760521256141804e+00
2.392760521256141804e+00
2.413011139255958781e+00
2.413011139255958781e+00
2.270319284646137969e+00
2.270319284646137969e+00
2.283632190923795324e+00
2.283632190923795324e+00
2.264881618701742649e+00
2.264881618701742649e+00
2.216880153813287624e+00
2.216880153813287624e+00
2.206004821924497428e+00
2.206004821924497428e+00
2.314008117923521013e+00
2.314008117923521013e+00
2.254006286812952009e+00
2.254006286812952009e+00
2.254006286812952009e+00
2.184066652424695665e+00
2.184066652424695665e+00
2.191004364146854844e+00
2.191004364146854844e+00
2.265256630146183614e+00
2.265256630146183614e+00
2.160628437147130043e+00
2.160628437147130043e+00
2.104939237647633021e+00
2.104939237647633021e+00
2.497013702810754854e+00
2.497013702810754854e+00
2.305570360423596643e+00
2.305570360423596643e+00
2.221380291146580532e+00
2.221380291146580532e+00
2.221380291146580532e+00
2.231505600146489243e+00
2.231505600146489243e+00
2.223255348368785356e+00
2.223255348368785356e+00
2.243130954924161813e+00
2.243130954924161813e+00
2.289257362590411127e+00
2.289257362590411127e+00
2.483513290810876573e+00
2.483513290810876573e+00
2.345696584978789634e+00
2.345696584978789634e+00
2.298445142979216982e+00
2.298445142979216982e+00
2.263006561479537382e+00
2.263006561479537382e+00
2.263006561479537382e+00
2.281194616534928166e+00
2.281194616534928166e+00
2.100251594592120075e+00
2.100251594592120075e+00
2.185566698202459968e+00
2.185566698202459968e+00
2.478075624866481697e+00
2.478075624866481697e+00
2.260381481368449741e+00
2.260381481368449741e+00
2.216317636646626177e+00
2.216317636646626177e+00
2.241818414868617992e+00
2.241818414868617992e+00
2.277069490646077110e+00
2.277069490646077110e+00
2.301445234534745587e+00
2.301445234534745587e+00
2.301445234534745587e+00
2.341946470534379099e+00
2.341946470534379099e+00
2.433261757255775315e+00
2.433261757255775315e+00
2.278757042146061895e+00
2.278757042146061895e+00
2.247443586535233351e+00
2.247443586535233351e+00
2.269194250312814631e+00
2.269194250312814631e+00
2.237318277535325084e+00
2.237318277535325084e+00
2.124814844203009478e+00
2.124814844203009478e+00
2.410761070589312105e+00
2.410761070589312105e+00
2.512951689199499850e+00
2.512951689199499850e+00
2.512951689199499850e+00
2.317758232367931104e+00
2.317758232367931104e+00
2.311758049256874337e+00
2.311758049256874337e+00
2.327508529923398850e+00
2.327508529923398850e+00
2.346634113589892490e+00
2.346634113589892490e+00
2.370447340311899076e+00
2.370447340311899076e+00
2.419761345255897922e+00
2.419761345255897922e+00
2.330883632923367976e+00
2.330883632923367976e+00
2.152940702536088047e+00
2.152940702536088047e+00
2.152940702536088047e+00
2.116939603869747000e+00
2.116939603869747000e+00
2.169253700369274007e+00
2.169253700369274007e+00
2.064250495925779028e+00
2.064250495925779028e+00
2.036124637592700015e+00
2.036124637592700015e+00
2.480325693533127485e+00
2.480325693533127485e+00
2.367822260200811879e+00
2.367822260200811879e+00
2.244068483535264225e+00
2.244068483535264225e+00
2.252693746757408633e+00
2.252693746757408633e+00
2.252693746757408633e+00
2.245381023590808045e+00
2.245381023590808045e+00
2.238818323313089387e+00
2.238818323313089387e+00
2.261319009979552597e+00
2.261319009979552597e+00
2.355446882534256936e+00
2.355446882534256936e+00
2.228693014313181120e+00
2.228693014313181120e+00
2.183504135258034218e+00
2.183504135258034218e+00
2.156315805536057617e+00
2.156315805536057617e+00
2.185566698202459968e+00
2.185566698202459968e+00
2.185566698202459968e+00
2.047374980925931620e+00
2.047374980925931620e+00
2.121252235480818982e+00
2.121252235480818982e+00
2.538077455977050256e+00
2.538077455977050256e+00
2.302195257423627517e+00
2.302195257423627517e+00
2.253256263924070080e+00
2.253256263924070080e+00
2.302007751701407035e+00
2.302007751701407035e+00
2.310258003479110034e+00
2.310258003479110034e+00
2.328446058534500818e+00
2.328446058534500818e+00
2.365197180089724238e+00
2.365197180089724238e+00
2.365197180089724238e+00
2.500388805810724424e+00
2.500388805810724424e+00
2.308570451979125249e+00
2.308570451979125249e+00
2.236755760368663637e+00
2.236755760368663637e+00
2.222317819757682944e+00
2.222317819757682944e+00
2.218380199591051927e+00
2.218380199591051927e+00
2.082251045258949329e+00
2.082251045258949329e+00
2.288507339701529197e+00
2.288507339701529197e+00
2.534514847254860204e+00
2.534514847254860204e+00
2.534514847254860204e+00
2.358259468367565059e+00
2.358259468367565059e+00
2.370447340311899076e+00
2.370447340311899076e+00
2.354884365367595489e+00
2.354884365367595489e+00
2.294695028534806447e+00
2.294695028534806447e+00
2.278944547868282378e+00
2.278944547868282378e+00
2.308382946256904766e+00
2.308382946256904766e+00
2.333133701590014208e+00
2.333133701590014208e+00
2.170566240424817828e+00
2.170566240424817828e+00
2.170566240424817828e+00
2.127064912869655711e+00
2.127064912869655711e+00
2.149940610980559885e+00
2.149940610980559885e+00
2.100251594592120075e+00
2.100251594592120075e+00
2.024124271370586037e+00
2.024124271370586037e+00
2.364447157200842309e+00
2.364447157200842309e+00
2.387510361033966966e+00
2.387510361033966966e+00
2.284007202368236289e+00
2.284007202368236289e+00
2.290757408368175430e+00
2.290757408368175430e+00
2.269944273201696561e+00
2.269944273201696561e+00
2.269944273201696561e+00
2.247068575090792386e+00
2.247068575090792386e+00
2.258131412701803509e+00
2.258131412701803509e+00
2.429699148533585706e+00
2.429699148533585706e+00
2.378135074922940628e+00
2.378135074922940628e+00
2.286257271034882521e+00
2.286257271034882521e+00
2.230755577257606870e+00
2.230755577257606870e+00
2.224380382702108694e+00
2.224380382702108694e+00
2.059750358592486119e+00
2.059750358592486119e+00
2.059750358592486119e+00
2.023374248481704107e+00
2.023374248481704107e+00
2.446012146366771223e+00
2.446012146366771223e+00
2.253256263924070080e+00
2.253256263924070080e+00
2.160628437147130043e+00
2.160628437147130043e+00
2.174503860591448845e+00
2.174503860591448845e+00
2.214630085146641392e+00
2.214630085146641392e+00
2.280444593646046680e+00
2.280444593646046680e+00
2.309507980590228104e+00
2.309507980590228104e+00
2.309507980590228104e+00
2.525514572588274831e+00
2.525514572588274831e+00
2.447887203588976490e+00
2.447887203588976490e+00
2.449762260811182202e+00
2.449762260811182202e+00
2.447699697866756008e+00
2.447699697866756008e+00
2.358071962645344577e+00
2.358071962645344577e+00
2.162128482924894346e+00
2.162128482924894346e+00
2.248943632312997654e+00
2.248943632312997654e+00
2.488575945310831372e+00
2.488575945310831372e+00
2.240693380535294654e+00
2.240693380535294654e+00
2.240693380535294654e+00
2.204129764702292160e+00
2.204129764702292160e+00
2.207879879146702695e+00
2.207879879146702695e+00
2.206754844813379357e+00
2.206754844813379357e+00
2.232818140202032620e+00
2.232818140202032620e+00
2.290757408368175430e+00
2.290757408368175430e+00
2.401760795922727176e+00
2.401760795922727176e+00
2.269006744590594149e+00
2.269006744590594149e+00
2.267694204535050773e+00
2.267694204535050773e+00
2.267694204535050773e+00
2.275569444868312807e+00
2.275569444868312807e+00
2.254568803979613900e+00
2.254568803979613900e+00
2.100251594592120075e+00
2.100251594592120075e+00
2.313820612201300086e+00
2.313820612201300086e+00
2.416573747978148834e+00
2.416573747978148834e+00
2.271819330423901828e+00
2.271819330423901828e+00
2.297695120090334608e+00
2.297695120090334608e+00
2.303132786034730373e+00
2.303132786034730373e+00
2.303132786034730373e+00
2.308570451979125249e+00
2.308570451979125249e+00
2.391635486922818910e+00
2.391635486922818910e+00
2.449387249366740793e+00
2.449387249366740793e+00
2.342883999145481511e+00
2.342883999145481511e+00
2.183504135258034218e+00
2.183504135258034218e+00
2.127064912869655711e+00
2.127064912869655711e+00
2.120877224036378017e+00
2.120877224036378017e+00
2.029186925870540392e+00
2.029186925870540392e+00
2.029186925870540392e+00
1.998623493148594665e+00
1.998623493148594665e+00
2.447512192144535526e+00
2.447512192144535526e+00
2.371947386089663379e+00
2.371947386089663379e+00
2.227005462813196335e+00
2.227005462813196335e+00
2.206567339091158875e+00
2.206567339091158875e+00
2.160628437147130043e+00
2.160628437147130043e+00
2.145815485091708386e+00
2.145815485091708386e+00
2.189316812646870059e+00
2.189316812646870059e+00
2.350384228034303025e+00
2.350384228034303025e+00
2.350384228034303025e+00
2.234505691702016961e+00
2.234505691702016961e+00
2.212005005035553751e+00
2.212005005035553751e+00
2.212942533646656607e+00
2.212942533646656607e+00
2.236005737479781263e+00
2.236005737479781263e+00
2.137002716147343495e+00
2.137002716147343495e+00
2.246693563646351421e+00
2.246693563646351421e+00
2.686956999420148318e+00
2.686956999420148318e+00
2.503951414532914033e+00
2.503951414532914033e+00
2.422761436811426083e+00
2.422761436811426083e+00
2.422761436811426083e+00
2.360509537034211291e+00
2.360509537034211291e+00
2.299757683034760802e+00
2.299757683034760802e+00
2.244255989257484707e+00
2.244255989257484707e+00
2.188941801202429094e+00
2.188941801202429094e+00
2.266194158757286470e+00
2.266194158757286470e+00
2.091813837092196593e+00
2.091813837092196593e+00
2.105126743369853504e+00
2.105126743369853504e+00
2.164378551591540134e+00
2.164378551591540134e+00
2.164378551591540134e+00
2.204504776146733125e+00
2.204504776146733125e+00
2.052437635425885976e+00
2.052437635425885976e+00
2.250443678090761956e+00
2.250443678090761956e+00
2.480138187810907002e+00
2.480138187810907002e+00
2.323945921201208797e+00
2.323945921201208797e+00
2.284382213812677254e+00
2.284382213812677254e+00
2.218755211035493335e+00
2.218755211035493335e+00
2.143940427869502674e+00
2.143940427869502674e+00
2.151065645313883223e+00
2.151065645313883223e+00
2.238068300424207457e+00
2.238068300424207457e+00
2.291882442701498768e+00
2.291882442701498768e+00
2.167003631702627775e+00
2.167003631702627775e+00
2.222505325479903426e+00
2.222505325479903426e+00
2.262069032868434526e+00
2.262069032868434526e+00
2.262069032868434526e+00
2.105689260536515395e+00
2.105689260536515395e+00
2.001811090426343309e+00
2.001811090426343309e+00
2.386385326700643628e+00
2.386385326700643628e+00
2.494013611255226248e+00
2.494013611255226248e+00
2.419948850978118404e+00
2.419948850978118404e+00
2.353946836756492633e+00
2.353946836756492633e+00
2.327321024201178368e+00
2.327321024201178368e+00
2.327321024201178368e+00
2.350196722312082542e+00
2.350196722312082542e+00
2.444324594866786882e+00
2.444324594866786882e+00
2.576141117587817053e+00
2.576141117587817053e+00
2.532264778588213971e+00
2.532264778588213971e+00
2.477138096255378841e+00
2.477138096255378841e+00
2.460262581255531433e+00
2.460262581255531433e+00
2.389385418256172233e+00
2.389385418256172233e+00
2.181441572313608468e+00
2.181441572313608468e+00
2.181441572313608468e+00
2.059375347148045154e+00
2.059375347148045154e+00
2.467200292977691056e+00
2.467200292977691056e+00
2.310070497756889552e+00
2.310070497756889552e+00
2.237318277535325084e+00
2.237318277535325084e+00
2.273506881923887057e+00
2.273506881923887057e+00
2.286632282479323930e+00
2.286632282479323930e+00
2.253631275368511044e+00
2.253631275368511044e+00
2.233193151646474028e+00
2.233193151646474028e+00
2.233193151646474028e+00
2.388260383922848895e+00
2.388260383922848895e+00
2.226817957090975852e+00
2.226817957090975852e+00
2.208442396313364142e+00
2.208442396313364142e+00
2.206379833368938392e+00
2.206379833368938392e+00
2.232443128757591655e+00
2.232443128757591655e+00
2.162128482924894346e+00
2.162128482924894346e+00
2.307070406201360946e+00
2.307070406201360946e+00
2.555140476699118146e+00
2.555140476699118146e+00
2.555140476699118146e+00
2.252318735312967224e+00
2.252318735312967224e+00
2.164566057313760616e+00
2.164566057313760616e+00
2.098189031647694325e+00
2.098189031647694325e+00
2.052062623981445011e+00
2.052062623981445011e+00
2.063312967314676172e+00
2.063312967314676172e+00
2.090688802758873255e+00
2.090688802758873255e+00
2.223067842646564873e+00
2.223067842646564873e+00
2.159503402813806705e+00
2.159503402813806705e+00
2.159503402813806705e+00
2.204129764702292160e+00
2.204129764702292160e+00
2.226630451368755370e+00
2.226630451368755370e+00
2.183879146702475182e+00
2.183879146702475182e+00
2.037437177648243392e+00
2.037437177648243392e+00
2.219880245368816230e+00
2.219880245368816230e+00
2.275381939146092325e+00
2.275381939146092325e+00
2.066313058870204777e+00
2.066313058870204777e+00
2.050562578203680708e+00
2.050562578203680708e+00
2.050562578203680708e+00
2.026186834315011787e+00
2.026186834315011787e+00
2.037062166203802427e+00
2.037062166203802427e+00
2.115814569536424106e+00
2.115814569536424106e+00
2.339696401867732423e+00
2.339696401867732423e+00
2.495888668477431516e+00
2.495888668477431516e+00
2.461200109866634289e+00
2.461200109866634289e+00
2.364822168645283273e+00
2.364822168645283273e+00
2.307257911923581428e+00
2.307257911923581428e+00
2.193254432813501520e+00
2.193254432813501520e+00
2.193254432813501520e+00
2.162315988647114828e+00
2.162315988647114828e+00
2.628455214087344061e+00
2.628455214087344061e+00
2.529452192754905848e+00
2.529452192754905848e+00
2.442449537644581614e+00
2.442449537644581614e+00
2.509014069032868388e+00
2.509014069032868388e+00
2.467387798699911539e+00
2.467387798699911539e+00
2.342696493423261028e+00
2.342696493423261028e+00
2.261319009979552597e+00
2.261319009979552597e+00
2.261319009979552597e+00
2.380760155034028269e+00
2.380760155034028269e+00
2.274444410534989469e+00
2.274444410534989469e+00
2.241255897701956545e+00
2.241255897701956545e+00
2.276131962034974254e+00
2.276131962034974254e+00
2.255131321146275347e+00
2.255131321146275347e+00
2.025811822870570822e+00
2.025811822870570822e+00
1.980997955259865106e+00
1.980997955259865106e+00
2.355634388256477418e+00
2.355634388256477418e+00
2.355634388256477418e+00
2.189316812646870059e+00
2.189316812646870059e+00
2.123689809869686140e+00
2.123689809869686140e+00
2.161378460036011973e+00
2.161378460036011973e+00
2.239005829035309869e+00
2.239005829035309869e+00
2.341758964812158617e+00
2.341758964812158617e+00
2.338571367534409973e+00
2.338571367534409973e+00
2.503013885921811621e+00
2.503013885921811621e+00
2.409636036255989211e+00
2.409636036255989211e+00
2.409636036255989211e+00
2.414698690755943566e+00
2.414698690755943566e+00
2.433636768700216724e+00
2.433636768700216724e+00
2.444512100589007364e+00
2.444512100589007364e+00
2.145065462202826012e+00
2.145065462202826012e+00
2.245381023590808045e+00
2.245381023590808045e+00
2.419761345255897922e+00
2.419761345255897922e+00
2.184066652424695665e+00
2.184066652424695665e+00
2.051312601092562637e+00
2.051312601092562637e+00
1.987748161259804025e+00
1.987748161259804025e+00
1.987748161259804025e+00
2.001998596148564236e+00
2.001998596148564236e+00
1.951372051149021791e+00
1.951372051149021791e+00
2.021499191259499284e+00
2.021499191259499284e+00
2.136065187536240639e+00
2.136065187536240639e+00
2.046437452314828764e+00
2.046437452314828764e+00
2.048312509537034032e+00
2.048312509537034032e+00
2.098189031647694325e+00
2.098189031647694325e+00
2.094813928647724754e+00
2.094813928647724754e+00
2.143002899258400262e+00
2.143002899258400262e+00
2.143002899258400262e+00
2.633142857142857007e+00
2.633142857142857007e+00
2.649455854976042968e+00
2.649455854976042968e+00
2.442824549089022579e+00
2.442824549089022579e+00
2.323570909756767389e+00
2.323570909756767389e+00
2.257193884090700653e+00
2.257193884090700653e+00
2.308007934812463802e+00
2.308007934812463802e+00
2.424823999755851833e+00
2.424823999755851833e+00
2.553452925199133361e+00
2.553452925199133361e+00
2.432699240089114312e+00
2.432699240089114312e+00
2.432699240089114312e+00
2.361822077089755112e+00
2.361822077089755112e+00
2.349071687978759204e+00
2.349071687978759204e+00
2.364072145756401344e+00
2.364072145756401344e+00
2.258131412701803509e+00
2.258131412701803509e+00
2.236005737479781263e+00
2.236005737479781263e+00
2.703645008697775243e+00
2.703645008697775243e+00
2.521576952421643814e+00
2.521576952421643814e+00
2.393885555589465142e+00
2.393885555589465142e+00
2.393885555589465142e+00
2.246131046479689974e+00
2.246131046479689974e+00
1.964497451704458886e+00
1.964497451704458886e+00
1.844681295205542026e+00
1.844681295205542026e+00
1.806430127872554747e+00
1.806430127872554747e+00
1.968060060426648716e+00
1.968060060426648716e+00
1.996373424481948211e+00
1.996373424481948211e+00
2.202817224646748340e+00
2.202817224646748340e+00
2.408698507644886799e+00
2.408698507644886799e+00
2.408698507644886799e+00
2.447887203588976490e+00
2.447887203588976490e+00
2.216505142368846659e+00
2.216505142368846659e+00
2.352634296700948813e+00
2.352634296700948813e+00
2.653580980864894912e+00
2.653580980864894912e+00
2.403260841700491479e+00
2.403260841700491479e+00
2.283444685201574842e+00
2.283444685201574842e+00
2.342883999145481511e+00
2.342883999145481511e+00
2.351321756645405436e+00
2.351321756645405436e+00
2.351321756645405436e+00
2.398948210089419053e+00
2.398948210089419053e+00
2.368759788811914291e+00
2.368759788811914291e+00
2.368009765923032361e+00
2.368009765923032361e+00
2.209192419202246516e+00
2.209192419202246516e+00
2.190629352702413879e+00
2.190629352702413879e+00
2.346446607867672007e+00
2.346446607867672007e+00
2.356009399700918827e+00
2.356009399700918827e+00
2.187441755424664791e+00
2.187441755424664791e+00
2.187441755424664791e+00
2.386385326700643628e+00
2.386385326700643628e+00
2.516514297921689458e+00
2.516514297921689458e+00
2.305570360423596643e+00
2.305570360423596643e+00
2.186504226813562823e+00
2.186504226813562823e+00
1.980060426648762473e+00
1.980060426648762473e+00
1.690926602984710314e+00
1.690926602984710314e+00
1.537734427930540049e+00
1.537734427930540049e+00
1.668238410596026400e+00
1.668238410596026400e+00
1.668238410596026400e+00
1.764053834650715746e+00
1.764053834650715746e+00
1.765366374706259345e+00
1.765366374706259345e+00
1.932246467482528152e+00
1.932246467482528152e+00
2.213505050813318054e+00
2.213505050813318054e+00
2.469825373088778253e+00
2.469825373088778253e+00
2.728020752586443720e+00
2.728020752586443720e+00
3.316413708914456748e+00
3.316413708914456748e+00
3.307413434247871376e+00
3.307413434247871376e+00
3.307413434247871376e+00
2.996153935361796972e+00
2.996153935361796972e+00
2.587203955198828176e+00
2.587203955198828176e+00
2.382447706534013054e+00
2.382447706534013054e+00
2.241630909146397510e+00
2.241630909146397510e+00
2.047374980925931620e+00
2.047374980925931620e+00
2.123877315591906623e+00
2.123877315591906623e+00
2.122564775536362802e+00
2.122564775536362802e+00
2.220067751091036712e+00
2.220067751091036712e+00
2.220067751091036712e+00
2.109064363536484965e+00
2.109064363536484965e+00
2.011186376537369647e+00
2.011186376537369647e+00
1.853306558427686435e+00
1.853306558427686435e+00
1.857056672872096970e+00
1.857056672872096970e+00
2.271819330423901828e+00
2.271819330423901828e+00
2.222130314035462462e+00
2.222130314035462462e+00
2.337821344645527599e+00
2.337821344645527599e+00
2.341571459089938134e+00
2.341571459089938134e+00
2.426699056978057101e+00
2.426699056978057101e+00
2.426699056978057101e+00
2.462137638477736701e+00
2.462137638477736701e+00
2.527389629810480098e+00
2.527389629810480098e+00
2.626767662587359276e+00
2.626767662587359276e+00
2.395948118533890892e+00
2.395948118533890892e+00
2.347571642200994901e+00
2.347571642200994901e+00
2.239568346201971760e+00
2.239568346201971760e+00
2.082626056703390294e+00
2.082626056703390294e+00
1.899245460371715488e+00
1.899245460371715488e+00
2.118252143925290376e+00
2.118252143925290376e+00
2.213317545091097571e+00
2.213317545091097571e+00
2.213317545091097571e+00
1.900933011871700273e+00
1.900933011871700273e+00
1.938996673482467070e+00
1.938996673482467070e+00
2.149565599536118921e+00
2.149565599536118921e+00
2.451824823755607952e+00
2.451824823755607952e+00
2.607454573198645154e+00
2.607454573198645154e+00
2.491576036866359534e+00
2.491576036866359534e+00
2.335946287423322332e+00
2.335946287423322332e+00
2.241818414868617992e+00
2.241818414868617992e+00
2.241818414868617992e+00
2.228880520035401602e+00
2.228880520035401602e+00
2.187629261146885273e+00
2.187629261146885273e+00
2.004248664815210468e+00
2.004248664815210468e+00
1.903745597705008175e+00
1.903745597705008175e+00
2.260756492812891150e+00
2.260756492812891150e+00
2.419573839533677440e+00
2.419573839533677440e+00
2.376635029145176325e+00
2.376635029145176325e+00
2.315883175145725836e+00
2.315883175145725836e+00
2.315883175145725836e+00
2.395760612811670409e+00
2.395760612811670409e+00
2.382447706534013054e+00
2.382447706534013054e+00
2.467575304422132465e+00
2.467575304422132465e+00
2.628642719809564543e+00
2.628642719809564543e+00
2.483513290810876573e+00
2.483513290810876573e+00
2.430449171422468080e+00
2.430449171422468080e+00
2.257381389812921579e+00
2.257381389812921579e+00
2.230568071535386387e+00
2.230568071535386387e+00
2.230568071535386387e+00
2.315695669423505798e+00
2.315695669423505798e+00
2.345321573534348669e+00
2.345321573534348669e+00
2.496638691366313889e+00
2.496638691366313889e+00
2.151440656758324188e+00
2.151440656758324188e+00
1.898682943205053819e+00
1.898682943205053819e+00
1.810367748039185765e+00
1.810367748039185765e+00
1.870182073427533842e+00
1.870182073427533842e+00
1.960747337260048351e+00
1.960747337260048351e+00
1.960747337260048351e+00
2.004623676259651432e+00
2.004623676259651432e+00
2.392010498367259874e+00
2.392010498367259874e+00
2.298445142979216982e+00
2.298445142979216982e+00
2.264131595812860720e+00
2.264131595812860720e+00
2.263569078646198829e+00
2.263569078646198829e+00
2.312695577867977192e+00
2.312695577867977192e+00
2.110939420758690233e+00
2.110939420758690233e+00
2.224755394146549659e+00
2.224755394146549659e+00
2.224755394146549659e+00
2.657331095309305002e+00
2.657331095309305002e+00
2.595454206976531619e+00
2.595454206976531619e+00
2.676456678975799086e+00
2.676456678975799086e+00
2.672144047364726660e+00
2.672144047364726660e+00
2.561703176976836804e+00
2.561703176976836804e+00
2.308382946256904766e+00
2.308382946256904766e+00
2.132502578814050587e+00
2.132502578814050587e+00
2.063312967314676172e+00
2.063312967314676172e+00
2.063312967314676172e+00
1.856119144260994336e+00
1.856119144260994336e+00
1.766491409039582683e+00
1.766491409039582683e+00
1.768366466261787728e+00
1.768366466261787728e+00
1.942934293649098310e+00
1.942934293649098310e+00
2.180504043702505612e+00
2.180504043702505612e+00
2.658081118198186932e+00
2.658081118198186932e+00
2.894150822473830154e+00
2.894150822473830154e+00
2.624705099642933526e+00
2.624705099642933526e+00
2.624705099642933526e+00
2.584391369365520497e+00
2.584391369365520497e+00
2.409073519089327764e+00
2.409073519089327764e+00
2.262256538590655452e+00
2.262256538590655452e+00
2.326758507034516477e+00
2.326758507034516477e+00
2.460450086977751916e+00
2.460450086977751916e+00
2.441136997589037794e+00
2.441136997589037794e+00
2.263756584368419311e+00
2.263756584368419311e+00
2.179566515091402756e+00
2.179566515091402756e+00
2.179566515091402756e+00
2.209379924924466998e+00
2.209379924924466998e+00
2.019061616870632125e+00
2.019061616870632125e+00
1.782241889706106752e+00
1.782241889706106752e+00
2.245943540757469048e+00
2.245943540757469048e+00
2.465887752922147680e+00
2.465887752922147680e+00
2.683394390697958265e+00
2.683394390697958265e+00
2.812585833307901240e+00
2.812585833307901240e+00
2.604641987365337030e+00
2.604641987365337030e+00
2.454824915311136557e+00
2.454824915311136557e+00
2.454824915311136557e+00
2.415823725089266905e+00
2.415823725089266905e+00
2.458200018311105683e+00
2.458200018311105683e+00
2.055250221259193655e+00
2.055250221259193655e+00
1.765928891872921014e+00
1.765928891872921014e+00
1.828743308816797475e+00
1.828743308816797475e+00
1.944246833704641908e+00
1.944246833704641908e+00
1.719239967040009809e+00
1.719239967040009809e+00
1.764241340372936229e+00
1.764241340372936229e+00
2.340821436201055761e+00
2.340821436201055761e+00
2.315320657979064389e+00
2.315320657979064389e+00
2.315320657979064389e+00
2.413198644978179264e+00
2.413198644978179264e+00
2.580641254921109962e+00
2.580641254921109962e+00
2.583641346476638123e+00
2.583641346476638123e+00
2.524202032532731454e+00
2.524202032532731454e+00
2.517639332255012796e+00
2.517639332255012796e+00
2.516889309366130423e+00
2.516889309366130423e+00
2.131002533036286284e+00
2.131002533036286284e+00
2.036687154759361462e+00
2.036687154759361462e+00
2.036687154759361462e+00
2.211442487868892304e+00
2.211442487868892304e+00
2.430449171422468080e+00
2.430449171422468080e+00
2.264694112979522167e+00
2.264694112979522167e+00
2.327508529923398850e+00
2.327508529923398850e+00
2.504888943144016888e+00
2.504888943144016888e+00
2.377572557756279181e+00
2.377572557756279181e+00
2.378135074922940628e+00
2.378135074922940628e+00
2.314008117923521013e+00
2.314008117923521013e+00
2.314008117923521013e+00
2.139627796258431136e+00
2.139627796258431136e+00
1.991685781426435042e+00
1.991685781426435042e+00
2.056187749870296511e+00
2.056187749870296511e+00
2.167566148869289222e+00
2.167566148869289222e+00
2.166253608813745402e+00
2.166253608813745402e+00
2.156128299813837135e+00
2.156128299813837135e+00
2.204879787591174090e+00
2.204879787591174090e+00
2.343446516312143402e+00
2.343446516312143402e+00
2.343446516312143402e+00
2.285507248146000592e+00
2.285507248146000592e+00
2.454262398144474666e+00
2.454262398144474666e+00
2.413011139255958781e+00
2.413011139255958781e+00
2.352259285256507848e+00
2.352259285256507848e+00
2.326008484145634547e+00
2.326008484145634547e+00
2.295070039979247412e+00
2.295070039979247412e+00
2.385635303811762142e+00
2.385635303811762142e+00
2.464950224311044824e+00
2.464950224311044824e+00
2.651518417920468718e+00
2.651518417920468718e+00
2.539577501754814115e+00
2.539577501754814115e+00
2.539577501754814115e+00
2.274631916257209951e+00
2.274631916257209951e+00
1.902058046205023389e+00
1.902058046205023389e+00
1.490482985930967175e+00
1.490482985930967175e+00
1.266788659321878674e+00
1.266788659321878674e+00
1.317040192876979932e+00
1.317040192876979932e+00
1.979872920926541990e+00
1.979872920926541990e+00
2.080750999481185470e+00
2.080750999481185470e+00
2.488200933866389963e+00
2.488200933866389963e+00
2.488200933866389963e+00
2.853274575029755677e+00
2.853274575029755677e+00
2.874462721640675067e+00
2.874462721640675067e+00
2.873525193029572655e+00
2.873525193029572655e+00
2.766646931363872408e+00
2.766646931363872408e+00
2.839399151585436876e+00
2.839399151585436876e+00
2.584953886532181944e+00
2.584953886532181944e+00
2.407573473311563461e+00
2.407573473311563461e+00
2.371759880367442896e+00
2.371759880367442896e+00
2.371759880367442896e+00
2.324695944090090727e+00
2.324695944090090727e+00
2.107189306314279698e+00
2.107189306314279698e+00
2.066313058870204777e+00
2.066313058870204777e+00
2.137565233314004942e+00
2.137565233314004942e+00
1.763116306039613113e+00
1.763116306039613113e+00
1.646675252540665824e+00
1.646675252540665824e+00
1.794242255928220509e+00
1.794242255928220509e+00
2.014748985259559699e+00
2.014748985259559699e+00
2.325445966978973100e+00
2.325445966978973100e+00
2.325445966978973100e+00
2.687332010864589726e+00
2.687332010864589726e+00
2.987716177861873046e+00
2.987716177861873046e+00
2.669143955809198054e+00
2.669143955809198054e+00
2.482013245033112270e+00
2.482013245033112270e+00
2.413573656422620228e+00
2.413573656422620228e+00
2.344384044923245813e+00
2.344384044923245813e+00
2.125752372814111890e+00
2.125752372814111890e+00
2.253818781090731527e+00
2.253818781090731527e+00
2.253818781090731527e+00
2.306695394756919981e+00
2.306695394756919981e+00
2.214067567979979945e+00
2.214067567979979945e+00
2.205442304757835537e+00
2.205442304757835537e+00
2.223630359813226764e+00
2.223630359813226764e+00
2.069313150425733383e+00
2.069313150425733383e+00
1.989998229926450479e+00
1.989998229926450479e+00
2.173003814813684542e+00
2.173003814813684542e+00
2.317195715201269657e+00
2.317195715201269657e+00
2.235443220313119816e+00
2.235443220313119816e+00
2.201504684591204519e+00
2.201504684591204519e+00
2.201504684591204519e+00
2.203004730368968822e+00
2.203004730368968822e+00
1.992435804315317194e+00
1.992435804315317194e+00
1.722990081484420344e+00
1.722990081484420344e+00
1.898870448927274301e+00
1.898870448927274301e+00
1.744365733817560216e+00
1.744365733817560216e+00
1.662238227484969633e+00
1.662238227484969633e+00
1.987935666982024729e+00
1.987935666982024729e+00
2.402323313089388623e+00
2.402323313089388623e+00
2.949840021973326731e+00
2.949840021973326731e+00
3.108844874416333504e+00
3.108844874416333504e+00
3.186097231971190435e+00
3.186097231971190435e+00
3.186097231971190435e+00
2.986591143528550152e+00
2.986591143528550152e+00
2.907838740195928917e+00
2.907838740195928917e+00
2.884588030640583778e+00
2.884588030640583778e+00
2.752584002197332680e+00
2.752584002197332680e+00
2.423511459700308013e+00
2.423511459700308013e+00
2.285132236701559627e+00
2.285132236701559627e+00
2.591516586809900158e+00
2.591516586809900158e+00
2.297882625812555535e+00
2.297882625812555535e+00
2.297882625812555535e+00
2.134002624591814889e+00
2.134002624591814889e+00
2.126877407147435228e+00
2.126877407147435228e+00
2.115064546647541732e+00
2.115064546647541732e+00
2.062562944425794242e+00
2.062562944425794242e+00
1.949309488204596263e+00
1.949309488204596263e+00
2.011748893704031538e+00
2.011748893704031538e+00
1.924558732871486599e+00
1.924558732871486599e+00
2.034812097537156195e+00
2.034812097537156195e+00
2.034812097537156195e+00
2.044937406537064906e+00
2.044937406537064906e+00
2.047374980925931620e+00
2.047374980925931620e+00
2.006311227759636218e+00
2.006311227759636218e+00
2.385260292367321178e+00
2.385260292367321178e+00
2.622267525254066367e+00
2.622267525254066367e+00
2.304257820368053267e+00
2.304257820368053267e+00
2.223067842646564873e+00
2.223067842646564873e+00
2.273694387646107540e+00
2.273694387646107540e+00
2.273694387646107540e+00
2.294132511368144556e+00
2.294132511368144556e+00
2.285132236701559627e+00
2.285132236701559627e+00
2.372697408978545752e+00
2.372697408978545752e+00
2.439449446089053009e+00
2.439449446089053009e+00
2.334633747367778511e+00
2.334633747367778511e+00
2.205817316202276945e+00
2.205817316202276945e+00
2.103064180425428198e+00
2.103064180425428198e+00
1.994310861537522683e+00
1.994310861537522683e+00
1.994310861537522683e+00
1.849931455427716864e+00
1.849931455427716864e+00
2.148253059480575100e+00
2.148253059480575100e+00
2.229255531479842567e+00
2.229255531479842567e+00
2.287944822534867306e+00
2.287944822534867306e+00
2.343634022034363884e+00
2.343634022034363884e+00
2.330133610034486047e+00
2.330133610034486047e+00
2.299382671590319838e+00
2.299382671590319838e+00
2.356946928312021239e+00
2.356946928312021239e+00
2.356946928312021239e+00
2.595266701254311137e+00
2.595266701254311137e+00
2.338571367534409973e+00
2.338571367534409973e+00
2.061625415814691387e+00
2.061625415814691387e+00
1.969935117648853984e+00
1.969935117648853984e+00
2.130440015869624837e+00
2.130440015869624837e+00
2.196629535813471090e+00
2.196629535813471090e+00
2.229630542924283532e+00
2.229630542924283532e+00
2.648330820642719630e+00
2.648330820642719630e+00
2.648330820642719630e+00
2.620392468031861544e+00
2.620392468031861544e+00
2.610642170476393797e+00
2.610642170476393797e+00
2.706082583086641957e+00
2.706082583086641957e+00
2.627705191198462131e+00
2.627705191198462131e+00
2.415073702200384531e+00
2.415073702200384531e+00
2.171503769035920239e+00
2.171503769035920239e+00
2.217817682424390480e+00
2.217817682424390480e+00
2.004248664815210468e+00
2.004248664815210468e+00
2.004248664815210468e+00
2.003498641926328094e+00
2.003498641926328094e+00
2.009686330759605788e+00
2.009686330759605788e+00
2.096876491592150504e+00
2.096876491592150504e+00
1.998998504593035630e+00
1.998998504593035630e+00
2.225505417035432032e+00
2.225505417035432032e+00
2.620392468031861544e+00
2.620392468031861544e+00
2.469825373088778253e+00
2.469825373088778253e+00
2.466075258644368162e+00
2.466075258644368162e+00
2.410573564867091623e+00
2.410573564867091623e+00
2.410573564867091623e+00
2.266381664479506952e+00
2.266381664479506952e+00
2.095001434369945237e+00
2.095001434369945237e+00
2.013998962370677770e+00
2.013998962370677770e+00
2.130815027314065802e+00
2.130815027314065802e+00
2.015686513870662555e+00
2.015686513870662555e+00
2.116002075258644588e+00
2.116002075258644588e+00
2.199817133091219734e+00
2.199817133091219734e+00
2.220442762535478121e+00
2.220442762535478121e+00
2.147315530869472244e+00
2.147315530869472244e+00
2.147315530869472244e+00
2.359196996978667915e+00
2.359196996978667915e+00
2.430261665700247153e+00
2.430261665700247153e+00
2.204692281868953607e+00
2.204692281868953607e+00
2.253818781090731527e+00
2.253818781090731527e+00
2.516139286477248493e+00
2.516139286477248493e+00
2.597891781365397890e+00
2.597891781365397890e+00
2.497951231421857266e+00
2.497951231421857266e+00
2.530952238532670151e+00
2.530952238532670151e+00
2.478075624866481697e+00
2.478075624866481697e+00
2.478075624866481697e+00
2.379260109256263966e+00
2.379260109256263966e+00
2.303320291756950855e+00
2.303320291756950855e+00
2.285319742423780109e+00
2.285319742423780109e+00
2.126689901425214746e+00
2.126689901425214746e+00
2.056750267036957958e+00
2.056750267036957958e+00
2.519701895199438546e+00
2.519701895199438546e+00
2.334446241645558029e+00
2.334446241645558029e+00
2.138877773369548763e+00
2.138877773369548763e+00
2.138877773369548763e+00
2.139440290536210654e+00
2.139440290536210654e+00
2.190629352702413879e+00
2.190629352702413879e+00
2.227005462813196335e+00
2.227005462813196335e+00
2.344009033478804849e+00
2.344009033478804849e+00
2.559640614032411055e+00
2.559640614032411055e+00
2.382072695089572090e+00
2.382072695089572090e+00
2.253256263924070080e+00
2.253256263924070080e+00
2.157253334147160473e+00
2.157253334147160473e+00
2.157253334147160473e+00
2.034624591814935712e+00
2.034624591814935712e+00
1.747740836817529786e+00
1.747740836817529786e+00
1.740428113650929198e+00
1.740428113650929198e+00
2.225317911313211550e+00
2.225317911313211550e+00
2.156315805536057617e+00
2.156315805536057617e+00
2.165503585924863472e+00
2.165503585924863472e+00
2.261131504257332114e+00
2.261131504257332114e+00
2.469825373088778253e+00
2.469825373088778253e+00
2.469825373088778253e+00
2.717520432142094045e+00
2.717520432142094045e+00
2.884400524918362851e+00
2.884400524918362851e+00
2.910276314584795632e+00
2.910276314584795632e+00
2.506388988921781191e+00
2.506388988921781191e+00
2.276881984923856628e+00
2.276881984923856628e+00
2.118627155369731785e+00
2.118627155369731785e+00
2.043624866481521085e+00
2.043624866481521085e+00
1.856681661427655783e+00
1.856681661427655783e+00
1.926996307260353314e+00
1.926996307260353314e+00
1.926996307260353314e+00
2.106439283425397324e+00
2.106439283425397324e+00
1.934684041871395088e+00
1.934684041871395088e+00
1.906370677816095593e+00
1.906370677816095593e+00
2.019999145481734981e+00
2.019999145481734981e+00
2.204692281868953607e+00
2.204692281868953607e+00
2.509951597643971244e+00
2.509951597643971244e+00
2.868462538529618300e+00
2.868462538529618300e+00
2.959590319528794478e+00
2.959590319528794478e+00
2.729333292641987541e+00
2.729333292641987541e+00
2.729333292641987541e+00
2.543140110477004168e+00
2.543140110477004168e+00
2.412073610644855925e+00
2.412073610644855925e+00
2.251943723868526259e+00
2.251943723868526259e+00
2.106439283425397324e+00
2.106439283425397324e+00
2.392573015533921321e+00
2.392573015533921321e+00
2.333508713034455617e+00
2.333508713034455617e+00
2.116002075258644588e+00
2.116002075258644588e+00
2.140190313425092139e+00
2.140190313425092139e+00
2.140190313425092139e+00
2.158003357036042402e+00
2.158003357036042402e+00
2.155753288369396170e+00
2.155753288369396170e+00
2.188191778313547164e+00
2.188191778313547164e+00
2.327321024201178368e+00
2.327321024201178368e+00
2.316445692312387283e+00
2.316445692312387283e+00
2.186879238258003344e+00
2.186879238258003344e+00
2.038374706259346247e+00
2.038374706259346247e+00
2.033687063203833301e+00
2.033687063203833301e+00
2.033687063203833301e+00
1.952872096926786094e+00
1.952872096926786094e+00
1.940309213538010891e+00
1.940309213538010891e+00
2.401760795922727176e+00
2.401760795922727176e+00
2.316070680867946319e+00
2.316070680867946319e+00
2.309320474868007622e+00
2.309320474868007622e+00
2.185941709646900932e+00
2.185941709646900932e+00
1.982310495315408927e+00
1.982310495315408927e+00
1.888182622760704366e+00
1.888182622760704366e+00
1.874494705038605824e+00
1.874494705038605824e+00
1.874494705038605824e+00
2.085438642536698417e+00
2.085438642536698417e+00
2.113752006591998356e+00
2.113752006591998356e+00
2.381322672200689716e+00
2.381322672200689716e+00
2.731020844141972326e+00
2.731020844141972326e+00
2.938777184362315609e+00
2.938777184362315609e+00
2.718457960753196900e+00
2.718457960753196900e+00
2.656768578142643555e+00
2.656768578142643555e+00
2.849899472029786107e+00
2.849899472029786107e+00
2.519889400921659028e+00
2.519889400921659028e+00
2.351509262367625919e+00
2.351509262367625919e+00
2.270506790368358452e+00
2.270506790368358452e+00
2.270506790368358452e+00
2.170753746147038310e+00
2.170753746147038310e+00
2.093501388592180934e+00
2.093501388592180934e+00
2.028999420148319910e+00
2.028999420148319910e+00
2.121439741203039464e+00
2.121439741203039464e+00
2.050562578203680708e+00
2.050562578203680708e+00
2.097251503036591469e+00
2.097251503036591469e+00
2.120877224036378017e+00
2.120877224036378017e+00
2.175441389202551257e+00
2.175441389202551257e+00
2.175441389202551257e+00
2.178253975035859380e+00
2.178253975035859380e+00
2.479950682088686964e+00
2.479950682088686964e+00
2.642705648976104271e+00
2.642705648976104271e+00
2.388260383922848895e+00
2.388260383922848895e+00
2.256818872646260132e+00
2.256818872646260132e+00
2.255131321146275347e+00
2.255131321146275347e+00
2.223817865535447247e+00
2.223817865535447247e+00
2.204879787591174090e+00
2.204879787591174090e+00
2.204879787591174090e+00
2.245193517868587563e+00
2.245193517868587563e+00
2.239005829035309869e+00
2.239005829035309869e+00
2.169441206091494490e+00
2.169441206091494490e+00
2.200004638813440216e+00
2.200004638813440216e+00
2.184254158146916147e+00
2.184254158146916147e+00
2.044749900814844423e+00
2.044749900814844423e+00
1.915370952482680744e+00
1.915370952482680744e+00
2.215380108035523765e+00
2.215380108035523765e+00
2.146002990813928868e+00
2.146002990813928868e+00
2.146002990813928868e+00
2.055062715536973172e+00
2.055062715536973172e+00
2.125002349925229961e+00
2.125002349925229961e+00
2.239755851924192243e+00
2.239755851924192243e+00
2.398010681478316641e+00
2.398010681478316641e+00
2.599579332865382675e+00
2.599579332865382675e+00
2.906713705862605579e+00
2.906713705862605579e+00
2.759709219641712785e+00
2.759709219641712785e+00
2.599954344309823639e+00
2.599954344309823639e+00
2.533577318643757348e+00
2.533577318643757348e+00
2.533577318643757348e+00
2.498513748588519157e+00
2.498513748588519157e+00
2.286632282479323930e+00
2.286632282479323930e+00
2.242943449201941331e+00
2.242943449201941331e+00
2.572203497421186036e+00
2.572203497421186036e+00
2.309507980590228104e+00
2.309507980590228104e+00
2.213505050813318054e+00
2.213505050813318054e+00
2.218005188146610962e+00
2.218005188146610962e+00
2.209379924924466998e+00
2.209379924924466998e+00
2.209379924924466998e+00
2.176941434980315559e+00
2.176941434980315559e+00
2.149940610980559885e+00
2.149940610980559885e+00
2.210879970702230857e+00
2.210879970702230857e+00
1.967685048982207752e+00
1.967685048982207752e+00
1.901120517593920756e+00
1.901120517593920756e+00
1.869432050538651691e+00
1.869432050538651691e+00
1.900933011871700273e+00
1.900933011871700273e+00
1.854244087038789068e+00
1.854244087038789068e+00
1.854244087038789068e+00
2.194941984313486305e+00
2.194941984313486305e+00
2.633142857142857007e+00
2.633142857142857007e+00
2.591141575365459193e+00
2.591141575365459193e+00
2.612142216254158100e+00
2.612142216254158100e+00
2.564328257087923557e+00
2.564328257087923557e+00
2.498326242866298674e+00
2.498326242866298674e+00
2.399135715811639535e+00
2.399135715811639535e+00
2.378322580645161111e+00
2.378322580645161111e+00
2.378322580645161111e+00
2.376822534867396808e+00
2.376822534867396808e+00
2.185566698202459968e+00
2.185566698202459968e+00
2.132127567369609622e+00
2.132127567369609622e+00
2.092376354258858040e+00
2.092376354258858040e+00
2.001998596148564236e+00
2.001998596148564236e+00
1.881244911038544965e+00
1.881244911038544965e+00
2.163441022980437278e+00
2.163441022980437278e+00
2.243318460646382295e+00
2.243318460646382295e+00
2.206004821924497428e+00
2.206004821924497428e+00
2.206004821924497428e+00
2.257193884090700653e+00
2.257193884090700653e+00
2.334821253089998994e+00
2.334821253089998994e+00
2.395760612811670409e+00
2.395760612811670409e+00
2.436261848811303921e+00
2.436261848811303921e+00
2.540515030365916971e+00
2.540515030365916971e+00
2.425574022644734207e+00
2.425574022644734207e+00
2.306320383312479017e+00
2.306320383312479017e+00
2.279882076479384789e+00
2.279882076479384789e+00
2.301632740256966070e+00
2.301632740256966070e+00
2.301632740256966070e+00
2.188191778313547164e+00
2.188191778313547164e+00
2.170378734702597345e+00
2.170378734702597345e+00
2.544265144810327506e+00
2.544265144810327506e+00
2.296195074312570750e+00
2.296195074312570750e+00
2.158190862758262885e+00
2.158190862758262885e+00
2.177691457869197489e+00
2.177691457869197489e+00
2.166628620258186366e+00
2.166628620258186366e+00
2.113752006591998356e+00
2.113752006591998356e+00
2.127064912869655711e+00
2.127064912869655711e+00
2.127064912869655711e+00
2.304820337534714714e+00
2.304820337534714714e+00
2.181066560869167059e+00
2.181066560869167059e+00
2.186504226813562823e+00
2.186504226813562823e+00
2.240693380535294654e+00
2.240693380535294654e+00
2.333321207312235135e+00
2.333321207312235135e+00
2.219505233924375265e+00
2.219505233924375265e+00
2.348134159367656792e+00
2.348134159367656792e+00
2.718645466475417383e+00
2.718645466475417383e+00
2.718645466475417383e+00
2.512389172032837958e+00
2.512389172032837958e+00
2.435136814477980582e+00
2.435136814477980582e+00
2.374197454756310055e+00
2.374197454756310055e+00
2.311758049256874337e+00
2.311758049256874337e+00
2.250443678090761956e+00
2.250443678090761956e+00
2.217067659535508550e+00
2.217067659535508550e+00
2.286819788201544412e+00
2.286819788201544412e+00
2.112251960814234053e+00
2.112251960814234053e+00
2.112251960814234053e+00
2.073438276314584883e+00
2.073438276314584883e+00
2.111876949369793088e+00
2.111876949369793088e+00
2.178628986480300345e+00
2.178628986480300345e+00
2.084126102481154597e+00
2.084126102481154597e+00
2.245756035035248566e+00
2.245756035035248566e+00
2.320383312479018745e+00
2.320383312479018745e+00
2.141877864925076924e+00
2.141877864925076924e+00
2.139815301980651618e+00
2.139815301980651618e+00
2.139815301980651618e+00
2.124814844203009478e+00
2.124814844203009478e+00
2.139065279091769245e+00
2.139065279091769245e+00
2.236005737479781263e+00
2.236005737479781263e+00
2.481638233588671305e+00
2.481638233588671305e+00
2.609329630420849977e+00
2.609329630420849977e+00
2.532827295754875419e+00
2.532827295754875419e+00
2.480325693533127485e+00
2.480325693533127485e+00
2.459325052644428578e+00
2.459325052644428578e+00
2.459325052644428578e+00
2.368197271645252844e+00
2.368197271645252844e+00
2.211067476424451339e+00
2.211067476424451339e+00
2.507889034699545494e+00
2.507889034699545494e+00
2.416386242255928352e+00
2.416386242255928352e+00
2.266569170201727434e+00
2.266569170201727434e+00
2.250256172368541474e+00
2.250256172368541474e+00
2.259443952757347329e+00
2.259443952757347329e+00
2.254756309701834383e+00
2.254756309701834383e+00
2.254756309701834383e+00
2.264131595812860720e+00
2.264131595812860720e+00
2.388072878200628413e+00
2.388072878200628413e+00
2.234318185979796478e+00
2.234318185979796478e+00
2.166441114535965884e+00
2.166441114535965884e+00
2.167191137424848257e+00
2.167191137424848257e+00
2.208817407757805107e+00
2.208817407757805107e+00
2.072500747703482027e+00
2.072500747703482027e+00
2.110189397869807859e+00
2.110189397869807859e+00
2.110189397869807859e+00
2.544452650532547988e+00
2.544452650532547988e+00
2.357884456923124095e+00
2.357884456923124095e+00
2.275194433423871843e+00
2.275194433423871843e+00
2.270131778923917043e+00
2.270131778923917043e+00
2.225692922757652514e+00
2.225692922757652514e+00
2.168503677480392078e+00
2.168503677480392078e+00
2.083938596758934114e+00
2.083938596758934114e+00
2.165316080202642990e+00
2.165316080202642990e+00
2.165316080202642990e+00
2.002186101870784718e+00
2.002186101870784718e+00
2.018874111148411643e+00
2.018874111148411643e+00
2.048125003814813549e+00
2.048125003814813549e+00
2.127627430036317158e+00
2.127627430036317158e+00
2.116002075258644588e+00
2.116002075258644588e+00
2.440011963255714900e+00
2.440011963255714900e+00
2.821398602252265686e+00
2.821398602252265686e+00
2.618517410809656276e+00
2.618517410809656276e+00
2.618517410809656276e+00
2.531889767143772563e+00
2.531889767143772563e+00
2.449387249366740793e+00
2.449387249366740793e+00
2.396510635700552783e+00
2.396510635700552783e+00
2.344196539201025331e+00
2.344196539201025331e+00
2.350759239478743989e+00
2.350759239478743989e+00
2.390135441145054607e+00
2.390135441145054607e+00
2.252693746757408633e+00
2.252693746757408633e+00
2.223442854091006282e+00
2.223442854091006282e+00
2.243880977813043742e+00
2.243880977813043742e+00
2.163816034424878687e+00
2.163816034424878687e+00
2.163816034424878687e+00
2.055062715536973172e+00
2.055062715536973172e+00
2.376635029145176325e+00
2.376635029145176325e+00
2.465700247199926753e+00
2.465700247199926753e+00
2.323195898312326424e+00
2.323195898312326424e+00
2.290569902645954947e+00
2.290569902645954947e+00
2.232255623035371173e+00
2.232255623035371173e+00
2.204129764702292160e+00
2.204129764702292160e+00
2.195129490035706787e+00
2.195129490035706787e+00
2.292069948423719250e+00
2.292069948423719250e+00
2.292069948423719250e+00
2.246131046479689974e+00
2.246131046479689974e+00
2.171128757591479275e+00
2.171128757591479275e+00
2.170941251869258792e+00
2.170941251869258792e+00
2.193441938535722002e+00
2.193441938535722002e+00
2.070813196203497242e+00
2.070813196203497242e+00
2.026186834315011787e+00
2.026186834315011787e+00
2.455574938200018487e+00
2.455574938200018487e+00
2.332758690145573244e+00
2.332758690145573244e+00
2.332758690145573244e+00
2.237130771813104602e+00
2.237130771813104602e+00
2.250068666646320992e+00
2.250068666646320992e+00
2.234130680257575996e+00
2.234130680257575996e+00
2.256068849757378203e+00
2.256068849757378203e+00
2.320945829645680192e+00
2.320945829645680192e+00
2.490263496810816157e+00
2.490263496810816157e+00
2.332008667256691314e+00
2.332008667256691314e+00
2.275756950590533290e+00
2.275756950590533290e+00
2.275756950590533290e+00
2.275756950590533290e+00
2.275756950590533290e+00
2.294695028534806447e+00
2.294695028534806447e+00
2.090126285592211808e+00
2.090126285592211808e+00
2.139627796258431136e+00
2.139627796258431136e+00
2.458387524033326166e+00
2.458387524033326166e+00
2.233005645924253102e+00
2.233005645924253102e+00
2.182379100924710880e+00
2.182379100924710880e+00
2.189691824091311467e+00
2.189691824091311467e+00
2.189691824091311467e+00
2.196254524369030126e+00
2.196254524369030126e+00
2.231880611590930208e+00
2.231880611590930208e+00
2.298257637256996500e+00
2.298257637256996500e+00
2.450699789422284613e+00
2.450699789422284613e+00
2.351696768089846401e+00
2.351696768089846401e+00
2.355259376812036454e+00
2.355259376812036454e+00
2.348321665089877275e+00
2.348321665089877275e+00
2.276506973479415219e+00
2.276506973479415219e+00
2.276506973479415219e+00
2.134565141758476781e+00
2.134565141758476781e+00
2.354884365367595489e+00
2.354884365367595489e+00
2.509764091921750762e+00
2.509764091921750762e+00
2.315695669423505798e+00
2.315695669423505798e+00
2.229630542924283532e+00
2.229630542924283532e+00
2.184066652424695665e+00
2.184066652424695665e+00
2.125564867091891408e+00
2.125564867091891408e+00
2.114689535203100768e+00
2.114689535203100768e+00
2.114689535203100768e+00
2.224192876979888212e+00
2.224192876979888212e+00
2.237693288979766049e+00
2.237693288979766049e+00
2.158378368480483367e+00
2.158378368480483367e+00
2.209567430646687480e+00
2.209567430646687480e+00
2.294882534257026929e+00
2.294882534257026929e+00
2.280444593646046680e+00
2.280444593646046680e+00
2.260006469924008776e+00
2.260006469924008776e+00
2.625642628254035937e+00
2.625642628254035937e+00
2.625642628254035937e+00
2.538452467421491221e+00
2.538452467421491221e+00
2.383385235145115466e+00
2.383385235145115466e+00
2.353759331034272151e+00
2.353759331034272151e+00
2.314008117923521013e+00
2.314008117923521013e+00
2.284757225257118218e+00
2.284757225257118218e+00
2.277819513534959039e+00
2.277819513534959039e+00
2.407573473311563461e+00
2.407573473311563461e+00
2.281569627979369130e+00
2.281569627979369130e+00
2.281569627979369130e+00
2.206379833368938392e+00
2.206379833368938392e+00
2.167003631702627775e+00
2.167003631702627775e+00
2.188754295480208611e+00
2.188754295480208611e+00
2.030686971648304695e+00
2.030686971648304695e+00
2.014561479537339217e+00
2.014561479537339217e+00
2.419386333811456957e+00
2.419386333811456957e+00
2.215380108035523765e+00
2.215380108035523765e+00
2.179754020813623683e+00
2.179754020813623683e+00
2.215380108035523765e+00
2.215380108035523765e+00
2.215380108035523765e+00
2.254006286812952009e+00
2.254006286812952009e+00
2.307445417645802355e+00
2.307445417645802355e+00
2.344009033478804849e+00
2.344009033478804849e+00
2.514826746421705117e+00
2.514826746421705117e+00
2.366884731589709023e+00
2.366884731589709023e+00
2.338008850367748082e+00
2.338008850367748082e+00
2.324508438367870244e+00
2.324508438367870244e+00
2.313820612201300086e+00
2.313820612201300086e+00
2.121064729758598499e+00
2.121064729758598499e+00
2.121064729758598499e+00
2.264131595812860720e+00
2.264131595812860720e+00
2.495513657032990551e+00
2.495513657032990551e+00
2.273694387646107540e+00
2.273694387646107540e+00
2.236568254646443155e+00
2.236568254646443155e+00
2.238068300424207457e+00
2.238068300424207457e+00
2.249881160924100509e+00
2.249881160924100509e+00
2.268256721701712220e+00
2.268256721701712220e+00
2.326571001312295994e+00
2.326571001312295994e+00
2.378135074922940628e+00
2.378135074922940628e+00
2.378135074922940628e+00
2.248756126590777171e+00
2.248756126590777171e+00
2.224380382702108694e+00
2.224380382702108694e+00
2.220255256813257638e+00
2.220255256813257638e+00
2.150878139591662741e+00
2.150878139591662741e+00
2.068563127536851454e+00
2.068563127536851454e+00
2.369697317423017147e+00
2.369697317423017147e+00
2.437949400311288706e+00
2.437949400311288706e+00
2.286069765312662039e+00
2.286069765312662039e+00
2.286069765312662039e+00
2.275569444868312807e+00
2.275569444868312807e+00
2.282319650868251504e+00
2.282319650868251504e+00
2.287007293923764895e+00
2.287007293923764895e+00
2.288319833979308715e+00
2.288319833979308715e+00
2.379260109256263966e+00
2.379260109256263966e+00
2.322070863979003530e+00
2.322070863979003530e+00
2.236380748924222672e+00
2.236380748924222672e+00
2.224755394146549659e+00
2.224755394146549659e+00
2.224755394146549659e+00
2.254006286812952009e+00
2.254006286812952009e+00
2.143565416425061709e+00
2.143565416425061709e+00
2.067438093203528116e+00
2.067438093203528116e+00
2.457074983977782345e+00
2.457074983977782345e+00
2.310070497756889552e+00
2.310070497756889552e+00
2.202067201757865966e+00
2.202067201757865966e+00
2.222317819757682944e+00
2.222317819757682944e+00
2.247443586535233351e+00
2.247443586535233351e+00
2.247443586535233351e+00
2.288882351145970162e+00
2.288882351145970162e+00
2.285882259590441556e+00
2.285882259590441556e+00
2.412448622089296890e+00
2.412448622089296890e+00
2.275944456312753772e+00
2.275944456312753772e+00
2.251006195257423848e+00
2.251006195257423848e+00
2.257006378368480615e+00
2.257006378368480615e+00
2.271819330423901828e+00
2.271819330423901828e+00
2.098751548814355772e+00
2.098751548814355772e+00
2.098751548814355772e+00
2.160065919980468152e+00
2.160065919980468152e+00
2.501326334421826836e+00
2.501326334421826836e+00
2.294507522812585520e+00
2.294507522812585520e+00
2.252881252479629115e+00
2.252881252479629115e+00
2.256818872646260132e+00
2.256818872646260132e+00
2.254943815424054865e+00
2.254943815424054865e+00
2.272194341868343237e+00
2.272194341868343237e+00
2.307820429090243319e+00
2.307820429090243319e+00
2.307820429090243319e+00
2.419386333811456957e+00
2.419386333811456957e+00
2.261506515701773079e+00
2.261506515701773079e+00
2.247818597979674760e+00
2.247818597979674760e+00
2.256818872646260132e+00
2.256818872646260132e+00
2.238068300424207457e+00
2.238068300424207457e+00
2.100626606036561483e+00
2.100626606036561483e+00
2.305945371868038052e+00
2.305945371868038052e+00
2.470575395977660182e+00
2.470575395977660182e+00
2.470575395977660182e+00
2.298820154423657947e+00
2.298820154423657947e+00
2.266569170201727434e+00
2.266569170201727434e+00
2.250818689535202921e+00
2.250818689535202921e+00
2.252131229590746742e+00
2.252131229590746742e+00
2.249506149479659545e+00
2.249506149479659545e+00
2.336133793145542814e+00
2.336133793145542814e+00
2.350946745200964472e+00
2.350946745200964472e+00
2.243693472090823260e+00
2.243693472090823260e+00
2.243693472090823260e+00
2.239568346201971760e+00
2.239568346201971760e+00
2.275194433423871843e+00
2.275194433423871843e+00
2.205817316202276945e+00
2.205817316202276945e+00
2.117502121036408447e+00
2.117502121036408447e+00
2.460825098422192880e+00
2.460825098422192880e+00
2.400073244422742391e+00
2.400073244422742391e+00
2.274256904812768987e+00
2.274256904812768987e+00
2.273506881923887057e+00
2.273506881923887057e+00
2.257756401257362544e+00
2.257756401257362544e+00
2.257756401257362544e+00
2.254943815424054865e+00
2.254943815424054865e+00
2.256256355479598685e+00
2.256256355479598685e+00
2.375322489089632505e+00
2.375322489089632505e+00
2.279507065034943825e+00
2.279507065034943825e+00
2.226630451368755370e+00
2.226630451368755370e+00
2.219880245368816230e+00
2.219880245368816230e+00
2.244818506424146598e+00
2.244818506424146598e+00
2.098001525925473842e+00
2.098001525925473842e+00
2.098001525925473842e+00
2.101751640369884377e+00
2.101751640369884377e+00
2.519326883754997581e+00
2.519326883754997581e+00
2.330883632923367976e+00
2.330883632923367976e+00
2.271444318979460864e+00
2.271444318979460864e+00
2.281569627979369130e+00
2.281569627979369130e+00
2.263194067201757864e+00
2.263194067201757864e+00
2.258318918424023991e+00
2.258318918424023991e+00
2.281007110812707683e+00
2.281007110812707683e+00
2.436824365977965812e+00
2.436824365977965812e+00
2.436824365977965812e+00
2.269756767479476078e+00
2.269756767479476078e+00
2.241443403424177028e+00
2.241443403424177028e+00
2.226442945646534444e+00
2.226442945646534444e+00
2.239755851924192243e+00
2.239755851924192243e+00
2.080750999481185470e+00
2.080750999481185470e+00
2.233193151646474028e+00
2.233193151646474028e+00
2.489700979644154266e+00
2.489700979644154266e+00
2.286819788201544412e+00
2.286819788201544412e+00
2.286819788201544412e+00
2.255881344035157721e+00
2.255881344035157721e+00
2.247818597979674760e+00
2.247818597979674760e+00
2.252506241035188150e+00
2.252506241035188150e+00
2.281757133701590057e+00
2.281757133701590057e+00
2.337821344645527599e+00
2.337821344645527599e+00
2.402698324533829588e+00
2.402698324533829588e+00
2.278944547868282378e+00
2.278944547868282378e+00
2.250256172368541474e+00
2.250256172368541474e+00
2.250256172368541474e+00
2.249506149479659545e+00
2.249506149479659545e+00
2.198317087313455875e+00
2.198317087313455875e+00
2.093313882869960452e+00
2.093313882869960452e+00
2.355071871089815971e+00
2.355071871089815971e+00
2.407760979033784388e+00
2.407760979033784388e+00
2.258318918424023991e+00
2.258318918424023991e+00
2.248568620868556689e+00
2.248568620868556689e+00
2.244818506424146598e+00
2.244818506424146598e+00
2.244818506424146598e+00
2.249506149479659545e+00
2.249506149479659545e+00
2.261319009979552597e+00
2.261319009979552597e+00
2.365197180089724238e+00
2.365197180089724238e+00
2.319070772423474924e+00
2.319070772423474924e+00
2.241255897701956545e+00
2.241255897701956545e+00
2.226067934202093479e+00
2.226067934202093479e+00
2.243880977813043742e+00
2.243880977813043742e+00
2.131565050202948175e+00
2.131565050202948175e+00
2.131565050202948175e+00
2.074938322092349186e+00
2.074938322092349186e+00
2.499263771477401086e+00
2.499263771477401086e+00
2.377572557756279181e+00
2.377572557756279181e+00
2.284569719534897736e+00
2.284569719534897736e+00
2.280444593646046680e+00
2.280444593646046680e+00
2.261506515701773079e+00
2.261506515701773079e+00
2.290569902645954947e+00
2.290569902645954947e+00
2.317758232367931104e+00
2.317758232367931104e+00
2.317758232367931104e+00
2.459137546922208095e+00
2.459137546922208095e+00
2.310445509201330516e+00
2.310445509201330516e+00
2.260006469924008776e+00
2.260006469924008776e+00
2.238630817590868904e+00
2.238630817590868904e+00
2.237130771813104602e+00
2.237130771813104602e+00
2.067813104647969080e+00
2.067813104647969080e+00
2.147690542313913653e+00
2.147690542313913653e+00
2.508076540421765976e+00
2.508076540421765976e+00
2.508076540421765976e+00
2.313070589312418157e+00
2.313070589312418157e+00
2.273131870479445649e+00
2.273131870479445649e+00
2.267506698812830290e+00
2.267506698812830290e+00
2.255881344035157721e+00
2.255881344035157721e+00
2.278944547868282378e+00
2.278944547868282378e+00
2.309320474868007622e+00
2.309320474868007622e+00
2.425386516922513280e+00
2.425386516922513280e+00
2.255881344035157721e+00
2.255881344035157721e+00
2.255881344035157721e+00
2.235630726035340299e+00
2.235630726035340299e+00
2.229255531479842567e+00
2.229255531479842567e+00
2.219880245368816230e+00
2.219880245368816230e+00
2.076813379314554453e+00
2.076813379314554453e+00
2.302007751701407035e+00
2.302007751701407035e+00
2.473387981810968306e+00
2.473387981810968306e+00
2.285694753868221074e+00
2.285694753868221074e+00
2.268631733146153184e+00
2.268631733146153184e+00
2.259068941312906365e+00
2.259068941312906365e+00
2.259068941312906365e+00
2.241255897701956545e+00
2.241255897701956545e+00
2.253818781090731527e+00
2.253818781090731527e+00
2.337633838923307117e+00
2.337633838923307117e+00
2.361447065645314147e+00
2.361447065645314147e+00
2.244818506424146598e+00
2.244818506424146598e+00
2.223255348368785356e+00
2.223255348368785356e+00
2.245006012146367080e+00
2.245006012146367080e+00
2.169628711813714972e+00
2.169628711813714972e+00
2.091251319925535146e+00
2.091251319925535146e+00
2.091251319925535146e+00
2.448262215033417899e+00
2.448262215033417899e+00
2.407385967589342979e+00
2.407385967589342979e+00
2.278569536423841413e+00
2.278569536423841413e+00
2.279507065034943825e+00
2.279507065034943825e+00
2.279132053590502860e+00
2.279132053590502860e+00
2.282132145146031021e+00
2.282132145146031021e+00
2.300132694479201767e+00
2.300132694479201767e+00
2.413198644978179264e+00
2.413198644978179264e+00
2.314195623645741495e+00
2.314195623645741495e+00
2.314195623645741495e+00
2.249506149479659545e+00
2.249506149479659545e+00
2.234505691702016961e+00
2.234505691702016961e+00
2.260006469924008776e+00
2.260006469924008776e+00
2.109626880703146412e+00
2.109626880703146412e+00
2.105501754814294912e+00
2.105501754814294912e+00
2.505638966032898818e+00
2.505638966032898818e+00
2.297695120090334608e+00
2.297695120090334608e+00
2.210129947813348927e+00
2.210129947813348927e+00
2.219317728202154782e+00
2.219317728202154782e+00
2.219317728202154782e+00
2.218380199591051927e+00
2.218380199591051927e+00
2.237130771813104602e+00
2.237130771813104602e+00
2.254756309701834383e+00
2.254756309701834383e+00
2.419386333811456957e+00
2.419386333811456957e+00
2.272944364757225166e+00
2.272944364757225166e+00
2.239380840479750834e+00
2.239380840479750834e+00
2.236755760368663637e+00
2.236755760368663637e+00
2.260568987090670667e+00
2.260568987090670667e+00
2.260568987090670667e+00
2.100064088869899592e+00
2.100064088869899592e+00
2.253068758201849597e+00
2.253068758201849597e+00
2.534889858699301168e+00
2.534889858699301168e+00
2.328633564256721744e+00
2.328633564256721744e+00
2.287569811090426342e+00
2.287569811090426342e+00
2.261881527146214044e+00
2.261881527146214044e+00
2.230380565813165905e+00
2.230380565813165905e+00
2.242568437757499922e+00
2.242568437757499922e+00
2.242568437757499922e+00
2.280257087923826198e+00
2.280257087923826198e+00
2.370072328867458111e+00
2.370072328867458111e+00
2.255693838312936794e+00
2.255693838312936794e+00
2.238255806146427940e+00
2.238255806146427940e+00
2.252881252479629115e+00
2.252881252479629115e+00
2.208817407757805107e+00
2.208817407757805107e+00
2.103626697592089645e+00
2.103626697592089645e+00
2.374384960478530537e+00
2.374384960478530537e+00
2.452574846644489881e+00
2.452574846644489881e+00
2.452574846644489881e+00
2.279132053590502860e+00
2.279132053590502860e+00
2.260568987090670667e+00
2.260568987090670667e+00
2.243130954924161813e+00
2.243130954924161813e+00
2.247256080813012868e+00
2.247256080813012868e+00
2.272381847590563719e+00
2.272381847590563719e+00
2.386760338145085036e+00
2.386760338145085036e+00
2.342883999145481511e+00
2.342883999145481511e+00
2.243318460646382295e+00
2.243318460646382295e+00
2.243318460646382295e+00
2.220630268257698603e+00
2.220630268257698603e+00
2.245943540757469048e+00
2.245943540757469048e+00
2.156315805536057617e+00
2.156315805536057617e+00
2.095001434369945237e+00
2.095001434369945237e+00
2.494951139866329104e+00
2.494951139866329104e+00
2.365197180089724238e+00
2.365197180089724238e+00
2.269569261757255596e+00
2.269569261757255596e+00
2.274256904812768987e+00
2.274256904812768987e+00
2.274256904812768987e+00
2.267506698812830290e+00
2.267506698812830290e+00
2.271069307535019899e+00
2.271069307535019899e+00
2.265069124423963132e+00
2.265069124423963132e+00
2.394073061311685624e+00
2.394073061311685624e+00
2.263756584368419311e+00
2.263756584368419311e+00
2.224942899868770141e+00
2.224942899868770141e+00
2.209754936368907963e+00
2.209754936368907963e+00
2.247631092257453833e+00
2.247631092257453833e+00
2.247631092257453833e+00
2.094813928647724754e+00
2.094813928647724754e+00
2.170753746147038310e+00
2.170753746147038310e+00
2.538639973143711703e+00
2.538639973143711703e+00
2.335571275978881367e+00
2.335571275978881367e+00
2.277632007812738557e+00
2.277632007812738557e+00
2.266006653035065987e+00
2.266006653035065987e+00
2.259256447035126847e+00
2.259256447035126847e+00
2.270319284646137969e+00
2.270319284646137969e+00
2.270319284646137969e+00
2.290007385479293500e+00
2.290007385479293500e+00
2.405135898922696747e+00
2.405135898922696747e+00
2.244068483535264225e+00
2.244068483535264225e+00
2.233943174535355514e+00
2.233943174535355514e+00
2.226255439924313961e+00
2.226255439924313961e+00
2.213880062257759462e+00
2.213880062257759462e+00
2.106626789147617806e+00
2.106626789147617806e+00
2.325633472701193583e+00
2.325633472701193583e+00
2.497201208532975336e+00
2.497201208532975336e+00
2.497201208532975336e+00
2.295070039979247412e+00
2.295070039979247412e+00
2.268444227423932702e+00
2.268444227423932702e+00
2.252506241035188150e+00
2.252506241035188150e+00
2.251756218146305777e+00
2.251756218146305777e+00
2.273319376201666131e+00
2.273319376201666131e+00
2.339508896145511940e+00
2.339508896145511940e+00
2.357321939756462204e+00
2.357321939756462204e+00
2.248006103701895242e+00
2.248006103701895242e+00
2.229818048646504014e+00
2.229818048646504014e+00
2.229818048646504014e+00
2.247631092257453833e+00
2.247631092257453833e+00
2.177316446424756524e+00
2.177316446424756524e+00
2.081501022370067400e+00
2.081501022370067400e+00
2.437199377422406776e+00
2.437199377422406776e+00
2.407010956144902014e+00
2.407010956144902014e+00
2.272569353312784202e+00
2.272569353312784202e+00
2.260568987090670667e+00
2.260568987090670667e+00
2.249881160924100509e+00
2.249881160924100509e+00
2.249881160924100509e+00
2.261694021423993561e+00
2.261694021423993561e+00
2.279319559312723342e+00
2.279319559312723342e+00
2.392760521256141804e+00
2.392760521256141804e+00
2.307632923368022837e+00
2.307632923368022837e+00
2.244255989257484707e+00
2.244255989257484707e+00
2.229255531479842567e+00
2.229255531479842567e+00
2.238443311868648422e+00
2.238443311868648422e+00
2.104001709036531054e+00
2.104001709036531054e+00
2.104001709036531054e+00
2.105689260536515395e+00
2.105689260536515395e+00
2.521201940977202849e+00
2.521201940977202849e+00
2.332383678701132279e+00
2.332383678701132279e+00
2.266944181646168399e+00
2.266944181646168399e+00
2.270694296090578934e+00
2.270694296090578934e+00
2.254381298257393418e+00
2.254381298257393418e+00
2.263569078646198829e+00
2.263569078646198829e+00
2.281944639423810539e+00
2.281944639423810539e+00
2.431011688589129527e+00
2.431011688589129527e+00
2.431011688589129527e+00
2.266194158757286470e+00
2.266194158757286470e+00
2.253443769646290562e+00
2.253443769646290562e+00
2.257193884090700653e+00
2.257193884090700653e+00
2.260006469924008776e+00
2.260006469924008776e+00
2.089563768425550361e+00
2.089563768425550361e+00
2.237318277535325084e+00
2.237318277535325084e+00
2.515951780755027567e+00
2.515951780755027567e+00
2.297320108645893644e+00
2.297320108645893644e+00
2.265444135868404540e+00
2.265444135868404540e+00
2.265444135868404540e+00
2.258693929868464956e+00
2.258693929868464956e+00
2.258506424146244473e+00
2.258506424146244473e+00
2.271631824701681346e+00
2.271631824701681346e+00
2.317758232367931104e+00
2.317758232367931104e+00
2.387135349589526001e+00
2.387135349589526001e+00
2.239943357646412725e+00
2.239943357646412725e+00
2.221380291146580532e+00
2.221380291146580532e+00
2.225130405590991067e+00
2.225130405590991067e+00
2.225130405590991067e+00
2.177503952146977007e+00
2.177503952146977007e+00
2.068188116092410045e+00
2.068188116092410045e+00
2.353571825312051669e+00
2.353571825312051669e+00
2.434574297311319135e+00
2.434574297311319135e+00
2.287194799645985377e+00
2.287194799645985377e+00
2.286819788201544412e+00
2.286819788201544412e+00
2.262631550035096417e+00
2.262631550035096417e+00
2.250818689535202921e+00
2.250818689535202921e+00
2.250818689535202921e+00
2.270506790368358452e+00
2.270506790368358452e+00
2.368009765923032361e+00
2.368009765923032361e+00
2.329383587145603673e+00
2.329383587145603673e+00
2.250631183812982439e+00
2.250631183812982439e+00
2.238443311868648422e+00
2.238443311868648422e+00
2.254943815424054865e+00
2.254943815424054865e+00
2.154253242591631867e+00
2.154253242591631867e+00
2.096126468703268575e+00
2.096126468703268575e+00
2.096126468703268575e+00
2.492138554033020981e+00
2.492138554033020981e+00
2.372134891811884305e+00
2.372134891811884305e+00
2.260006469924008776e+00
2.260006469924008776e+00
2.252506241035188150e+00
2.252506241035188150e+00
2.246693563646351421e+00
2.246693563646351421e+00
2.259256447035126847e+00
2.259256447035126847e+00
2.282882168034912951e+00
2.282882168034912951e+00
2.420511368144779851e+00
2.420511368144779851e+00
2.420511368144779851e+00
2.296757591479232197e+00
2.296757591479232197e+00
2.269756767479476078e+00
2.269756767479476078e+00
2.244631000701926116e+00
2.244631000701926116e+00
2.258506424146244473e+00
2.258506424146244473e+00
2.091813837092196593e+00
2.091813837092196593e+00
2.161940977202673420e+00
2.161940977202673420e+00
2.520264412366099993e+00
2.520264412366099993e+00
2.297132602923673161e+00
2.297132602923673161e+00
2.250443678090761956e+00
2.250443678090761956e+00
2.255131321146275347e+00
2.255131321146275347e+00
2.255131321146275347e+00
2.245381023590808045e+00
2.245381023590808045e+00
2.250068666646320992e+00
2.250068666646320992e+00
2.284194708090456771e+00
2.284194708090456771e+00
2.415823725089266905e+00
2.415823725089266905e+00
2.264506607257301685e+00
2.264506607257301685e+00
2.255506332590716312e+00
2.255506332590716312e+00
2.252881252479629115e+00
2.252881252479629115e+00
2.228318002868740155e+00
2.228318002868740155e+00
2.089376262703329878e+00
2.089376262703329878e+00
2.294507522812585520e+00
2.294507522812585520e+00
2.472075441755424485e+00
2.472075441755424485e+00
2.287382305368205859e+00
2.287382305368205859e+00
2.266006653035065987e+00
2.266006653035065987e+00
2.253068758201849597e+00
2.253068758201849597e+00
2.253068758201849597e+00
2.249318643757439062e+00
2.249318643757439062e+00
2.270319284646137969e+00
2.270319284646137969e+00
2.349071687978759204e+00
2.349071687978759204e+00
2.366509720145268059e+00
2.366509720145268059e+00
2.249318643757439062e+00
2.249318643757439062e+00
2.225692922757652514e+00
2.225692922757652514e+00
2.247068575090792386e+00
2.247068575090792386e+00
2.247068575090792386e+00
2.173941343424787398e+00
2.173941343424787398e+00
2.078125919370098273e+00
2.078125919370098273e+00
2.428949125644703777e+00
2.428949125644703777e+00
2.396885647144993747e+00
2.396885647144993747e+00
2.274631916257209951e+00
2.274631916257209951e+00
2.266006653035065987e+00
2.266006653035065987e+00
2.246131046479689974e+00
2.246131046479689974e+00
2.246131046479689974e+00
2.247443586535233351e+00
2.247443586535233351e+00
2.276881984923856628e+00
2.276881984923856628e+00
2.388635395367290304e+00
2.388635395367290304e+00
2.299757683034760802e+00
2.299757683034760802e+00
2.245943540757469048e+00
2.245943540757469048e+00
2.236005737479781263e+00
2.236005737479781263e+00
2.257193884090700653e+00
2.257193884090700653e+00
2.118064638203069894e+00
2.118064638203069894e+00
2.118064638203069894e+00
2.128002441480758122e+00
2.128002441480758122e+00
2.540515030365916971e+00
2.540515030365916971e+00
2.344946562089907705e+00
2.344946562089907705e+00
2.269569261757255596e+00
2.269569261757255596e+00
2.257006378368480615e+00
2.257006378368480615e+00
2.242568437757499922e+00
2.242568437757499922e+00
2.254756309701834383e+00
2.254756309701834383e+00
2.282694662312692468e+00
2.282694662312692468e+00
2.282694662312692468e+00
2.434761803033539618e+00
2.434761803033539618e+00
2.267694204535050773e+00
2.267694204535050773e+00
2.224005371257667729e+00
2.224005371257667729e+00
2.219130222479934300e+00
2.219130222479934300e+00
2.251006195257423848e+00
2.251006195257423848e+00
2.100626606036561483e+00
2.100626606036561483e+00
2.260756492812891150e+00
2.260756492812891150e+00
2.531139744254890633e+00
2.531139744254890633e+00
2.531139744254890633e+00
2.307257911923581428e+00
2.307257911923581428e+00
2.261881527146214044e+00
2.261881527146214044e+00
2.257568895535142062e+00
2.257568895535142062e+00
2.253443769646290562e+00
2.253443769646290562e+00
2.254943815424054865e+00
2.254943815424054865e+00
2.300320200201422249e+00
2.300320200201422249e+00
2.386572832422864110e+00
2.386572832422864110e+00
2.246506057924130939e+00
2.246506057924130939e+00
2.246506057924130939e+00
2.222130314035462462e+00
2.222130314035462462e+00
2.238443311868648422e+00
2.238443311868648422e+00
2.190629352702413879e+00
2.190629352702413879e+00
2.085626148258918899e+00
2.085626148258918899e+00
2.367259743034150432e+00
2.367259743034150432e+00
2.447137180700094561e+00
2.447137180700094561e+00
2.287757316812646824e+00
2.287757316812646824e+00
2.281757133701590057e+00
2.281757133701590057e+00
2.281757133701590057e+00
2.274256904812768987e+00
2.274256904812768987e+00
2.263569078646198829e+00
2.263569078646198829e+00
2.275756950590533290e+00
2.275756950590533290e+00
2.351134250923184954e+00
2.351134250923184954e+00
2.327321024201178368e+00
2.327321024201178368e+00
2.243505966368602778e+00
2.243505966368602778e+00
2.228880520035401602e+00
2.228880520035401602e+00
2.252131229590746742e+00
2.252131229590746742e+00
2.146565507980590315e+00
2.146565507980590315e+00
2.146565507980590315e+00
2.073250770592364400e+00
2.073250770592364400e+00
2.484638325144199911e+00
2.484638325144199911e+00
2.361447065645314147e+00
2.361447065645314147e+00
2.269381756035035114e+00
2.269381756035035114e+00
2.266381664479506952e+00
2.266381664479506952e+00
2.253818781090731527e+00
2.253818781090731527e+00
2.251756218146305777e+00
2.251756218146305777e+00
2.270694296090578934e+00
2.270694296090578934e+00
2.405323404644917229e+00
2.405323404644917229e+00
2.284569719534897736e+00
2.284569719534897736e+00
2.284569719534897736e+00
2.231130588702047834e+00
2.231130588702047834e+00
2.216130130924405695e+00
2.216130130924405695e+00
2.242755943479720404e+00
2.242755943479720404e+00
2.095563951536606684e+00
2.095563951536606684e+00
2.164191045869319652e+00
2.164191045869319652e+00
2.535077364421521651e+00
2.535077364421521651e+00
2.314758140812402942e+00
2.314758140812402942e+00
2.270881801812799416e+00
2.270881801812799416e+00
2.270881801812799416e+00
2.268819238868374111e+00
2.268819238868374111e+00
2.261131504257332114e+00
2.261131504257332114e+00
2.276694479201635701e+00
