2.251381206701864812e+00
2.230380565813165905e+00
2.230380565813165905e+00
2.230380565813165905e+00
2.248568620868556689e+00
2.248568620868556689e+00
2.248568620868556689e+00
2.248568620868556689e+00
2.181816583758049433e+00
2.181816583758049433e+00
2.181816583758049433e+00
2.080188482314524023e+00
2.080188482314524023e+00
2.080188482314524023e+00
2.417136265144810281e+00
2.417136265144810281e+00
2.417136265144810281e+00
2.417136265144810281e+00
2.394823084200567997e+00
2.394823084200567997e+00
2.394823084200567997e+00
2.264506607257301685e+00
2.264506607257301685e+00
2.264506607257301685e+00
2.259068941312906365e+00
2.259068941312906365e+00
2.259068941312906365e+00
2.259068941312906365e+00
2.249506149479659545e+00
2.249506149479659545e+00
2.249506149479659545e+00
2.242380932035279439e+00
2.242380932035279439e+00
2.242380932035279439e+00
2.242380932035279439e+00
2.259256447035126847e+00
2.259256447035126847e+00
2.259256447035126847e+00
2.388447889645069822e+00
2.388447889645069822e+00
2.388447889645069822e+00
2.325633472701193583e+00
2.325633472701193583e+00
2.325633472701193583e+00
2.325633472701193583e+00
2.270319284646137969e+00
2.270319284646137969e+00
2.270319284646137969e+00
2.255318826868495830e+00
2.255318826868495830e+00
2.255318826868495830e+00
2.288694845423749680e+00
2.288694845423749680e+00
2.288694845423749680e+00
2.288694845423749680e+00
2.153128208258308529e+00
2.153128208258308529e+00
2.153128208258308529e+00
2.116939603869747000e+00
2.116939603869747000e+00
2.116939603869747000e+00
2.519889400921659028e+00
2.519889400921659028e+00
2.519889400921659028e+00
2.519889400921659028e+00
2.346259102145451525e+00
2.346259102145451525e+00
2.346259102145451525e+00
2.264131595812860720e+00
2.264131595812860720e+00
2.264131595812860720e+00
2.242943449201941331e+00
2.242943449201941331e+00
2.242943449201941331e+00
2.242943449201941331e+00
2.236755760368663637e+00
2.236755760368663637e+00
2.236755760368663637e+00
2.242943449201941331e+00
2.242943449201941331e+00
2.242943449201941331e+00
2.252881252479629115e+00
2.252881252479629115e+00
2.252881252479629115e+00
2.252881252479629115e+00
2.393135532700583212e+00
2.393135532700583212e+00
2.393135532700583212e+00
2.261694021423993561e+00
2.261694021423993561e+00
2.252506241035188150e+00
2.252506241035188150e+00
2.252506241035188150e+00
2.249506149479659545e+00
2.249506149479659545e+00
2.249506149479659545e+00
2.249506149479659545e+00
2.257193884090700653e+00
2.257193884090700653e+00
2.257193884090700653e+00
2.101751640369884377e+00
2.101751640369884377e+00
2.101751640369884377e+00
2.101751640369884377e+00
2.236193243202001746e+00
2.236193243202001746e+00
2.236193243202001746e+00
2.502451368755150174e+00
2.502451368755150174e+00
2.502451368755150174e+00
2.293757499923703591e+00
2.293757499923703591e+00
2.293757499923703591e+00
2.293757499923703591e+00
2.255131321146275347e+00
2.255131321146275347e+00
2.255131321146275347e+00
2.251193700979644330e+00
2.251193700979644330e+00
2.251193700979644330e+00
2.230380565813165905e+00
2.230380565813165905e+00
2.230380565813165905e+00
2.230380565813165905e+00
2.247256080813012868e+00
2.247256080813012868e+00
2.247256080813012868e+00
2.306882900479140464e+00
2.306882900479140464e+00
2.306882900479140464e+00
2.395010589922788480e+00
2.395010589922788480e+00
2.395010589922788480e+00
2.395010589922788480e+00
2.265256630146183614e+00
2.265256630146183614e+00
2.265256630146183614e+00
2.241068391979735619e+00
2.241068391979735619e+00
2.241068391979735619e+00
2.244068483535264225e+00
2.244068483535264225e+00
2.244068483535264225e+00
2.200379650257881181e+00
2.200379650257881181e+00
2.200379650257881181e+00
2.098001525925473842e+00
2.098001525925473842e+00
2.098001525925473842e+00
2.098001525925473842e+00
2.347009125034333454e+00
2.347009125034333454e+00
2.347009125034333454e+00
2.412448622089296890e+00
2.412448622089296890e+00
2.412448622089296890e+00
2.263194067201757864e+00
2.263194067201757864e+00
2.263194067201757864e+00
2.263194067201757864e+00
2.247818597979674760e+00
2.247818597979674760e+00
2.247818597979674760e+00
2.267319193090609808e+00
2.267319193090609808e+00
2.267319193090609808e+00
2.271819330423901828e+00
2.271819330423901828e+00
2.271819330423901828e+00
2.271819330423901828e+00
2.275944456312753772e+00
2.275944456312753772e+00
2.275944456312753772e+00
2.366697225867488541e+00
2.366697225867488541e+00
2.366697225867488541e+00
2.339133884701071420e+00
2.339133884701071420e+00
2.339133884701071420e+00
2.339133884701071420e+00
2.251381206701864812e+00
2.251381206701864812e+00
2.251381206701864812e+00
2.232068117313150690e+00
2.232068117313150690e+00
2.232068117313150690e+00
2.246506057924130939e+00
2.246506057924130939e+00
2.246506057924130939e+00
2.246506057924130939e+00
2.153128208258308529e+00
2.153128208258308529e+00
2.153128208258308529e+00
2.094438917203283790e+00
2.094438917203283790e+00
2.094438917203283790e+00
2.485575853755302767e+00
2.485575853755302767e+00
2.485575853755302767e+00
2.485575853755302767e+00
2.371572374645222414e+00
2.371572374645222414e+00
2.371572374645222414e+00
2.262631550035096417e+00
2.262631550035096417e+00
2.262631550035096417e+00
2.257943906979583026e+00
2.257943906979583026e+00
2.257943906979583026e+00
2.257943906979583026e+00
2.239943357646412725e+00
2.239943357646412725e+00
2.239943357646412725e+00
2.248756126590777171e+00
2.248756126590777171e+00
2.248756126590777171e+00
2.276694479201635701e+00
2.276694479201635701e+00
2.276694479201635701e+00
2.276694479201635701e+00
2.412261116367076408e+00
2.412261116367076408e+00
2.412261116367076408e+00
2.291319925534837321e+00
2.291319925534837321e+00
2.291319925534837321e+00
2.246693563646351421e+00
2.246693563646351421e+00
2.246693563646351421e+00
2.246693563646351421e+00
2.226067934202093479e+00
2.226067934202093479e+00
2.226067934202093479e+00
2.251756218146305777e+00
2.251756218146305777e+00
2.251756218146305777e+00
2.101939146092104860e+00
2.101939146092104860e+00
2.101939146092104860e+00
2.101939146092104860e+00
2.167566148869289222e+00
2.167566148869289222e+00
2.167566148869289222e+00
2.498513748588519157e+00
2.498513748588519157e+00
2.498513748588519157e+00
2.302945280312509890e+00
2.302945280312509890e+00
2.302945280312509890e+00
2.302945280312509890e+00
2.260568987090670667e+00
2.260568987090670667e+00
2.260568987090670667e+00
2.256068849757378203e+00
2.256068849757378203e+00
2.256068849757378203e+00
2.256631366924039650e+00
2.256631366924039650e+00
2.256631366924039650e+00
2.256631366924039650e+00
2.272381847590563719e+00
2.272381847590563719e+00
2.272381847590563719e+00
2.292257454145939732e+00
2.292257454145939732e+00
2.292257454145939732e+00
2.411698599200414961e+00
2.411698599200414961e+00
2.411698599200414961e+00
2.411698599200414961e+00
2.270694296090578934e+00
2.270694296090578934e+00
2.270694296090578934e+00
2.247631092257453833e+00
2.247631092257453833e+00
2.247631092257453833e+00
2.249131138035218136e+00
2.249131138035218136e+00
2.249131138035218136e+00
2.249131138035218136e+00
2.224942899868770141e+00
2.224942899868770141e+00
2.224942899868770141e+00
2.088063722647786058e+00
2.088063722647786058e+00
2.088063722647786058e+00
2.283632190923795324e+00
2.283632190923795324e+00
2.283632190923795324e+00
2.283632190923795324e+00
2.449949766533402684e+00
2.449949766533402684e+00
2.449949766533402684e+00
2.284569719534897736e+00
2.284569719534897736e+00
2.284569719534897736e+00
2.268069215979491737e+00
2.268069215979491737e+00
2.268069215979491737e+00
2.268069215979491737e+00
2.248943632312997654e+00
2.248943632312997654e+00
2.248943632312997654e+00
2.242193426313058957e+00
2.242193426313058957e+00
2.242193426313058957e+00
2.242193426313058957e+00
2.264319101535081202e+00
2.264319101535081202e+00
2.264319101535081202e+00
2.347759147923215384e+00
2.347759147923215384e+00
2.347759147923215384e+00
2.365759697256386129e+00
2.365759697256386129e+00
2.365759697256386129e+00
2.365759697256386129e+00
2.254756309701834383e+00
2.254756309701834383e+00
2.254756309701834383e+00
2.233380657368694511e+00
2.233380657368694511e+00
2.233380657368694511e+00
2.251568712424085295e+00
2.251568712424085295e+00
2.251568712424085295e+00
2.251568712424085295e+00
2.196442030091250608e+00
2.196442030091250608e+00
2.196442030091250608e+00
2.111689443647572162e+00
2.111689443647572162e+00
2.111689443647572162e+00
2.459325052644428578e+00
2.459325052644428578e+00
2.459325052644428578e+00
2.459325052644428578e+00
2.398573198644978088e+00
2.398573198644978088e+00
2.398573198644978088e+00
2.275756950590533290e+00
2.275756950590533290e+00
2.275756950590533290e+00
2.258881435590685438e+00
2.258881435590685438e+00
2.258881435590685438e+00
2.258881435590685438e+00
2.235068208868678852e+00
2.235068208868678852e+00
2.235068208868678852e+00
2.244068483535264225e+00
2.244068483535264225e+00
2.244068483535264225e+00
2.268631733146153184e+00
2.268631733146153184e+00
2.268631733146153184e+00
2.268631733146153184e+00
2.387322855311746483e+00
2.387322855311746483e+00
2.387322855311746483e+00
2.308007934812463802e+00
2.308007934812463802e+00
2.308007934812463802e+00
2.247256080813012868e+00
2.247256080813012868e+00
2.247256080813012868e+00
2.247256080813012868e+00
2.229818048646504014e+00
2.229818048646504014e+00
2.229818048646504014e+00
2.259068941312906365e+00
2.259068941312906365e+00
2.259068941312906365e+00
2.125377361369670925e+00
2.125377361369670925e+00
2.125377361369670925e+00
2.125377361369670925e+00
2.110001892147587377e+00
2.110001892147587377e+00
2.110001892147587377e+00
2.499451277199621568e+00
2.499451277199621568e+00
2.499451277199621568e+00
2.324883449812311209e+00
2.324883449812311209e+00
2.324883449812311209e+00
2.324883449812311209e+00
2.271444318979460864e+00
2.271444318979460864e+00
2.271444318979460864e+00
2.270319284646137969e+00
2.270319284646137969e+00
2.270319284646137969e+00
2.241255897701956545e+00
2.241255897701956545e+00
2.241255897701956545e+00
2.241255897701956545e+00
2.254568803979613900e+00
2.254568803979613900e+00
2.254568803979613900e+00
2.275756950590533290e+00
2.275756950590533290e+00
2.275756950590533290e+00
2.409823541978209693e+00
2.409823541978209693e+00
2.409823541978209693e+00
2.409823541978209693e+00
2.264881618701742649e+00
2.264881618701742649e+00
2.264881618701742649e+00
2.247818597979674760e+00
2.247818597979674760e+00
2.247818597979674760e+00
2.247443586535233351e+00
2.247443586535233351e+00
2.247443586535233351e+00
2.247443586535233351e+00
2.253818781090731527e+00
2.253818781090731527e+00
2.253818781090731527e+00
2.097439008758812395e+00
2.097439008758812395e+00
2.097439008758812395e+00
2.244631000701926116e+00
2.244631000701926116e+00
2.244631000701926116e+00
2.486325876644184696e+00
2.486325876644184696e+00
2.486325876644184696e+00
2.486325876644184696e+00
2.290757408368175430e+00
2.290757408368175430e+00
2.290757408368175430e+00
2.264131595812860720e+00
2.264131595812860720e+00
2.264131595812860720e+00
2.264131595812860720e+00
2.262819055757316900e+00
2.262819055757316900e+00
2.262819055757316900e+00
2.249131138035218136e+00
2.249131138035218136e+00
2.249131138035218136e+00
2.258881435590685438e+00
2.258881435590685438e+00
2.258881435590685438e+00
2.258881435590685438e+00
2.306695394756919981e+00
2.306695394756919981e+00
2.306695394756919981e+00
2.366322214423047576e+00
2.366322214423047576e+00
2.366322214423047576e+00
2.233755668813135031e+00
2.233755668813135031e+00
2.233755668813135031e+00
2.233755668813135031e+00
2.218192693868831444e+00
2.218192693868831444e+00
2.218192693868831444e+00
2.242568437757499922e+00
2.242568437757499922e+00
2.242568437757499922e+00
2.197754570146794428e+00
2.197754570146794428e+00
2.197754570146794428e+00
2.197754570146794428e+00
2.106439283425397324e+00
2.106439283425397324e+00
2.106439283425397324e+00
2.394260567033906106e+00
2.394260567033906106e+00
2.394260567033906106e+00
2.427824091311380439e+00
2.427824091311380439e+00
2.427824091311380439e+00
2.427824091311380439e+00
2.277819513534959039e+00
2.277819513534959039e+00
2.277819513534959039e+00
2.267319193090609808e+00
2.267319193090609808e+00
2.267319193090609808e+00
2.256256355479598685e+00
2.256256355479598685e+00
2.256256355479598685e+00
2.256256355479598685e+00
2.252693746757408633e+00
2.252693746757408633e+00
2.252693746757408633e+00
2.262069032868434526e+00
2.262069032868434526e+00
2.262069032868434526e+00
2.370072328867458111e+00
2.370072328867458111e+00
2.370072328867458111e+00
2.370072328867458111e+00
2.320383312479018745e+00
2.320383312479018745e+00
2.320383312479018745e+00
2.247068575090792386e+00
2.247068575090792386e+00
2.247068575090792386e+00
2.226630451368755370e+00
2.226630451368755370e+00
2.226630451368755370e+00
2.226630451368755370e+00
2.246506057924130939e+00
2.246506057924130939e+00
2.246506057924130939e+00
2.139252784813989727e+00
2.139252784813989727e+00
2.139252784813989727e+00
2.091813837092196593e+00
2.091813837092196593e+00
2.091813837092196593e+00
2.091813837092196593e+00
2.486325876644184696e+00
2.486325876644184696e+00
2.486325876644184696e+00
2.346634113589892490e+00
2.346634113589892490e+00
2.346634113589892490e+00
2.265631641590625023e+00
2.265631641590625023e+00
2.265631641590625023e+00
2.265631641590625023e+00
2.253443769646290562e+00
2.253443769646290562e+00
2.253443769646290562e+00
2.251943723868526259e+00
2.251943723868526259e+00
2.251943723868526259e+00
2.246506057924130939e+00
2.246506057924130939e+00
2.246506057924130939e+00
2.246506057924130939e+00
2.267881710257271255e+00
2.267881710257271255e+00
2.267881710257271255e+00
2.420323862422559369e+00
2.420323862422559369e+00
2.420323862422559369e+00
2.420323862422559369e+00
2.302007751701407035e+00
2.302007751701407035e+00
2.302007751701407035e+00
2.254756309701834383e+00
2.254756309701834383e+00
2.254756309701834383e+00
2.226630451368755370e+00
2.226630451368755370e+00
2.226630451368755370e+00
2.226630451368755370e+00
2.252693746757408633e+00
2.252693746757408633e+00
2.252693746757408633e+00
2.098001525925473842e+00
2.098001525925473842e+00
2.098001525925473842e+00
2.203192236091189304e+00
2.203192236091189304e+00
2.203192236091189304e+00
2.203192236091189304e+00
2.514076723532822744e+00
2.514076723532822744e+00
2.514076723532822744e+00
2.308757957701345731e+00
2.308757957701345731e+00
2.308757957701345731e+00
2.274256904812768987e+00
2.274256904812768987e+00
2.274256904812768987e+00
2.274256904812768987e+00
2.270694296090578934e+00
2.270694296090578934e+00
2.270694296090578934e+00
2.257193884090700653e+00
2.257193884090700653e+00
2.257193884090700653e+00
2.275194433423871843e+00
2.275194433423871843e+00
2.275194433423871843e+00
2.275194433423871843e+00
2.295445051423688376e+00
2.295445051423688376e+00
2.295445051423688376e+00
2.382635212256233537e+00
2.382635212256233537e+00
2.382635212256233537e+00
2.245943540757469048e+00
2.245943540757469048e+00
2.245943540757469048e+00
2.245943540757469048e+00
2.225505417035432032e+00
2.225505417035432032e+00
2.225505417035432032e+00
2.242568437757499922e+00
2.242568437757499922e+00
2.242568437757499922e+00
2.227942991424298746e+00
2.227942991424298746e+00
2.227942991424298746e+00
2.227942991424298746e+00
2.107939329203161627e+00
2.107939329203161627e+00
2.107939329203161627e+00
2.324883449812311209e+00
2.324883449812311209e+00
2.324883449812311209e+00
2.446949674977874079e+00
2.446949674977874079e+00
2.446949674977874079e+00
2.446949674977874079e+00
2.280444593646046680e+00
2.280444593646046680e+00
2.280444593646046680e+00
2.277444502090518075e+00
2.277444502090518075e+00
2.277444502090518075e+00
2.258506424146244473e+00
2.258506424146244473e+00
2.258506424146244473e+00
2.258506424146244473e+00
2.249131138035218136e+00
2.249131138035218136e+00
2.249131138035218136e+00
2.272756859035004684e+00
2.272756859035004684e+00
2.272756859035004684e+00
2.344759056367687222e+00
2.344759056367687222e+00
2.344759056367687222e+00
2.344759056367687222e+00
2.347571642200994901e+00
2.347571642200994901e+00
2.347571642200994901e+00
2.254006286812952009e+00
2.254006286812952009e+00
2.254006286812952009e+00
2.254006286812952009e+00
2.238255806146427940e+00
2.238255806146427940e+00
2.238255806146427940e+00
2.255318826868495830e+00
2.255318826868495830e+00
2.255318826868495830e+00
2.170003723258155937e+00
2.170003723258155937e+00
2.170003723258155937e+00
2.098376537369914807e+00
2.098376537369914807e+00
2.098376537369914807e+00
2.098376537369914807e+00
2.461950132755516218e+00
2.461950132755516218e+00
2.461950132755516218e+00
2.387885372478407930e+00
2.387885372478407930e+00
2.387885372478407930e+00
2.387885372478407930e+00
2.275756950590533290e+00
2.275756950590533290e+00
2.275756950590533290e+00
2.270694296090578934e+00
2.270694296090578934e+00
2.270694296090578934e+00
2.263006561479537382e+00
2.263006561479537382e+00
2.263006561479537382e+00
2.263006561479537382e+00
2.258881435590685438e+00
2.258881435590685438e+00
2.258881435590685438e+00
2.269569261757255596e+00
2.269569261757255596e+00
2.269569261757255596e+00
2.391447981200597983e+00
2.391447981200597983e+00
2.391447981200597983e+00
2.391447981200597983e+00
2.292444959868159771e+00
2.292444959868159771e+00
2.292444959868159771e+00
2.243505966368602778e+00
2.243505966368602778e+00
2.243505966368602778e+00
2.228318002868740155e+00
2.228318002868740155e+00
2.228318002868740155e+00
2.250068666646320992e+00
2.250068666646320992e+00
2.250068666646320992e+00
2.250068666646320992e+00
2.109251869258705447e+00
2.109251869258705447e+00
2.109251869258705447e+00
2.136815210425123013e+00
2.136815210425123013e+00
2.136815210425123013e+00
2.516326792199468976e+00
2.516326792199468976e+00
2.516326792199468976e+00
2.516326792199468976e+00
2.320758323923459709e+00
2.320758323923459709e+00
2.320758323923459709e+00
2.254943815424054865e+00
2.254943815424054865e+00
2.254943815424054865e+00
2.248381115146336207e+00
2.248381115146336207e+00
2.248381115146336207e+00
2.248381115146336207e+00
2.233755668813135031e+00
2.233755668813135031e+00
2.233755668813135031e+00
2.251756218146305777e+00
2.251756218146305777e+00
2.251756218146305777e+00
2.280632099368266719e+00
2.280632099368266719e+00
2.280632099368266719e+00
2.280632099368266719e+00
2.412636127811517817e+00
2.412636127811517817e+00
2.412636127811517817e+00
2.262069032868434526e+00
2.262069032868434526e+00
2.262069032868434526e+00
2.230568071535386387e+00
2.230568071535386387e+00
2.230568071535386387e+00
2.230568071535386387e+00
2.228130497146519229e+00
2.228130497146519229e+00
2.228130497146519229e+00
2.233755668813135031e+00
2.233755668813135031e+00
2.233755668813135031e+00
2.100626606036561483e+00
2.100626606036561483e+00
2.100626606036561483e+00
2.100626606036561483e+00
2.270506790368358452e+00
2.270506790368358452e+00
2.270506790368358452e+00
2.481450727866450823e+00
2.481450727866450823e+00
2.481450727866450823e+00
2.296945097201452679e+00
2.296945097201452679e+00
2.296945097201452679e+00
2.296945097201452679e+00
2.263756584368419311e+00
2.263756584368419311e+00
2.263756584368419311e+00
2.251943723868526259e+00
2.251943723868526259e+00
2.251943723868526259e+00
2.256256355479598685e+00
2.256256355479598685e+00
2.256256355479598685e+00
2.256256355479598685e+00
2.272756859035004684e+00
2.272756859035004684e+00
2.272756859035004684e+00
2.328821069978942226e+00
2.328821069978942226e+00
2.328821069978942226e+00
2.328821069978942226e+00
2.361072054200873183e+00
2.361072054200873183e+00
2.361072054200873183e+00
2.243880977813043742e+00
2.243880977813043742e+00
2.243880977813043742e+00
2.239005829035309869e+00
2.239005829035309869e+00
2.239005829035309869e+00
2.239005829035309869e+00
2.263194067201757864e+00
2.263194067201757864e+00
2.263194067201757864e+00
2.201317178868984037e+00
2.201317178868984037e+00
2.201317178868984037e+00
2.096876491592150504e+00
2.096876491592150504e+00
2.096876491592150504e+00
2.096876491592150504e+00
2.402698324533829588e+00
2.402698324533829588e+00
2.402698324533829588e+00
2.404385876033814373e+00
2.404385876033814373e+00
2.404385876033814373e+00
2.261881527146214044e+00
2.261881527146214044e+00
2.261881527146214044e+00
2.261881527146214044e+00
2.253068758201849597e+00
2.253068758201849597e+00
2.253068758201849597e+00
2.240318369090853690e+00
2.240318369090853690e+00
2.240318369090853690e+00
2.243505966368602778e+00
2.243505966368602778e+00
2.243505966368602778e+00
2.243505966368602778e+00
2.267319193090609808e+00
2.267319193090609808e+00
2.267319193090609808e+00
2.381510177922910199e+00
2.381510177922910199e+00
2.381510177922910199e+00
2.316633198034607766e+00
2.316633198034607766e+00
2.316633198034607766e+00
2.316633198034607766e+00
2.246881069368571904e+00
2.246881069368571904e+00
2.246881069368571904e+00
2.230943082979827352e+00
2.230943082979827352e+00
2.230943082979827352e+00
2.254381298257393418e+00
2.254381298257393418e+00
2.254381298257393418e+00
2.254381298257393418e+00
2.142815393536179780e+00
2.142815393536179780e+00
2.142815393536179780e+00
2.107189306314279698e+00
2.107189306314279698e+00
2.107189306314279698e+00
2.505076448866237371e+00
2.505076448866237371e+00
2.505076448866237371e+00
2.505076448866237371e+00
2.334446241645558029e+00
2.334446241645558029e+00
2.334446241645558029e+00
2.267506698812830290e+00
2.267506698812830290e+00
2.267506698812830290e+00
2.266569170201727434e+00
2.266569170201727434e+00
2.266569170201727434e+00
2.266569170201727434e+00
2.246881069368571904e+00
2.246881069368571904e+00
2.246881069368571904e+00
2.252318735312967224e+00
2.252318735312967224e+00
2.252318735312967224e+00
2.252318735312967224e+00
2.269194250312814631e+00
2.269194250312814631e+00
2.269194250312814631e+00
2.410198553422650658e+00
2.410198553422650658e+00
2.410198553422650658e+00
2.278382030701620931e+00
2.278382030701620931e+00
2.278382030701620931e+00
2.278382030701620931e+00
2.255506332590716312e+00
2.255506332590716312e+00
2.255506332590716312e+00
2.243693472090823260e+00
2.243693472090823260e+00
2.243693472090823260e+00
2.254943815424054865e+00
2.254943815424054865e+00
2.254943815424054865e+00
2.254943815424054865e+00
2.099689077425458628e+00
2.099689077425458628e+00
2.099689077425458628e+00
2.217630176702169997e+00
2.217630176702169997e+00
2.217630176702169997e+00
2.497763725699636783e+00
2.497763725699636783e+00
2.497763725699636783e+00
2.497763725699636783e+00
2.293569994201483109e+00
2.293569994201483109e+00
2.293569994201483109e+00
2.257381389812921579e+00
2.257381389812921579e+00
2.257381389812921579e+00
2.249693655201880027e+00
2.249693655201880027e+00
2.249693655201880027e+00
2.249693655201880027e+00
2.225880428479872997e+00
2.225880428479872997e+00
2.225880428479872997e+00
2.241443403424177028e+00
2.241443403424177028e+00
2.241443403424177028e+00
2.295070039979247412e+00
2.295070039979247412e+00
2.295070039979247412e+00
2.295070039979247412e+00
2.387510361033966966e+00
2.387510361033966966e+00
2.387510361033966966e+00
2.261131504257332114e+00
2.261131504257332114e+00
2.261131504257332114e+00
2.237130771813104602e+00
2.237130771813104602e+00
2.237130771813104602e+00
2.237130771813104602e+00
2.252131229590746742e+00
2.252131229590746742e+00
2.252131229590746742e+00
2.220442762535478121e+00
2.220442762535478121e+00
2.220442762535478121e+00
2.108126834925382109e+00
2.108126834925382109e+00
2.108126834925382109e+00
2.108126834925382109e+00
2.346259102145451525e+00
2.346259102145451525e+00
2.346259102145451525e+00
2.440199468977935382e+00
2.440199468977935382e+00
2.440199468977935382e+00
2.281757133701590057e+00
2.281757133701590057e+00
2.281757133701590057e+00
2.281757133701590057e+00
2.269756767479476078e+00
2.269756767479476078e+00
2.269756767479476078e+00
2.252693746757408633e+00
2.252693746757408633e+00
2.252693746757408633e+00
2.251756218146305777e+00
2.251756218146305777e+00
2.251756218146305777e+00
2.251756218146305777e+00
2.275006927701650916e+00
2.275006927701650916e+00
2.275006927701650916e+00
2.363134617145298488e+00
2.363134617145298488e+00
2.363134617145298488e+00
2.355821893978697901e+00
2.355821893978697901e+00
2.355821893978697901e+00
2.355821893978697901e+00
2.251381206701864812e+00
2.251381206701864812e+00
2.251381206701864812e+00
2.226255439924313961e+00
2.226255439924313961e+00
2.226255439924313961e+00
2.251381206701864812e+00
2.251381206701864812e+00
2.251381206701864812e+00
2.163253517258217240e+00
2.163253517258217240e+00
2.163253517258217240e+00
2.163253517258217240e+00
2.090501297036652772e+00
2.090501297036652772e+00
2.090501297036652772e+00
2.468325327311013950e+00
2.468325327311013950e+00
2.468325327311013950e+00
2.368197271645252844e+00
2.368197271645252844e+00
2.368197271645252844e+00
2.368197271645252844e+00
2.263569078646198829e+00
2.263569078646198829e+00
2.263569078646198829e+00
2.265444135868404540e+00
2.265444135868404540e+00
2.265444135868404540e+00
2.242380932035279439e+00
2.242380932035279439e+00
2.242380932035279439e+00
2.242380932035279439e+00
2.238443311868648422e+00
2.238443311868648422e+00
2.238443311868648422e+00
2.256068849757378203e+00
2.256068849757378203e+00
2.256068849757378203e+00
2.382447706534013054e+00
2.382447706534013054e+00
2.382447706534013054e+00
2.382447706534013054e+00
2.268631733146153184e+00
2.268631733146153184e+00
2.268631733146153184e+00
2.236380748924222672e+00
2.236380748924222672e+00
2.236380748924222672e+00
2.244068483535264225e+00
2.244068483535264225e+00
2.244068483535264225e+00
2.244068483535264225e+00
2.276506973479415219e+00
2.276506973479415219e+00
2.276506973479415219e+00
2.115627063814203623e+00
2.115627063814203623e+00
2.115627063814203623e+00
2.159878414258247670e+00
2.159878414258247670e+00
2.159878414258247670e+00
2.159878414258247670e+00
2.508451551866206941e+00
2.508451551866206941e+00
2.508451551866206941e+00
2.318320749534592551e+00
2.318320749534592551e+00
2.318320749534592551e+00
2.274444410534989469e+00
2.274444410534989469e+00
2.274444410534989469e+00
2.274444410534989469e+00
2.279319559312723342e+00
2.279319559312723342e+00
2.279319559312723342e+00
2.265256630146183614e+00
2.265256630146183614e+00
2.265256630146183614e+00
2.265069124423963132e+00
2.265069124423963132e+00
2.265069124423963132e+00
2.265069124423963132e+00
2.282132145146031021e+00
2.282132145146031021e+00
2.282132145146031021e+00
2.411323587755973996e+00
2.411323587755973996e+00
2.411323587755973996e+00
2.266194158757286470e+00
2.266194158757286470e+00
2.266194158757286470e+00
2.266194158757286470e+00
2.244068483535264225e+00
2.244068483535264225e+00
2.244068483535264225e+00
2.232818140202032620e+00
2.232818140202032620e+00
2.232818140202032620e+00
2.224567888424329176e+00
2.224567888424329176e+00
2.224567888424329176e+00
2.224567888424329176e+00
2.096313974425489057e+00
2.096313974425489057e+00
2.096313974425489057e+00
2.280632099368266719e+00
2.280632099368266719e+00
2.280632099368266719e+00
2.280632099368266719e+00
2.457825006866664719e+00
2.457825006866664719e+00
2.457825006866664719e+00
2.280069582201605716e+00
2.280069582201605716e+00
2.280069582201605716e+00
2.263006561479537382e+00
2.263006561479537382e+00
2.263006561479537382e+00
2.262819055757316900e+00
2.262819055757316900e+00
2.262819055757316900e+00
2.262819055757316900e+00
2.255881344035157721e+00
2.255881344035157721e+00
2.255881344035157721e+00
2.266944181646168399e+00
2.266944181646168399e+00
2.266944181646168399e+00
2.331446150090029423e+00
2.331446150090029423e+00
2.331446150090029423e+00
2.331446150090029423e+00
2.352446790978728330e+00
2.352446790978728330e+00
2.352446790978728330e+00
2.242943449201941331e+00
2.242943449201941331e+00
2.242943449201941331e+00
2.222880336924344391e+00
2.222880336924344391e+00
2.222880336924344391e+00
2.222880336924344391e+00
2.251006195257423848e+00
2.251006195257423848e+00
2.251006195257423848e+00
2.182941618091372327e+00
2.182941618091372327e+00
2.182941618091372327e+00
2.102314157536546269e+00
2.102314157536546269e+00
2.102314157536546269e+00
2.102314157536546269e+00
2.435136814477980582e+00
2.435136814477980582e+00
2.435136814477980582e+00
2.397260658589434712e+00
2.397260658589434712e+00
2.397260658589434712e+00
2.273506881923887057e+00
2.273506881923887057e+00
2.273506881923887057e+00
2.273506881923887057e+00
2.267506698812830290e+00
2.267506698812830290e+00
2.267506698812830290e+00
2.260381481368449741e+00
2.260381481368449741e+00
2.260381481368449741e+00
2.250068666646320992e+00
2.250068666646320992e+00
2.250068666646320992e+00
2.250068666646320992e+00
2.260381481368449741e+00
2.260381481368449741e+00
2.260381481368449741e+00
2.377385052034058699e+00
2.377385052034058699e+00
2.377385052034058699e+00
2.315320657979064389e+00
2.315320657979064389e+00
2.315320657979064389e+00
2.315320657979064389e+00
2.251568712424085295e+00
2.251568712424085295e+00
2.251568712424085295e+00
2.227192968535416817e+00
2.227192968535416817e+00
2.227192968535416817e+00
2.254568803979613900e+00
2.254568803979613900e+00
2.254568803979613900e+00
2.254568803979613900e+00
2.134002624591814889e+00
2.134002624591814889e+00
2.134002624591814889e+00
2.125377361369670925e+00
2.125377361369670925e+00
2.125377361369670925e+00
2.125377361369670925e+00
2.524577043977172419e+00
2.524577043977172419e+00
2.524577043977172419e+00
2.340258919034394314e+00
2.340258919034394314e+00
2.340258919034394314e+00
2.270506790368358452e+00
2.270506790368358452e+00
2.270506790368358452e+00
2.270506790368358452e+00
2.273881893368328022e+00
2.273881893368328022e+00
2.273881893368328022e+00
2.249131138035218136e+00
2.249131138035218136e+00
2.249131138035218136e+00
2.240318369090853690e+00
2.240318369090853690e+00
2.240318369090853690e+00
2.240318369090853690e+00
2.249506149479659545e+00
2.249506149479659545e+00
2.249506149479659545e+00
2.399510727256080500e+00
2.399510727256080500e+00
2.399510727256080500e+00
2.271256813257240381e+00
2.271256813257240381e+00
2.271256813257240381e+00
2.271256813257240381e+00
2.257943906979583026e+00
2.257943906979583026e+00
2.257943906979583026e+00
2.246881069368571904e+00
2.246881069368571904e+00
2.246881069368571904e+00
2.254193792535172935e+00
2.254193792535172935e+00
2.254193792535172935e+00
2.254193792535172935e+00
2.102314157536546269e+00
2.102314157536546269e+00
2.102314157536546269e+00
2.236380748924222672e+00
2.236380748924222672e+00
2.236380748924222672e+00
2.495888668477431516e+00
2.495888668477431516e+00
2.495888668477431516e+00
2.495888668477431516e+00
2.302195257423627517e+00
2.302195257423627517e+00
2.302195257423627517e+00
2.272006836146122755e+00
2.272006836146122755e+00
2.272006836146122755e+00
2.257943906979583026e+00
2.257943906979583026e+00
2.257943906979583026e+00
2.257943906979583026e+00
2.243318460646382295e+00
2.243318460646382295e+00
2.243318460646382295e+00
2.261881527146214044e+00
2.261881527146214044e+00
2.261881527146214044e+00
2.304445326090273749e+00
2.304445326090273749e+00
2.304445326090273749e+00
2.304445326090273749e+00
2.380760155034028269e+00
2.380760155034028269e+00
2.380760155034028269e+00
2.262819055757316900e+00
2.262819055757316900e+00
2.262819055757316900e+00
2.227755485702078264e+00
2.227755485702078264e+00
2.227755485702078264e+00
2.227755485702078264e+00
2.226630451368755370e+00
2.226630451368755370e+00
2.226630451368755370e+00
2.187254249702444309e+00
2.187254249702444309e+00
2.187254249702444309e+00
2.087688711203345093e+00
2.087688711203345093e+00
2.087688711203345093e+00
2.370072328867458111e+00
2.370072328867458111e+00
2.370072328867458111e+00
2.370072328867458111e+00
2.423511459700308013e+00
2.423511459700308013e+00
2.423511459700308013e+00
2.268631733146153184e+00
2.268631733146153184e+00
2.268631733146153184e+00
2.263006561479537382e+00
2.263006561479537382e+00
2.263006561479537382e+00
2.263006561479537382e+00
2.251943723868526259e+00
2.251943723868526259e+00
2.251943723868526259e+00
2.248193609424115724e+00
2.248193609424115724e+00
2.248193609424115724e+00
2.248193609424115724e+00
2.277444502090518075e+00
2.277444502090518075e+00
2.277444502090518075e+00
2.366697225867488541e+00
2.366697225867488541e+00
2.366697225867488541e+00
2.351509262367625919e+00
2.351509262367625919e+00
2.351509262367625919e+00
2.351509262367625919e+00
2.265444135868404540e+00
2.265444135868404540e+00
2.265444135868404540e+00
2.240318369090853690e+00
2.240318369090853690e+00
2.240318369090853690e+00
2.255506332590716312e+00
2.255506332590716312e+00
2.255506332590716312e+00
2.255506332590716312e+00
2.155565782647175688e+00
2.155565782647175688e+00
2.155565782647175688e+00
2.096688985869930022e+00
2.096688985869930022e+00
2.096688985869930022e+00
2.491763542588580016e+00
2.491763542588580016e+00
2.491763542588580016e+00
2.491763542588580016e+00
2.353196813867610704e+00
2.353196813867610704e+00
2.353196813867610704e+00
2.263006561479537382e+00
2.263006561479537382e+00
2.263006561479537382e+00
2.264694112979522167e+00
2.264694112979522167e+00
2.264694112979522167e+00
2.264694112979522167e+00
2.253068758201849597e+00
2.253068758201849597e+00
2.253068758201849597e+00
2.260943998535111632e+00
2.260943998535111632e+00
2.260943998535111632e+00
2.268819238868374111e+00
2.268819238868374111e+00
2.268819238868374111e+00
2.268819238868374111e+00
2.393323038422803695e+00
2.393323038422803695e+00
2.393323038422803695e+00
2.280257087923826198e+00
2.280257087923826198e+00
2.280257087923826198e+00
2.249693655201880027e+00
2.249693655201880027e+00
2.249693655201880027e+00
2.249693655201880027e+00
2.229630542924283532e+00
2.229630542924283532e+00
2.229630542924283532e+00
2.254381298257393418e+00
2.254381298257393418e+00
2.254381298257393418e+00
2.100626606036561483e+00
2.100626606036561483e+00
2.100626606036561483e+00
2.100626606036561483e+00
2.176003906369212704e+00
2.176003906369212704e+00
2.176003906369212704e+00
2.503013885921811621e+00
2.503013885921811621e+00
2.503013885921811621e+00
2.300695211645863214e+00
2.300695211645863214e+00
2.300695211645863214e+00
2.300695211645863214e+00
2.261506515701773079e+00
2.261506515701773079e+00
2.261506515701773079e+00
2.268444227423932702e+00
2.268444227423932702e+00
2.268444227423932702e+00
2.251193700979644330e+00
2.251193700979644330e+00
2.251193700979644330e+00
2.251193700979644330e+00
2.263381572923978347e+00
2.263381572923978347e+00
2.263381572923978347e+00
2.280257087923826198e+00
2.280257087923826198e+00
2.280257087923826198e+00
2.398760704367198571e+00
2.398760704367198571e+00
2.398760704367198571e+00
2.398760704367198571e+00
2.252693746757408633e+00
2.252693746757408633e+00
2.252693746757408633e+00
2.239755851924192243e+00
2.239755851924192243e+00
2.239755851924192243e+00
2.253818781090731527e+00
2.253818781090731527e+00
2.253818781090731527e+00
2.253818781090731527e+00
2.226442945646534444e+00
2.226442945646534444e+00
2.226442945646534444e+00
2.095563951536606684e+00
2.095563951536606684e+00
2.095563951536606684e+00
2.311758049256874337e+00
2.311758049256874337e+00
2.311758049256874337e+00
2.311758049256874337e+00
2.456137455366679934e+00
2.456137455366679934e+00
2.456137455366679934e+00
2.276506973479415219e+00
2.276506973479415219e+00
2.276506973479415219e+00
2.265631641590625023e+00
2.265631641590625023e+00
2.265631641590625023e+00
2.265631641590625023e+00
2.248193609424115724e+00
2.248193609424115724e+00
2.248193609424115724e+00
2.239005829035309869e+00
2.239005829035309869e+00
2.239005829035309869e+00
2.262069032868434526e+00
2.262069032868434526e+00
2.262069032868434526e+00
2.262069032868434526e+00
2.342883999145481511e+00
2.342883999145481511e+00
2.342883999145481511e+00
2.361072054200873183e+00
2.361072054200873183e+00
2.361072054200873183e+00
2.252881252479629115e+00
2.252881252479629115e+00
2.252881252479629115e+00
2.252881252479629115e+00
2.232255623035371173e+00
2.232255623035371173e+00
2.232255623035371173e+00
2.247818597979674760e+00
2.247818597979674760e+00
2.247818597979674760e+00
2.166253608813745402e+00
2.166253608813745402e+00
2.166253608813745402e+00
2.166253608813745402e+00
2.095563951536606684e+00
2.095563951536606684e+00
2.095563951536606684e+00
2.459325052644428578e+00
2.459325052644428578e+00
2.459325052644428578e+00
2.388260383922848895e+00
2.388260383922848895e+00
2.388260383922848895e+00
2.388260383922848895e+00
2.263756584368419311e+00
2.263756584368419311e+00
2.263756584368419311e+00
2.256818872646260132e+00
2.256818872646260132e+00
2.256818872646260132e+00
2.244068483535264225e+00
2.244068483535264225e+00
2.244068483535264225e+00
2.244068483535264225e+00
2.260193975646229259e+00
2.260193975646229259e+00
2.260193975646229259e+00
2.284007202368236289e+00
2.284007202368236289e+00
2.284007202368236289e+00
2.395198095645008962e+00
2.395198095645008962e+00
2.395198095645008962e+00
2.395198095645008962e+00
2.317758232367931104e+00
2.317758232367931104e+00
2.317758232367931104e+00
2.253068758201849597e+00
2.253068758201849597e+00
2.253068758201849597e+00
2.253068758201849597e+00
2.235818231757560781e+00
2.235818231757560781e+00
2.235818231757560781e+00
2.255506332590716312e+00
2.255506332590716312e+00
2.255506332590716312e+00
2.105876766258735877e+00
2.105876766258735877e+00
2.105876766258735877e+00
2.105876766258735877e+00
2.107939329203161627e+00
2.107939329203161627e+00
2.107939329203161627e+00
2.518014343699453761e+00
2.518014343699453761e+00
2.518014343699453761e+00
2.323945921201208797e+00
2.323945921201208797e+00
2.323945921201208797e+00
2.323945921201208797e+00
2.260568987090670667e+00
2.260568987090670667e+00
2.260568987090670667e+00
2.266569170201727434e+00
2.266569170201727434e+00
2.266569170201727434e+00
2.263194067201757864e+00
2.263194067201757864e+00
2.263194067201757864e+00
2.263194067201757864e+00
2.262444044312875935e+00
2.262444044312875935e+00
2.262444044312875935e+00
2.263756584368419311e+00
2.263756584368419311e+00
2.263756584368419311e+00
2.399135715811639535e+00
2.399135715811639535e+00
2.399135715811639535e+00
2.399135715811639535e+00
2.256443861201819168e+00
2.256443861201819168e+00
2.256443861201819168e+00
2.241443403424177028e+00
2.241443403424177028e+00
2.241443403424177028e+00
2.259068941312906365e+00
2.259068941312906365e+00
2.259068941312906365e+00
2.283819696646015807e+00
2.283819696646015807e+00
2.283819696646015807e+00
2.283819696646015807e+00
2.112251960814234053e+00
2.112251960814234053e+00
2.112251960814234053e+00
2.272381847590563719e+00
2.272381847590563719e+00
2.272381847590563719e+00
2.501513840144047762e+00
2.501513840144047762e+00
2.501513840144047762e+00
2.501513840144047762e+00
2.286444776757103448e+00
2.286444776757103448e+00
2.286444776757103448e+00
2.244255989257484707e+00
2.244255989257484707e+00
2.244255989257484707e+00
2.244255989257484707e+00
2.225130405590991067e+00
2.225130405590991067e+00
2.225130405590991067e+00
2.221755302591021497e+00
2.221755302591021497e+00
2.221755302591021497e+00
2.248006103701895242e+00
2.248006103701895242e+00
2.248006103701895242e+00
2.248006103701895242e+00
2.304820337534714714e+00
2.304820337534714714e+00
2.304820337534714714e+00
2.362947111423078006e+00
2.362947111423078006e+00
2.362947111423078006e+00
2.243880977813043742e+00
2.243880977813043742e+00
2.243880977813043742e+00
2.243880977813043742e+00
2.221755302591021497e+00
2.221755302591021497e+00
2.221755302591021497e+00
2.231880611590930208e+00
2.231880611590930208e+00
2.231880611590930208e+00
2.186504226813562823e+00
2.186504226813562823e+00
2.186504226813562823e+00
2.186504226813562823e+00
2.102314157536546269e+00
2.102314157536546269e+00
2.102314157536546269e+00
2.411136082033753514e+00
2.411136082033753514e+00
2.411136082033753514e+00
2.437574388866847741e+00
2.437574388866847741e+00
2.437574388866847741e+00
2.437574388866847741e+00
2.286632282479323930e+00
2.286632282479323930e+00
2.286632282479323930e+00
2.286819788201544412e+00
2.286819788201544412e+00
2.286819788201544412e+00
2.269006744590594149e+00
2.269006744590594149e+00
2.269006744590594149e+00
2.269006744590594149e+00
2.267506698812830290e+00
2.267506698812830290e+00
2.267506698812830290e+00
2.289257362590411127e+00
2.289257362590411127e+00
2.289257362590411127e+00
2.383572740867336393e+00
2.383572740867336393e+00
2.383572740867336393e+00
2.383572740867336393e+00
2.331071138645588459e+00
2.331071138645588459e+00
2.331071138645588459e+00
2.246693563646351421e+00
2.246693563646351421e+00
2.246693563646351421e+00
2.221942808313242423e+00
2.221942808313242423e+00
2.221942808313242423e+00
2.221942808313242423e+00
2.241630909146397510e+00
2.241630909146397510e+00
2.241630909146397510e+00
2.137752739036225869e+00
2.137752739036225869e+00
2.137752739036225869e+00
2.084688619647816488e+00
2.084688619647816488e+00
2.084688619647816488e+00
2.084688619647816488e+00
2.500951322977385871e+00
2.500951322977385871e+00
2.500951322977385871e+00
2.340821436201055761e+00
2.340821436201055761e+00
2.340821436201055761e+00
2.258693929868464956e+00
2.258693929868464956e+00
2.258693929868464956e+00
2.258693929868464956e+00
2.255506332590716312e+00
2.255506332590716312e+00
2.255506332590716312e+00
2.236568254646443155e+00
2.236568254646443155e+00
2.236568254646443155e+00
2.236568254646443155e+00
2.238818323313089387e+00
2.238818323313089387e+00
2.238818323313089387e+00
2.255506332590716312e+00
2.255506332590716312e+00
2.255506332590716312e+00
2.407573473311563461e+00
2.407573473311563461e+00
2.407573473311563461e+00
2.407573473311563461e+00
2.274444410534989469e+00
2.274444410534989469e+00
2.274444410534989469e+00
2.237505783257545566e+00
2.237505783257545566e+00
2.237505783257545566e+00
2.232068117313150690e+00
2.232068117313150690e+00
2.254568803979613900e+00
2.254568803979613900e+00
2.110751915036469750e+00
2.110751915036469750e+00
2.110751915036469750e+00
2.212005005035553751e+00
2.212005005035553751e+00
2.515951780755027567e+00
2.515951780755027567e+00
2.304445326090273749e+00
2.304445326090273749e+00
2.260381481368449741e+00
2.260381481368449741e+00
2.247443586535233351e+00
2.247443586535233351e+00
2.237130771813104602e+00
2.237130771813104602e+00
2.254381298257393418e+00
2.254381298257393418e+00
2.298445142979216982e+00
2.298445142979216982e+00
2.405510910367137711e+00
2.405510910367137711e+00
2.405510910367137711e+00
2.251568712424085295e+00
2.251568712424085295e+00
2.242005920590838475e+00
2.242005920590838475e+00
2.269944273201696561e+00
2.269944273201696561e+00
2.240693380535294654e+00
2.240693380535294654e+00
2.116189580980865070e+00
2.116189580980865070e+00
2.337258827478866152e+00
2.337258827478866152e+00
2.452949858088931290e+00
2.452949858088931290e+00
2.279882076479384789e+00
2.279882076479384789e+00
2.279882076479384789e+00
2.254193792535172935e+00
2.254193792535172935e+00
2.241443403424177028e+00
2.241443403424177028e+00
2.253256263924070080e+00
2.253256263924070080e+00
2.261319009979552597e+00
2.261319009979552597e+00
2.338758873256630455e+00
2.338758873256630455e+00
2.338946378978850937e+00
2.338946378978850937e+00
2.245006012146367080e+00
2.245006012146367080e+00
2.227192968535416817e+00
2.227192968535416817e+00
2.227192968535416817e+00
2.252131229590746742e+00
2.252131229590746742e+00
2.175816400646992221e+00
2.175816400646992221e+00
2.096688985869930022e+00
2.096688985869930022e+00
2.465512741477706271e+00
2.465512741477706271e+00
2.374572466200750576e+00
2.374572466200750576e+00
2.270131778923917043e+00
2.270131778923917043e+00
2.264881618701742649e+00
2.264881618701742649e+00
2.251568712424085295e+00
2.251568712424085295e+00
2.244631000701926116e+00
2.244631000701926116e+00
2.244631000701926116e+00
2.261694021423993561e+00
2.261694021423993561e+00
2.390697958311716054e+00
2.390697958311716054e+00
2.290194891201513983e+00
2.290194891201513983e+00
2.257006378368480615e+00
2.257006378368480615e+00
2.245193517868587563e+00
2.245193517868587563e+00
2.281944639423810539e+00
2.281944639423810539e+00
2.139440290536210654e+00
2.139440290536210654e+00
2.154440748313852350e+00
2.154440748313852350e+00
2.505263954588457853e+00
2.505263954588457853e+00
2.302757774590289408e+00
2.302757774590289408e+00
2.302757774590289408e+00
2.245943540757469048e+00
2.245943540757469048e+00
2.245381023590808045e+00
2.245381023590808045e+00
2.229443037202063049e+00
2.229443037202063049e+00
2.235068208868678852e+00
2.235068208868678852e+00
2.251756218146305777e+00
2.251756218146305777e+00
2.389197912533951751e+00
2.389197912533951751e+00
2.265444135868404540e+00
2.265444135868404540e+00
2.254943815424054865e+00
2.254943815424054865e+00
2.254943815424054865e+00
2.263381572923978347e+00
2.263381572923978347e+00
2.262444044312875935e+00
2.262444044312875935e+00
2.092751365703299449e+00
2.092751365703299449e+00
2.261319009979552597e+00
2.261319009979552597e+00
2.482013245033112270e+00
2.482013245033112270e+00
2.290944914090395912e+00
2.290944914090395912e+00
2.275381939146092325e+00
2.275381939146092325e+00
2.268631733146153184e+00
2.268631733146153184e+00
2.263944090090640238e+00
2.263944090090640238e+00
2.263944090090640238e+00
2.272006836146122755e+00
2.272006836146122755e+00
2.330696127201147494e+00
2.330696127201147494e+00
2.380197637867366822e+00
2.380197637867366822e+00
2.235443220313119816e+00
2.235443220313119816e+00
2.202442213202307375e+00
2.202442213202307375e+00
2.211629993591112786e+00
2.211629993591112786e+00
2.154065736869411385e+00
2.154065736869411385e+00
2.073625782036805365e+00
2.073625782036805365e+00
2.073625782036805365e+00
2.398573198644978088e+00
2.398573198644978088e+00
2.413948667867061193e+00
2.413948667867061193e+00
2.293757499923703591e+00
2.293757499923703591e+00
2.285319742423780109e+00
2.285319742423780109e+00
2.270881801812799416e+00
2.270881801812799416e+00
2.256256355479598685e+00
2.256256355479598685e+00
2.275194433423871843e+00
2.275194433423871843e+00
2.397448164311655194e+00
2.397448164311655194e+00
2.367259743034150432e+00
2.367259743034150432e+00
2.300882717368083696e+00
2.300882717368083696e+00
2.300882717368083696e+00
2.269194250312814631e+00
2.269194250312814631e+00
2.263381572923978347e+00
2.263381572923978347e+00
2.122564775536362802e+00
2.122564775536362802e+00
2.074375804925687294e+00
2.074375804925687294e+00
2.469825373088778253e+00
2.469825373088778253e+00
2.316445692312387283e+00
2.316445692312387283e+00
2.246131046479689974e+00
2.246131046479689974e+00
2.249506149479659545e+00
2.249506149479659545e+00
2.235068208868678852e+00
2.235068208868678852e+00
2.235068208868678852e+00
2.244255989257484707e+00
2.244255989257484707e+00
2.274256904812768987e+00
2.274256904812768987e+00
2.417886288033692654e+00
2.417886288033692654e+00
2.288882351145970162e+00
2.288882351145970162e+00
2.269944273201696561e+00
2.269944273201696561e+00
2.255881344035157721e+00
2.255881344035157721e+00
2.264506607257301685e+00
2.264506607257301685e+00
2.106251777703176842e+00
2.106251777703176842e+00
2.106251777703176842e+00
2.204129764702292160e+00
2.204129764702292160e+00
2.496826197088534371e+00
2.496826197088534371e+00
2.299570177312540320e+00
2.299570177312540320e+00
2.263756584368419311e+00
2.263756584368419311e+00
2.262819055757316900e+00
2.262819055757316900e+00
2.252318735312967224e+00
2.252318735312967224e+00
2.250256172368541474e+00
2.250256172368541474e+00
2.292257454145939732e+00
2.292257454145939732e+00
2.393323038422803695e+00
2.393323038422803695e+00
2.393323038422803695e+00
2.254568803979613900e+00
2.254568803979613900e+00
2.224005371257667729e+00
2.224005371257667729e+00
2.230943082979827352e+00
2.230943082979827352e+00
2.191566881313516735e+00
2.191566881313516735e+00
2.098564043092135289e+00
2.098564043092135289e+00
2.360322031311990809e+00
2.360322031311990809e+00
2.478825647755364070e+00
2.478825647755364070e+00
2.314945646534623425e+00
2.314945646534623425e+00
2.314945646534623425e+00
2.294320017090365038e+00
2.294320017090365038e+00
2.258693929868464956e+00
2.258693929868464956e+00
2.236193243202001746e+00
2.236193243202001746e+00
2.246693563646351421e+00
2.246693563646351421e+00
2.337633838923307117e+00
2.337633838923307117e+00
2.318133243812372069e+00
2.318133243812372069e+00
2.224942899868770141e+00
2.224942899868770141e+00
2.209192419202246516e+00
2.209192419202246516e+00
2.209192419202246516e+00
2.233568163090914993e+00
2.233568163090914993e+00
2.146753013702810797e+00
2.146753013702810797e+00
2.105876766258735877e+00
2.105876766258735877e+00
2.503013885921811621e+00
2.503013885921811621e+00
2.390885464033936536e+00
2.390885464033936536e+00
2.271444318979460864e+00
2.271444318979460864e+00
2.237880794701986531e+00
2.237880794701986531e+00
2.233193151646474028e+00
2.233193151646474028e+00
2.241630909146397510e+00
2.241630909146397510e+00
2.250256172368541474e+00
2.250256172368541474e+00
2.250256172368541474e+00
2.368384777367473326e+00
2.368384777367473326e+00
2.261506515701773079e+00
2.261506515701773079e+00
2.224005371257667729e+00
2.224005371257667729e+00
2.225130405590991067e+00
2.225130405590991067e+00
2.252693746757408633e+00
2.252693746757408633e+00
2.091438825647755628e+00
2.091438825647755628e+00
2.163816034424878687e+00
2.163816034424878687e+00
2.542577593310342721e+00
2.542577593310342721e+00
2.398385692922757606e+00
2.398385692922757606e+00
2.398385692922757606e+00
2.359196996978667915e+00
2.359196996978667915e+00
2.311008026367992407e+00
2.311008026367992407e+00
2.238443311868648422e+00
2.238443311868648422e+00
2.226630451368755370e+00
2.226630451368755370e+00
2.241068391979735619e+00
2.241068391979735619e+00
2.357509445478682686e+00
2.357509445478682686e+00
2.222505325479903426e+00
2.222505325479903426e+00
2.215192602313302839e+00
2.215192602313302839e+00
2.215192602313302839e+00
2.228130497146519229e+00
2.228130497146519229e+00
2.226630451368755370e+00
2.226630451368755370e+00
2.116377086703085553e+00
2.116377086703085553e+00
2.310633014923550999e+00
2.310633014923550999e+00
2.480700704977568893e+00
2.480700704977568893e+00
2.288882351145970162e+00
2.288882351145970162e+00
2.255318826868495830e+00
2.255318826868495830e+00
2.223067842646564873e+00
2.223067842646564873e+00
2.223067842646564873e+00
2.209192419202246516e+00
2.209192419202246516e+00
2.228505508590960638e+00
2.228505508590960638e+00
2.313070589312418157e+00
2.313070589312418157e+00
2.350196722312082542e+00
2.350196722312082542e+00
2.253068758201849597e+00
2.253068758201849597e+00
2.243130954924161813e+00
2.243130954924161813e+00
2.288882351145970162e+00
2.288882351145970162e+00
2.233943174535355514e+00
2.233943174535355514e+00
2.131940061647389140e+00
2.131940061647389140e+00
2.437199377422406776e+00
2.437199377422406776e+00
2.378135074922940628e+00
2.378135074922940628e+00
2.378135074922940628e+00
2.242568437757499922e+00
2.242568437757499922e+00
2.263944090090640238e+00
2.263944090090640238e+00
2.237505783257545566e+00
2.237505783257545566e+00
2.221192785424360050e+00
2.221192785424360050e+00
2.237880794701986531e+00
2.237880794701986531e+00
2.360697042756431774e+00
2.360697042756431774e+00
2.302382763145847999e+00
2.302382763145847999e+00
2.255506332590716312e+00
2.255506332590716312e+00
2.255506332590716312e+00
2.252693746757408633e+00
2.252693746757408633e+00
2.284194708090456771e+00
2.284194708090456771e+00
2.163441022980437278e+00
2.163441022980437278e+00
2.164191045869319652e+00
2.164191045869319652e+00
2.565828302865687860e+00
2.565828302865687860e+00
2.398948210089419053e+00
2.398948210089419053e+00
2.330508621478927012e+00
2.330508621478927012e+00
2.351321756645405436e+00
2.351321756645405436e+00
2.351321756645405436e+00
2.356384411145359792e+00
2.356384411145359792e+00
2.294132511368144556e+00
2.294132511368144556e+00
2.241443403424177028e+00
2.241443403424177028e+00
2.362009582811975594e+00
2.362009582811975594e+00
2.218380199591051927e+00
2.218380199591051927e+00
2.189129306924649576e+00
2.189129306924649576e+00
2.183879146702475182e+00
2.183879146702475182e+00
2.195129490035706787e+00
2.195129490035706787e+00
2.195129490035706787e+00
2.035374614703817642e+00
2.035374614703817642e+00
2.172441297647023095e+00
2.172441297647023095e+00
2.431199194311350009e+00
2.431199194311350009e+00
2.248193609424115724e+00
2.248193609424115724e+00
2.215942625202185212e+00
2.215942625202185212e+00
2.198692098757896396e+00
2.198692098757896396e+00
2.219505233924375265e+00
2.219505233924375265e+00
2.269944273201696561e+00
2.269944273201696561e+00
2.341008941923276243e+00
2.341008941923276243e+00
2.341008941923276243e+00
2.411136082033753514e+00
2.411136082033753514e+00
2.282132145146031021e+00
2.282132145146031021e+00
2.257006378368480615e+00
2.257006378368480615e+00
2.266194158757286470e+00
2.266194158757286470e+00
2.226630451368755370e+00
2.226630451368755370e+00
2.132877590258491995e+00
2.132877590258491995e+00
2.414698690755943566e+00
2.414698690755943566e+00
2.480700704977568893e+00
2.480700704977568893e+00
2.334258735923337547e+00
2.334258735923337547e+00
2.329383587145603673e+00
2.329383587145603673e+00
2.271444318979460864e+00
2.271444318979460864e+00
2.271444318979460864e+00
2.218380199591051927e+00
2.218380199591051927e+00
2.224567888424329176e+00
2.224567888424329176e+00
2.326946012756737403e+00
2.326946012756737403e+00
2.260193975646229259e+00
2.260193975646229259e+00
2.143752922147282192e+00
2.143752922147282192e+00
2.149753105258339403e+00
2.149753105258339403e+00
2.256631366924039650e+00
2.256631366924039650e+00
2.173191320535905025e+00
2.173191320535905025e+00
2.113752006591998356e+00
2.113752006591998356e+00
2.113752006591998356e+00
2.531514755699331598e+00
2.531514755699331598e+00
2.442074526200140649e+00
2.442074526200140649e+00
2.355446882534256936e+00
2.355446882534256936e+00
2.340633930478835278e+00
2.340633930478835278e+00
2.290757408368175430e+00
2.290757408368175430e+00
2.263006561479537382e+00
2.263006561479537382e+00
2.274069399090548504e+00
2.274069399090548504e+00
2.424261482589190386e+00
2.424261482589190386e+00
2.424261482589190386e+00
2.298632648701437464e+00
2.298632648701437464e+00
2.248006103701895242e+00
2.248006103701895242e+00
2.206004821924497428e+00
2.206004821924497428e+00
2.219880245368816230e+00
2.219880245368816230e+00
2.076063356425672080e+00
2.076063356425672080e+00
2.149003082369457029e+00
2.149003082369457029e+00
2.465137730033265306e+00
2.465137730033265306e+00
2.279319559312723342e+00
2.279319559312723342e+00
2.279319559312723342e+00
2.232630634479812137e+00
2.232630634479812137e+00
2.261319009979552597e+00
2.261319009979552597e+00
2.280819605090487201e+00
2.280819605090487201e+00
2.238255806146427940e+00
2.238255806146427940e+00
2.261131504257332114e+00
2.261131504257332114e+00
2.404198370311593891e+00
2.404198370311593891e+00
2.258318918424023991e+00
2.258318918424023991e+00
2.247256080813012868e+00
2.247256080813012868e+00
2.247256080813012868e+00
2.288132328257088233e+00
2.288132328257088233e+00
2.273319376201666131e+00
2.273319376201666131e+00
2.146940519425031280e+00
2.146940519425031280e+00
2.336883816034425188e+00
2.336883816034425188e+00
2.422761436811426083e+00
2.422761436811426083e+00
2.232068117313150690e+00
2.232068117313150690e+00
2.198692098757896396e+00
2.198692098757896396e+00
2.201504684591204519e+00
2.201504684591204519e+00
2.210504959257789892e+00
2.210504959257789892e+00
2.210504959257789892e+00
2.251568712424085295e+00
2.251568712424085295e+00
2.334821253089998994e+00
2.334821253089998994e+00
2.323945921201208797e+00
2.323945921201208797e+00
2.220630268257698603e+00
2.220630268257698603e+00
2.221942808313242423e+00
2.221942808313242423e+00
2.251381206701864812e+00
2.251381206701864812e+00
2.209379924924466998e+00
2.209379924924466998e+00
2.135127658925138228e+00
2.135127658925138228e+00
2.135127658925138228e+00
2.491576036866359534e+00
2.491576036866359534e+00
2.466075258644368162e+00
2.466075258644368162e+00
2.330508621478927012e+00
2.330508621478927012e+00
2.257568895535142062e+00
2.257568895535142062e+00
2.233755668813135031e+00
2.233755668813135031e+00
2.245006012146367080e+00
2.245006012146367080e+00
2.203942258980071234e+00
2.203942258980071234e+00
2.271256813257240381e+00
2.271256813257240381e+00
2.212192510757774677e+00
2.212192510757774677e+00
2.212192510757774677e+00
2.203004730368968822e+00
2.203004730368968822e+00
2.166628620258186366e+00
2.166628620258186366e+00
2.163816034424878687e+00
2.163816034424878687e+00
2.017561571092867823e+00
2.017561571092867823e+00
2.008748802148503376e+00
2.008748802148503376e+00
2.421823908200323228e+00
2.421823908200323228e+00
2.301070223090304623e+00
2.301070223090304623e+00
2.285507248146000592e+00
2.285507248146000592e+00
2.285507248146000592e+00
2.300695211645863214e+00
2.300695211645863214e+00
2.302007751701407035e+00
2.302007751701407035e+00
2.350946745200964472e+00
2.350946745200964472e+00
2.391635486922818910e+00
2.391635486922818910e+00
2.563765739921262110e+00
2.563765739921262110e+00
2.455012421033357040e+00
2.455012421033357040e+00
2.383572740867336393e+00
2.383572740867336393e+00
2.350946745200964472e+00
2.350946745200964472e+00
2.316820703756828248e+00
2.316820703756828248e+00
2.316820703756828248e+00
2.111126926480910715e+00
2.111126926480910715e+00
2.218942716757713818e+00
2.218942716757713818e+00
2.445824640644550740e+00
2.445824640644550740e+00
2.260006469924008776e+00
2.260006469924008776e+00
2.244818506424146598e+00
2.244818506424146598e+00
2.222692831202123909e+00
2.222692831202123909e+00
2.196254524369030126e+00
2.196254524369030126e+00
2.194941984313486305e+00
2.194941984313486305e+00
2.226817957090975852e+00
2.226817957090975852e+00
2.226817957090975852e+00
2.293194982757042144e+00
2.293194982757042144e+00
2.185566698202459968e+00
2.185566698202459968e+00
2.198317087313455875e+00
2.198317087313455875e+00
2.232443128757591655e+00
2.232443128757591655e+00
2.186129215369121415e+00
2.186129215369121415e+00
2.119564683980834197e+00
2.119564683980834197e+00
2.448262215033417899e+00
2.448262215033417899e+00
2.494013611255226248e+00
2.494013611255226248e+00
2.494013611255226248e+00
2.338758873256630455e+00
2.338758873256630455e+00
2.354321848200934042e+00
2.354321848200934042e+00
2.335758781701101849e+00
2.335758781701101849e+00
2.303132786034730373e+00
2.303132786034730373e+00
2.287569811090426342e+00
2.287569811090426342e+00
2.346821619312112972e+00
2.346821619312112972e+00
2.272756859035004684e+00
2.272756859035004684e+00
2.193816949980162967e+00
2.193816949980162967e+00
2.132315073091830104e+00
2.132315073091830104e+00
2.132315073091830104e+00
2.095563951536606684e+00
2.095563951536606684e+00
1.880119876705221627e+00
1.880119876705221627e+00
1.837368572038941661e+00
1.837368572038941661e+00
2.305195348979155678e+00
2.305195348979155678e+00
2.206942350535599839e+00
2.206942350535599839e+00
2.192504409924619146e+00
2.192504409924619146e+00
2.261319009979552597e+00
2.261319009979552597e+00
2.329008575701162709e+00
2.329008575701162709e+00
2.353196813867610704e+00
2.353196813867610704e+00
2.353196813867610704e+00
2.392385509811700839e+00
2.392385509811700839e+00
2.554577959532456255e+00
2.554577959532456255e+00
2.421823908200323228e+00
2.421823908200323228e+00
2.395948118533890892e+00
2.395948118533890892e+00
2.362572099978637485e+00
2.362572099978637485e+00
2.362947111423078006e+00
2.362947111423078006e+00
2.269006744590594149e+00
2.269006744590594149e+00
2.329008575701162709e+00
2.329008575701162709e+00
2.329008575701162709e+00
2.546515213476973738e+00
2.546515213476973738e+00
2.292632465590380253e+00
2.292632465590380253e+00
2.195879512924588717e+00
2.195879512924588717e+00
2.146753013702810797e+00
2.146753013702810797e+00
2.119752189703054679e+00
2.119752189703054679e+00
2.168691183202612560e+00
2.168691183202612560e+00
2.214630085146641392e+00
2.214630085146641392e+00
2.347009125034333454e+00
2.347009125034333454e+00
2.347009125034333454e+00
2.243880977813043742e+00
2.243880977813043742e+00
2.258693929868464956e+00
2.258693929868464956e+00
2.307070406201360946e+00
2.307070406201360946e+00
2.270694296090578934e+00
2.270694296090578934e+00
2.116752098147526517e+00
2.116752098147526517e+00
2.346071596423230599e+00
2.346071596423230599e+00
2.507701528977324568e+00
2.507701528977324568e+00
2.356571916867580274e+00
2.356571916867580274e+00
2.356571916867580274e+00
2.380385143589587305e+00
2.380385143589587305e+00
2.415636219367045978e+00
2.415636219367045978e+00
2.371759880367442896e+00
2.371759880367442896e+00
2.272569353312784202e+00
2.272569353312784202e+00
2.267506698812830290e+00
2.267506698812830290e+00
2.190629352702413879e+00
2.190629352702413879e+00
2.060500381481368493e+00
2.060500381481368493e+00
2.047937498092593067e+00
2.047937498092593067e+00
2.078688436536759720e+00
2.078688436536759720e+00
2.078688436536759720e+00
2.040812280648213406e+00
2.040812280648213406e+00
2.024499282815027001e+00
2.024499282815027001e+00
2.433824274422437206e+00
2.433824274422437206e+00
2.326758507034516477e+00
2.326758507034516477e+00
2.195879512924588717e+00
2.195879512924588717e+00
2.211817499313333268e+00
2.211817499313333268e+00
2.263756584368419311e+00
2.263756584368419311e+00
2.366322214423047576e+00
2.366322214423047576e+00
2.366322214423047576e+00
2.486700888088625661e+00
2.486700888088625661e+00
2.562078188421277325e+00
2.562078188421277325e+00
2.322258369701224012e+00
2.322258369701224012e+00
2.199817133091219734e+00
2.199817133091219734e+00
2.170378734702597345e+00
2.170378734702597345e+00
2.208817407757805107e+00
2.208817407757805107e+00
2.093876400036621899e+00
2.093876400036621899e+00
2.153503219702749494e+00
2.153503219702749494e+00
2.523639515366069563e+00
2.523639515366069563e+00
2.523639515366069563e+00
2.348509170812097757e+00
2.348509170812097757e+00
2.332758690145573244e+00
2.332758690145573244e+00
2.296570085757011714e+00
2.296570085757011714e+00
2.238443311868648422e+00
2.238443311868648422e+00
2.240130863368633207e+00
2.240130863368633207e+00
2.266381664479506952e+00
2.266381664479506952e+00
2.311195532090212890e+00
2.311195532090212890e+00
2.086001159703360308e+00
2.086001159703360308e+00
2.044562395092623941e+00
2.044562395092623941e+00
2.044562395092623941e+00
2.026186834315011787e+00
2.026186834315011787e+00
2.012873928037354432e+00
2.012873928037354432e+00
1.916683492538224565e+00
1.916683492538224565e+00
2.167753654591509704e+00
2.167753654591509704e+00
2.467762810144352947e+00
2.467762810144352947e+00
2.433636768700216724e+00
2.433636768700216724e+00
2.473575487533188788e+00
2.473575487533188788e+00
2.482575762199774161e+00
2.482575762199774161e+00
2.482575762199774161e+00
2.489888485366374749e+00
2.489888485366374749e+00
2.486700888088625661e+00
2.486700888088625661e+00
2.564890774254585448e+00
2.564890774254585448e+00
2.543515121921445576e+00
2.543515121921445576e+00
2.358071962645344577e+00
2.358071962645344577e+00
2.320008301034577336e+00
2.320008301034577336e+00
2.324883449812311209e+00
2.324883449812311209e+00
2.215942625202185212e+00
2.215942625202185212e+00
2.105689260536515395e+00
2.105689260536515395e+00
2.105689260536515395e+00
2.404573381756035300e+00
2.404573381756035300e+00
2.327508529923398850e+00
2.327508529923398850e+00
2.140565324869533104e+00
2.140565324869533104e+00
2.089376262703329878e+00
2.089376262703329878e+00
2.163628528702658205e+00
2.163628528702658205e+00
2.191004364146854844e+00
2.191004364146854844e+00
2.112064455092013571e+00
2.112064455092013571e+00
2.208254890591143660e+00
2.208254890591143660e+00
2.208254890591143660e+00
2.204879787591174090e+00
2.204879787591174090e+00
2.238068300424207457e+00
2.238068300424207457e+00
2.286819788201544412e+00
2.286819788201544412e+00
2.365384685811944721e+00
2.365384685811944721e+00
2.289632374034852091e+00
2.289632374034852091e+00
2.287944822534867306e+00
2.287944822534867306e+00
2.514264229255043226e+00
2.514264229255043226e+00
2.304820337534714714e+00
2.304820337534714714e+00
2.284382213812677254e+00
2.284382213812677254e+00
2.232818140202032620e+00
2.232818140202032620e+00
2.232818140202032620e+00
2.147878048036134135e+00
2.147878048036134135e+00
2.055437726981414581e+00
2.055437726981414581e+00
2.087126194036683202e+00
2.087126194036683202e+00
2.302570268868068482e+00
2.302570268868068482e+00
2.170003723258155937e+00
2.170003723258155937e+00
2.206192327646717910e+00
2.206192327646717910e+00
2.309132969145787140e+00
2.309132969145787140e+00
2.312133060701315301e+00
2.312133060701315301e+00
2.191941892757957699e+00
2.191941892757957699e+00
2.191941892757957699e+00
2.387135349589526001e+00
2.387135349589526001e+00
2.610079653309732350e+00
2.610079653309732350e+00
2.226630451368755370e+00
2.226630451368755370e+00
2.087126194036683202e+00
2.087126194036683202e+00
2.036874660481581945e+00
2.036874660481581945e+00
2.085063631092257452e+00
2.085063631092257452e+00
2.199067110202337361e+00
2.199067110202337361e+00
2.268256721701712220e+00
2.268256721701712220e+00
2.268256721701712220e+00
2.293945005645924073e+00
2.293945005645924073e+00
2.195129490035706787e+00
2.195129490035706787e+00
2.231693105868709726e+00
2.231693105868709726e+00
2.213505050813318054e+00
2.213505050813318054e+00
2.166253608813745402e+00
2.166253608813745402e+00
2.022811731315042216e+00
2.022811731315042216e+00
2.309695486312448587e+00
2.309695486312448587e+00
2.467762810144352947e+00
2.467762810144352947e+00
2.467762810144352947e+00
2.336508804589983779e+00
2.336508804589983779e+00
2.459887569811090469e+00
2.459887569811090469e+00
2.560203131199072502e+00
2.560203131199072502e+00
2.567140842921231680e+00
2.567140842921231680e+00
2.475450544755394056e+00
2.475450544755394056e+00
2.494201116977446731e+00
2.494201116977446731e+00
2.428574114200262368e+00
2.428574114200262368e+00
2.289632374034852091e+00
2.289632374034852091e+00
2.114689535203100768e+00
2.114689535203100768e+00
2.114689535203100768e+00
2.037999694814905283e+00
2.037999694814905283e+00
1.964872463148899850e+00
1.964872463148899850e+00
1.923058687093722297e+00
1.923058687093722297e+00
2.269756767479476078e+00
2.269756767479476078e+00
2.085626148258918899e+00
2.085626148258918899e+00
1.979685415204321286e+00
1.979685415204321286e+00
1.999748527481917781e+00
1.999748527481917781e+00
2.140002807702871657e+00
2.140002807702871657e+00
2.260943998535111632e+00
2.260943998535111632e+00
2.272006836146122755e+00
2.272006836146122755e+00
2.500576311532944906e+00
2.500576311532944906e+00
2.500576311532944906e+00
2.420323862422559369e+00
2.420323862422559369e+00
2.342321481978820064e+00
2.342321481978820064e+00
2.298445142979216982e+00
2.298445142979216982e+00
2.136252693258461566e+00
2.136252693258461566e+00
1.879182348094118993e+00
1.879182348094118993e+00
1.941996765037995676e+00
1.941996765037995676e+00
2.213317545091097571e+00
2.213317545091097571e+00
2.206192327646717910e+00
2.206192327646717910e+00
2.206192327646717910e+00
2.368384777367473326e+00
2.368384777367473326e+00
2.596016724143193066e+00
2.596016724143193066e+00
2.787647572252571315e+00
2.787647572252571315e+00
2.835836542863246379e+00
2.835836542863246379e+00
2.856274666585283839e+00
2.856274666585283839e+00
2.887775627918332866e+00
2.887775627918332866e+00
2.598641804254280263e+00
2.598641804254280263e+00
2.509951597643971244e+00
2.509951597643971244e+00
2.509951597643971244e+00
2.413198644978179264e+00
2.413198644978179264e+00
2.209379924924466998e+00
2.209379924924466998e+00
1.954184636982329915e+00
1.954184636982329915e+00
2.117502121036408447e+00
2.117502121036408447e+00
2.287194799645985377e+00
2.287194799645985377e+00
2.105314249092073986e+00
2.105314249092073986e+00
2.094813928647724754e+00
2.094813928647724754e+00
2.099876583147679110e+00
2.099876583147679110e+00
2.080563493758964988e+00
2.080563493758964988e+00
2.080563493758964988e+00
2.066313058870204777e+00
2.066313058870204777e+00
2.158190862758262885e+00
2.158190862758262885e+00
2.300507705923642732e+00
2.300507705923642732e+00
2.313820612201300086e+00
2.313820612201300086e+00
2.289257362590411127e+00
2.289257362590411127e+00
2.314758140812402942e+00
2.314758140812402942e+00
2.256818872646260132e+00
2.256818872646260132e+00
2.209192419202246516e+00
2.209192419202246516e+00
2.209192419202246516e+00
2.568078371532334536e+00
2.568078371532334536e+00
2.501326334421826836e+00
2.501326334421826836e+00
2.080375988036744506e+00
2.080375988036744506e+00
1.768366466261787728e+00
1.768366466261787728e+00
1.635049897762993254e+00
1.635049897762993254e+00
1.551422345652638368e+00
1.551422345652638368e+00
1.518233832819605222e+00
1.518233832819605222e+00
1.613674245429853382e+00
1.613674245429853382e+00
1.731615344706564752e+00
1.731615344706564752e+00
1.731615344706564752e+00
1.907683217871639192e+00
1.907683217871639192e+00
2.245943540757469048e+00
2.245943540757469048e+00
2.601829401532029351e+00
2.601829401532029351e+00
2.726895718253120382e+00
2.726895718253120382e+00
2.888900662251655760e+00
2.888900662251655760e+00
3.321851374858852068e+00
3.321851374858852068e+00
3.165096591082491528e+00
3.165096591082491528e+00
2.890775719473860583e+00
2.890775719473860583e+00
2.699707388531144225e+00
2.699707388531144225e+00
2.699707388531144225e+00
2.447324686422315043e+00
2.447324686422315043e+00
2.400823267311624321e+00
2.400823267311624321e+00
2.416198736533707869e+00
2.529077181310464884e+00
2.529077181310464884e+00
2.375509994811853431e+00
2.375509994811853431e+00
2.338008850367748082e+00
2.338008850367748082e+00
2.338008850367748082e+00
2.225317911313211550e+00
2.225317911313211550e+00
2.117502121036408447e+00
2.117502121036408447e+00
1.902245551927244094e+00
1.902245551927244094e+00
1.951747062593462978e+00
1.951747062593462978e+00
2.052437635425885976e+00
2.052437635425885976e+00
1.835493514816736393e+00
1.835493514816736393e+00
1.910870815149388058e+00
1.910870815149388058e+00
2.060500381481368493e+00
2.060500381481368493e+00
2.060500381481368493e+00
2.201504684591204519e+00
2.201504684591204519e+00
2.362384594256416559e+00
2.362384594256416559e+00
2.567328348643452163e+00
2.567328348643452163e+00
2.679831781975768212e+00
2.679831781975768212e+00
2.465137730033265306e+00
2.465137730033265306e+00
2.238443311868648422e+00
2.238443311868648422e+00
2.007623767815180038e+00
2.007623767815180038e+00
1.873557176427503190e+00
1.873557176427503190e+00
1.873557176427503190e+00
1.727490218817712808e+00
1.727490218817712808e+00
2.091438825647755628e+00
2.091438825647755628e+00
2.238068300424207457e+00
2.238068300424207457e+00
2.134377636036255854e+00
2.134377636036255854e+00
2.058062807092501334e+00
2.058062807092501334e+00
2.051125095370342155e+00
2.051125095370342155e+00
2.206567339091158875e+00
2.206567339091158875e+00
2.373072420422986717e+00
2.373072420422986717e+00
2.457074983977782345e+00
2.457074983977782345e+00
2.457074983977782345e+00
2.354321848200934042e+00
2.354321848200934042e+00
2.673269081698049998e+00
2.673269081698049998e+00
2.841274208807642143e+00
2.841274208807642143e+00
2.664081301309244143e+00
2.664081301309244143e+00
2.398573198644978088e+00
2.398573198644978088e+00
2.290569902645954947e+00
2.290569902645954947e+00
2.511076631977294138e+00
2.511076631977294138e+00
2.154065736869411385e+00
2.154065736869411385e+00
2.154065736869411385e+00
2.037624683370464318e+00
2.037624683370464318e+00
2.111314432203131197e+00
2.111314432203131197e+00
2.221755302591021497e+00
2.221755302591021497e+00
2.202817224646748340e+00
2.202817224646748340e+00
2.230005554368724940e+00
2.230005554368724940e+00
2.326571001312295994e+00
2.326571001312295994e+00
2.005936216315195253e+00
2.005936216315195253e+00
1.802117496261482765e+00
1.802117496261482765e+00
1.851806512649922132e+00
1.851806512649922132e+00
1.851806512649922132e+00
2.160253425702688634e+00
2.160253425702688634e+00
2.304070314645832784e+00
2.304070314645832784e+00
2.670831507309182840e+00
2.670831507309182840e+00
3.057468306527909352e+00
3.057468306527909352e+00
2.866399975585192550e+00
2.866399975585192550e+00
2.775834711752677819e+00
2.775834711752677819e+00
2.718832972197637865e+00
2.718832972197637865e+00
2.578766197698904250e+00
2.578766197698904250e+00
2.578766197698904250e+00
2.415448713644825496e+00
2.415448713644825496e+00
2.351696768089846401e+00
2.351696768089846401e+00
2.391822992645039392e+00
2.391822992645039392e+00
2.175253883480330774e+00
2.175253883480330774e+00
2.036312143314920498e+00
2.036312143314920498e+00
1.893995300149540650e+00
1.893995300149540650e+00
1.881807428205206412e+00
1.881807428205206412e+00
1.954184636982329915e+00
1.954184636982329915e+00
2.314945646534623425e+00
2.314945646534623425e+00
2.269569261757255596e+00
2.269569261757255596e+00
2.269569261757255596e+00
1.797992370372631044e+00
1.797992370372631044e+00
1.873557176427503190e+00
1.873557176427503190e+00
2.150315622425000850e+00
2.150315622425000850e+00
2.311945554979094819e+00
2.311945554979094819e+00
2.360509537034211291e+00
2.360509537034211291e+00
2.520826929532761884e+00
2.520826929532761884e+00
2.554390453810235773e+00
2.554390453810235773e+00
2.510514114810632691e+00
2.510514114810632691e+00
2.510514114810632691e+00
2.481638233588671305e+00
2.481638233588671305e+00
2.403260841700491479e+00
2.403260841700491479e+00
2.259631458479567812e+00
2.259631458479567812e+00
1.980810449537644624e+00
1.980810449537644624e+00
2.130815027314065802e+00
2.130815027314065802e+00
1.864369396038697557e+00
1.864369396038697557e+00
1.655488021485030714e+00
1.655488021485030714e+00
1.854806604205450737e+00
1.854806604205450737e+00
2.073063264870143918e+00
2.073063264870143918e+00
2.073063264870143918e+00
2.031061983092746104e+00
2.031061983092746104e+00
2.198504593035676358e+00
2.198504593035676358e+00
2.468137821588793912e+00
2.468137821588793912e+00
2.541640064699239865e+00
2.541640064699239865e+00
2.738708578753013434e+00
2.738708578753013434e+00
2.774147160252693034e+00
2.774147160252693034e+00
2.664831324198126516e+00
2.664831324198126516e+00
2.604829493087557513e+00
2.604829493087557513e+00
2.862462355418561533e+00
2.862462355418561533e+00
2.862462355418561533e+00
3.007966795861690024e+00
3.007966795861690024e+00
2.278569536423841413e+00
2.278569536423841413e+00
2.024499282815027001e+00
2.024499282815027001e+00
2.055625232703635064e+00
2.055625232703635064e+00
2.058437818536942299e+00
2.058437818536942299e+00
2.097063997314370987e+00
2.097063997314370987e+00
2.128377452925199087e+00
2.128377452925199087e+00
2.175066377758110736e+00
2.175066377758110736e+00
2.175066377758110736e+00
1.890620197149571302e+00
1.890620197149571302e+00
1.872057130649739110e+00
1.872057130649739110e+00
2.124252327036347587e+00
2.124252327036347587e+00
2.230193060090945423e+00
2.230193060090945423e+00
2.137190221869563977e+00
2.137190221869563977e+00
2.337821344645527599e+00
2.337821344645527599e+00
2.445262123477889293e+00
2.445262123477889293e+00
2.025436811426129857e+00
2.025436811426129857e+00
1.865494430372020673e+00
1.865494430372020673e+00
1.786554521317178956e+00
1.786554521317178956e+00
1.786554521317178956e+00
1.620986968596453970e+00
1.620986968596453970e+00
1.506420972319711948e+00
1.506420972319711948e+00
1.755616077150792043e+00
1.755616077150792043e+00
2.201879696035645484e+00
2.201879696035645484e+00
2.551015350810266202e+00
2.551015350810266202e+00
2.866399975585192550e+00
2.866399975585192550e+00
3.072843775749992457e+00
3.072843775749992457e+00
3.151221167638172727e+00
3.151221167638172727e+00
2.906901211584826061e+00
2.906901211584826061e+00
2.906901211584826061e+00
3.009279335917233844e+00
3.009279335917233844e+00
2.865087435529648729e+00
2.865087435529648729e+00
2.587766472365489623e+00
2.587766472365489623e+00
2.360322031311990809e+00
2.360322031311990809e+00
2.345696584978789634e+00
2.345696584978789634e+00
2.285319742423780109e+00
2.285319742423780109e+00
2.151440656758324188e+00
2.151440656758324188e+00
2.228130497146519229e+00
2.228130497146519229e+00
2.228130497146519229e+00
2.173753837702566916e+00
2.173753837702566916e+00
2.054875209814752690e+00
2.054875209814752690e+00
1.640675069429609056e+00
1.640675069429609056e+00
1.120909207434308996e+00
1.120909207434308996e+00
8.154623859370708772e-01
8.154623859370708772e-01
8.600887478255562213e-01
8.600887478255562213e-01
1.630924771874141754e+00
1.630924771874141754e+00
1.796117313150425776e+00
1.796117313150425776e+00
1.796117313150425776e+00
2.335008758812219920e+00
2.335008758812219920e+00
2.738896084475233916e+00
2.738896084475233916e+00
2.571078463087863142e+00
2.571078463087863142e+00
1.944809350871303355e+00
1.944809350871303355e+00
1.719239967040009809e+00
1.719239967040009809e+00
1.868307016205328575e+00
1.868307016205328575e+00
1.928308847315897134e+00
1.928308847315897134e+00
2.279507065034943825e+00
2.279507065034943825e+00
2.984341074861903476e+00
2.984341074861903476e+00
2.984341074861903476e+00
3.609297647022919442e+00
3.609297647022919442e+00
3.577796685689870859e+00
3.577796685689870859e+00
3.526232612079226225e+00
3.526232612079226225e+00
3.512357188634906979e+00
3.512357188634906979e+00
3.024654805139316949e+00
3.024654805139316949e+00
2.711707754753258204e+00
2.711707754753258204e+00
2.382260200811792572e+00
2.382260200811792572e+00
2.137377727591784460e+00
2.137377727591784460e+00
2.166816125980407293e+00
2.166816125980407293e+00
2.166816125980407293e+00
2.414511185033723084e+00
2.414511185033723084e+00
2.667081392864772749e+00
2.667081392864772749e+00
2.421636402478102745e+00
2.421636402478102745e+00
2.335008758812219920e+00
2.335008758812219920e+00
2.322070863979003530e+00
2.322070863979003530e+00
2.217442670979949515e+00
2.217442670979949515e+00
2.049625049592577852e+00
2.049625049592577852e+00
2.254568803979613900e+00
2.254568803979613900e+00
2.254568803979613900e+00
2.270694296090578934e+00
2.270694296090578934e+00
2.042124820703756782e+00
2.042124820703756782e+00
1.919496078371532466e+00
1.919496078371532466e+00
1.792367198706015241e+00
1.792367198706015241e+00
1.826680745872371503e+00
1.826680745872371503e+00
2.039687246314890068e+00
2.039687246314890068e+00
2.427824091311380439e+00
2.427824091311380439e+00
2.661081209753715537e+00
2.661081209753715537e+00
2.661081209753715537e+00
2.615142307809686706e+00
2.615142307809686706e+00
2.384135258033997840e+00
2.384135258033997840e+00
2.323758415478988315e+00
2.323758415478988315e+00
2.225130405590991067e+00
2.225130405590991067e+00
2.192504409924619146e+00
2.192504409924619146e+00
2.556453016754661967e+00
2.556453016754661967e+00
2.342321481978820064e+00
2.342321481978820064e+00
2.064250495925779028e+00
2.064250495925779028e+00
2.064250495925779028e+00
1.944996856593524059e+00
1.944996856593524059e+00
2.014561479537339217e+00
2.014561479537339217e+00
2.018499099703970678e+00
2.018499099703970678e+00
1.921371135593737511e+00
1.921371135593737511e+00
1.993185827204199345e+00
1.993185827204199345e+00
1.680988799707022308e+00
1.680988799707022308e+00
1.594173650318918334e+00
1.594173650318918334e+00
1.665425824762718721e+00
1.665425824762718721e+00
1.875619739371929162e+00
1.875619739371929162e+00
1.875619739371929162e+00
2.039687246314890068e+00
2.039687246314890068e+00
2.393135532700583212e+00
2.393135532700583212e+00
3.085594164860988364e+00
3.085594164860988364e+00
2.765896908474990035e+00
2.765896908474990035e+00
2.514076723532822744e+00
2.514076723532822744e+00
2.397448164311655194e+00
2.397448164311655194e+00
2.414323679311502602e+00
2.414323679311502602e+00
2.611767204809717136e+00
2.611767204809717136e+00
2.732895901364177593e+00
2.732895901364177593e+00
2.732895901364177593e+00
2.923964232306894395e+00
2.923964232306894395e+00
2.670831507309182840e+00
2.670831507309182840e+00
2.432324228644673347e+00
2.432324228644673347e+00
2.233755668813135031e+00
2.233755668813135031e+00
2.075875850703451597e+00
2.075875850703451597e+00
1.823305642872402155e+00
1.823305642872402155e+00
2.039312234870449103e+00
2.039312234870449103e+00
2.327321024201178368e+00
2.327321024201178368e+00
2.349259193700979687e+00
2.349259193700979687e+00
2.349259193700979687e+00
2.358446974089785542e+00
2.358446974089785542e+00
2.370447340311899076e+00
2.370447340311899076e+00
2.290944914090395912e+00
2.290944914090395912e+00
2.235255714590899334e+00
2.235255714590899334e+00
2.284382213812677254e+00
2.284382213812677254e+00
2.260568987090670667e+00
2.260568987090670667e+00
2.164378551591540134e+00
2.164378551591540134e+00
2.179379009369182274e+00
2.179379009369182274e+00
2.179379009369182274e+00
2.330883632923367976e+00
2.330883632923367976e+00
2.356196905423139309e+00
2.356196905423139309e+00
2.230755577257606870e+00
2.230755577257606870e+00
2.593016632587664461e+00
2.593016632587664461e+00
2.578953703421124732e+00
2.578953703421124732e+00
2.380197637867366822e+00
2.380197637867366822e+00
2.257568895535142062e+00
2.257568895535142062e+00
2.273319376201666131e+00
2.273319376201666131e+00
2.273319376201666131e+00
2.238255806146427940e+00
2.238255806146427940e+00
2.046437452314828764e+00
2.046437452314828764e+00
2.039124729148228621e+00
2.039124729148228621e+00
1.992248298593096711e+00
1.992248298593096711e+00
2.086188665425580790e+00
2.086188665425580790e+00
2.138127750480666833e+00
2.138127750480666833e+00
2.219505233924375265e+00
2.219505233924375265e+00
2.227567979979857782e+00
2.227567979979857782e+00
2.260943998535111632e+00
2.260943998535111632e+00
2.653205969420453503e+00
2.653205969420453503e+00
2.653205969420453503e+00
2.441136997589037794e+00
2.441136997589037794e+00
2.328821069978942226e+00
2.328821069978942226e+00
2.159690908536027187e+00
2.159690908536027187e+00
2.112439466536454535e+00
2.112439466536454535e+00
2.152940702536088047e+00
2.152940702536088047e+00
2.293007477034821662e+00
2.293007477034821662e+00
2.577078646198919465e+00
2.577078646198919465e+00
2.511826654866176511e+00
2.511826654866176511e+00
2.511826654866176511e+00
2.455387432477798004e+00
2.455387432477798004e+00
2.293945005645924073e+00
2.293945005645924073e+00
2.088813745536667987e+00
2.088813745536667987e+00
1.731990356151005717e+00
1.731990356151005717e+00
1.827055757316812690e+00
1.827055757316812690e+00
2.118439649647511303e+00
2.118439649647511303e+00
1.984185552537614194e+00
1.984185552537614194e+00
2.181629078035828950e+00
2.181629078035828950e+00
2.181629078035828950e+00
2.493263588366343875e+00
2.493263588366343875e+00
2.628080202642903096e+00
2.628080202642903096e+00
2.634080385753959863e+00
2.634080385753959863e+00
2.675519150364696230e+00
2.675519150364696230e+00
2.697082308420057029e+00
2.697082308420057029e+00
2.493826105533005766e+00
2.493826105533005766e+00
2.333508713034455617e+00
2.333508713034455617e+00
2.271819330423901828e+00
2.271819330423901828e+00
2.188941801202429094e+00
2.188941801202429094e+00
2.188941801202429094e+00
2.030686971648304695e+00
2.030686971648304695e+00
2.284194708090456771e+00
2.284194708090456771e+00
2.321883358256782603e+00
2.321883358256782603e+00
2.265819147312845505e+00
2.265819147312845505e+00
2.282507156590471986e+00
2.282507156590471986e+00
2.213317545091097571e+00
2.213317545091097571e+00
2.076063356425672080e+00
2.076063356425672080e+00
2.056562761314737475e+00
2.056562761314737475e+00
2.056562761314737475e+00
2.171316263313699757e+00
2.171316263313699757e+00
2.193629444257942485e+00
2.193629444257942485e+00
2.215942625202185212e+00
2.215942625202185212e+00
2.311570543534653854e+00
2.311570543534653854e+00
2.430449171422468080e+00
2.430449171422468080e+00
2.330133610034486047e+00
2.330133610034486047e+00
2.193254432813501520e+00
2.193254432813501520e+00
2.463262672811060039e+00
2.463262672811060039e+00
2.463262672811060039e+00
2.235068208868678852e+00
2.235068208868678852e+00
2.160440931424909561e+00
2.160440931424909561e+00
2.178816492202520827e+00
2.178816492202520827e+00
2.165503585924863472e+00
2.165503585924863472e+00
2.177316446424756524e+00
2.177316446424756524e+00
2.227380474257637299e+00
2.227380474257637299e+00
2.412823633533738299e+00
2.412823633533738299e+00
2.266569170201727434e+00
2.266569170201727434e+00
2.280444593646046680e+00
2.280444593646046680e+00
2.170378734702597345e+00
2.170378734702597345e+00
2.149753105258339403e+00
2.149753105258339403e+00
2.149753105258339403e+00
2.111501937925351680e+00
2.111501937925351680e+00
2.280257087923826198e+00
2.280257087923826198e+00
2.556078005310220558e+00
2.556078005310220558e+00
2.298820154423657947e+00
2.298820154423657947e+00
2.323008392590105942e+00
2.323008392590105942e+00
2.530952238532670151e+00
2.530952238532670151e+00
2.672519058809167625e+00
2.672519058809167625e+00
2.643080660420545236e+00
2.643080660420545236e+00
2.643080660420545236e+00
2.558703085421308199e+00
2.558703085421308199e+00
2.519889400921659028e+00
2.519889400921659028e+00
2.224567888424329176e+00
2.224567888424329176e+00
2.103814203314310571e+00
2.103814203314310571e+00
2.054500198370311725e+00
2.054500198370311725e+00
2.006873744926298109e+00
2.006873744926298109e+00
1.923246192815943001e+00
1.923246192815943001e+00
2.186316721091342341e+00
2.186316721091342341e+00
2.186316721091342341e+00
2.346634113589892490e+00
2.346634113589892490e+00
2.071375713370158689e+00
2.071375713370158689e+00
1.908808252204962308e+00
1.908808252204962308e+00
1.881619922482985929e+00
1.881619922482985929e+00
1.960747337260048351e+00
1.960747337260048351e+00
2.071375713370158689e+00
2.071375713370158689e+00
2.310258003479110034e+00
2.310258003479110034e+00
2.522326975310525743e+00
2.522326975310525743e+00
2.632767845698416043e+00
2.632767845698416043e+00
2.611017181920834762e+00
2.611017181920834762e+00
2.611017181920834762e+00
2.593579149754326352e+00
2.593579149754326352e+00
2.417698782311472172e+00
2.417698782311472172e+00
2.272569353312784202e+00
2.272569353312784202e+00
2.632955351420636525e+00
2.632955351420636525e+00
2.452574846644489881e+00
2.452574846644489881e+00
2.248006103701895242e+00
2.248006103701895242e+00
2.207504867702261730e+00
2.207504867702261730e+00
2.255881344035157721e+00
2.255881344035157721e+00
2.262256538590655452e+00
2.262256538590655452e+00
2.262256538590655452e+00
2.221755302591021497e+00
2.221755302591021497e+00
2.347009125034333454e+00
2.347009125034333454e+00
2.201692190313425002e+00
2.201692190313425002e+00
2.165691091647083955e+00
2.165691091647083955e+00
2.203379741813409787e+00
2.203379741813409787e+00
2.251568712424085295e+00
2.251568712424085295e+00
2.133440107425153442e+00
2.133440107425153442e+00
2.155940794091616652e+00
2.155940794091616652e+00
2.344946562089907705e+00
2.344946562089907705e+00
2.344946562089907705e+00
1.997685964537492032e+00
1.997685964537492032e+00
1.929996398815881919e+00
1.929996398815881919e+00
1.956434705648976147e+00
1.956434705648976147e+00
2.023186742759483625e+00
2.023186742759483625e+00
2.238630817590868904e+00
2.238630817590868904e+00
2.468512833033234433e+00
2.468512833033234433e+00
2.730458326975310435e+00
2.730458326975310435e+00
2.588141483809930588e+00
2.588141483809930588e+00
2.588141483809930588e+00
2.425011505478072316e+00
2.425011505478072316e+00
2.354134342478713116e+00
2.354134342478713116e+00
2.304632831812494231e+00
2.304632831812494231e+00
2.155378276924954761e+00
2.155378276924954761e+00
2.342321481978820064e+00
2.342321481978820064e+00
2.581203772087771409e+00
2.581203772087771409e+00
2.307257911923581428e+00
2.307257911923581428e+00
2.157065828424939546e+00
2.157065828424939546e+00
2.157065828424939546e+00
2.048125003814813549e+00
2.048125003814813549e+00
1.972560197759941625e+00
1.972560197759941625e+00
1.964497451704458886e+00
1.964497451704458886e+00
2.097063997314370987e+00
2.097063997314370987e+00
2.267506698812830290e+00
2.267506698812830290e+00
2.338008850367748082e+00
2.338008850367748082e+00
2.408135990478225352e+00
2.408135990478225352e+00
2.400448255867183356e+00
2.400448255867183356e+00
2.342883999145481511e+00
2.342883999145481511e+00
2.342883999145481511e+00
2.193254432813501520e+00
2.193254432813501520e+00
2.437761894589068223e+00
2.437761894589068223e+00
2.390135441145054607e+00
2.390135441145054607e+00
2.358821985534226506e+00
2.358821985534226506e+00
2.492513565477461945e+00
2.492513565477461945e+00
2.468325327311013950e+00
2.468325327311013950e+00
2.428949125644703777e+00
2.428949125644703777e+00
2.430449171422468080e+00
2.430449171422468080e+00
2.483513290810876573e+00
2.483513290810876573e+00
2.331258644367808941e+00
2.331258644367808941e+00
2.331258644367808941e+00
2.202629718924527857e+00
2.202629718924527857e+00
2.146753013702810797e+00
2.146753013702810797e+00
2.151628162480544670e+00
2.151628162480544670e+00
2.045874935148167761e+00
2.045874935148167761e+00
2.068000610370189563e+00
2.068000610370189563e+00
2.467387798699911539e+00
2.467387798699911539e+00
2.269194250312814631e+00
2.269194250312814631e+00
2.168128666035950669e+00
2.168128666035950669e+00
2.157440839869380955e+00
2.157440839869380955e+00
2.157440839869380955e+00
2.151440656758324188e+00
2.151440656758324188e+00
2.178628986480300345e+00
2.178628986480300345e+00
2.225505417035432032e+00
2.225505417035432032e+00
2.318508255256813033e+00
2.318508255256813033e+00
2.119564683980834197e+00
2.119564683980834197e+00
2.117314615314187964e+00
2.117314615314187964e+00
2.203942258980071234e+00
2.203942258980071234e+00
2.292444959868159771e+00
2.292444959868159771e+00
2.292444959868159771e+00
2.146565507980590315e+00
2.146565507980590315e+00
2.299382671590319838e+00
2.299382671590319838e+00
2.646268257698293880e+00
2.646268257698293880e+00
2.425761528366954689e+00
2.425761528366954689e+00
2.314383129367961978e+00
2.314383129367961978e+00
2.145252967925046494e+00
2.145252967925046494e+00
1.997498458815271549e+00
1.997498458815271549e+00
1.993185827204199345e+00
1.993185827204199345e+00
1.993185827204199345e+00
2.070063173314615312e+00
2.070063173314615312e+00
2.188379284035767647e+00
2.188379284035767647e+00
2.163816034424878687e+00
2.163816034424878687e+00
2.303507797479171337e+00
2.303507797479171337e+00
2.538827478865932186e+00
2.538827478865932186e+00
2.545202673421430362e+00
2.545202673421430362e+00
2.387135349589526001e+00
2.387135349589526001e+00
2.611767204809717136e+00
2.611767204809717136e+00
2.648330820642719630e+00
2.648330820642719630e+00
2.648330820642719630e+00
2.430824182866909045e+00
2.430824182866909045e+00
2.344384044923245813e+00
2.344384044923245813e+00
2.313445600756859122e+00
2.313445600756859122e+00
2.317758232367931104e+00
2.317758232367931104e+00
2.342883999145481511e+00
2.342883999145481511e+00
2.378135074922940628e+00
2.378135074922940628e+00
2.271444318979460864e+00
2.271444318979460864e+00
2.141127842036194995e+00
2.141127842036194995e+00
2.112064455092013571e+00
2.112064455092013571e+00
2.112064455092013571e+00
2.124814844203009478e+00
2.124814844203009478e+00
2.072875759147922992e+00
2.072875759147922992e+00
2.036312143314920498e+00
2.036312143314920498e+00
2.421636402478102745e+00
2.421636402478102745e+00
2.333508713034455617e+00
2.333508713034455617e+00
2.287757316812646824e+00
2.287757316812646824e+00
2.278944547868282378e+00
2.278944547868282378e+00
2.226817957090975852e+00
2.226817957090975852e+00
2.209379924924466998e+00
2.209379924924466998e+00
2.209379924924466998e+00
2.261506515701773079e+00
2.261506515701773079e+00
2.416386242255928352e+00
2.416386242255928352e+00
2.280632099368266719e+00
2.280632099368266719e+00
2.267694204535050773e+00
2.267694204535050773e+00
2.255506332590716312e+00
2.255506332590716312e+00
2.320195806756797818e+00
2.320195806756797818e+00
2.185379192480239485e+00
2.185379192480239485e+00
2.204317270424512643e+00
2.204317270424512643e+00
2.204317270424512643e+00
2.539389996032593633e+00
2.539389996032593633e+00
2.316070680867946319e+00
2.316070680867946319e+00
2.181816583758049433e+00
2.181816583758049433e+00
2.135502670369579192e+00
2.135502670369579192e+00
2.111126926480910715e+00
2.111126926480910715e+00
2.072500747703482027e+00
2.072500747703482027e+00
2.083938596758934114e+00
2.083938596758934114e+00
2.226067934202093479e+00
2.226067934202093479e+00
2.226067934202093479e+00
2.138502761925107798e+00
2.138502761925107798e+00
2.228693014313181120e+00
2.228693014313181120e+00
2.263381572923978347e+00
2.263381572923978347e+00
2.228505508590960638e+00
2.228505508590960638e+00
2.106064271980956359e+00
2.106064271980956359e+00
2.303882808923612302e+00
2.303882808923612302e+00
2.476013061922055947e+00
2.476013061922055947e+00
2.247443586535233351e+00
2.247443586535233351e+00
2.247443586535233351e+00
2.210692464980010374e+00
2.210692464980010374e+00
2.199254615924558287e+00
2.199254615924558287e+00
2.213505050813318054e+00
2.213505050813318054e+00
2.311945554979094819e+00
2.311945554979094819e+00
2.495326151310770069e+00
2.495326151310770069e+00
2.605954527420880851e+00
2.605954527420880851e+00
2.480700704977568893e+00
2.480700704977568893e+00
2.435511825922421991e+00
2.435511825922421991e+00
2.404573381756035300e+00
2.404573381756035300e+00
2.404573381756035300e+00
2.266006653035065987e+00
2.266006653035065987e+00
2.067063081759087151e+00
2.067063081759087151e+00
2.372884914700766235e+00
2.372884914700766235e+00
2.386197820978423145e+00
2.386197820978423145e+00
2.357509445478682686e+00
2.357509445478682686e+00
2.417698782311472172e+00
2.417698782311472172e+00
2.328446058534500818e+00
2.328446058534500818e+00
2.234318185979796478e+00
2.234318185979796478e+00
2.234318185979796478e+00
2.223442854091006282e+00
2.223442854091006282e+00
2.314383129367961978e+00
2.314383129367961978e+00
2.207317361980041248e+00
2.207317361980041248e+00
2.173003814813684542e+00
2.173003814813684542e+00
2.181629078035828950e+00
2.181629078035828950e+00
2.193629444257942485e+00
2.193629444257942485e+00
2.035937131870479533e+00
2.035937131870479533e+00
2.055812738425855546e+00
2.055812738425855546e+00
2.480700704977568893e+00
2.480700704977568893e+00
2.480700704977568893e+00
2.341758964812158617e+00
2.341758964812158617e+00
2.294695028534806447e+00
2.294695028534806447e+00
2.317195715201269657e+00
2.317195715201269657e+00
2.287944822534867306e+00
2.287944822534867306e+00
2.239380840479750834e+00
2.239380840479750834e+00
2.209567430646687480e+00
2.209567430646687480e+00
2.287382305368205859e+00
2.287382305368205859e+00
2.105314249092073986e+00
2.105314249092073986e+00
2.105314249092073986e+00
2.094063905758842381e+00
2.094063905758842381e+00
2.116189580980865070e+00
2.116189580980865070e+00
2.201879696035645484e+00
2.201879696035645484e+00
2.130065004425183872e+00
2.130065004425183872e+00
2.247256080813012868e+00
2.247256080813012868e+00
2.418823816644795066e+00
2.418823816644795066e+00
2.206004821924497428e+00
2.206004821924497428e+00
2.226067934202093479e+00
2.226067934202093479e+00
2.268819238868374111e+00
2.268819238868374111e+00
2.305945371868038052e+00
2.305945371868038052e+00
2.360884548478652700e+00
2.360884548478652700e+00
2.360884548478652700e+00
2.483325785088656090e+00
2.483325785088656090e+00
2.631080294198431702e+00
2.631080294198431702e+00
2.505638966032898818e+00
2.505638966032898818e+00
2.441512009033478758e+00
2.441512009033478758e+00
2.381697683645130681e+00
2.381697683645130681e+00
2.286257271034882521e+00
2.286257271034882521e+00
2.141690359202856442e+00
2.141690359202856442e+00
2.353946836756492633e+00
2.353946836756492633e+00
2.353946836756492633e+00
2.390697958311716054e+00
2.390697958311716054e+00
2.233193151646474028e+00
2.233193151646474028e+00
2.253068758201849597e+00
2.253068758201849597e+00
2.249318643757439062e+00
2.249318643757439062e+00
2.260756492812891150e+00
2.260756492812891150e+00
2.253256263924070080e+00
2.253256263924070080e+00
2.357884456923124095e+00
2.357884456923124095e+00
2.309695486312448587e+00
2.309695486312448587e+00
2.309695486312448587e+00
2.211442487868892304e+00
2.211442487868892304e+00
2.197754570146794428e+00
2.197754570146794428e+00
2.182754112369151844e+00
2.182754112369151844e+00
2.083751091036713632e+00
2.083751091036713632e+00
1.989998229926450479e+00
1.989998229926450479e+00
2.375697500534073914e+00
2.375697500534073914e+00
2.221755302591021497e+00
2.221755302591021497e+00
2.190254341257972914e+00
2.190254341257972914e+00
2.253256263924070080e+00
2.253256263924070080e+00
2.253256263924070080e+00
2.294320017090365038e+00
2.294320017090365038e+00
2.332008667256691314e+00
2.332008667256691314e+00
2.362947111423078006e+00
2.362947111423078006e+00
2.513889217810602261e+00
2.513889217810602261e+00
2.348321665089877275e+00
2.348321665089877275e+00
2.288882351145970162e+00
2.288882351145970162e+00
2.267694204535050773e+00
2.267694204535050773e+00
2.263006561479537382e+00
2.263006561479537382e+00
2.263006561479537382e+00
2.054312692648091243e+00
2.054312692648091243e+00
2.081126010925626435e+00
2.081126010925626435e+00
2.384135258033997840e+00
2.384135258033997840e+00
2.153315713980529011e+00
2.153315713980529011e+00
2.100064088869899592e+00
2.100064088869899592e+00
2.117127109591967482e+00
2.117127109591967482e+00
2.156503311258278099e+00
2.156503311258278099e+00
2.190066835535752432e+00
2.190066835535752432e+00
2.318883266701254442e+00
2.318883266701254442e+00
2.504701437421796406e+00
2.504701437421796406e+00
2.504701437421796406e+00
2.427261574144718992e+00
2.427261574144718992e+00
2.458762535477767130e+00
2.458762535477767130e+00
2.452762352366710363e+00
2.452762352366710363e+00
2.389947935422834124e+00
2.389947935422834124e+00
2.209192419202246516e+00
2.209192419202246516e+00
2.369884823145237629e+00
2.369884823145237629e+00
2.449387249366740793e+00
2.449387249366740793e+00
2.241068391979735619e+00
2.241068391979735619e+00
2.241068391979735619e+00
2.116939603869747000e+00
2.116939603869747000e+00
1.968247566148869199e+00
1.968247566148869199e+00
1.961122348704489093e+00
1.961122348704489093e+00
1.991873287148655747e+00
1.991873287148655747e+00
2.118439649647511303e+00
2.118439649647511303e+00
2.188191778313547164e+00
2.188191778313547164e+00
2.200192144535660699e+00
2.200192144535660699e+00
2.347759147923215384e+00
2.347759147923215384e+00
2.347759147923215384e+00
2.550452833643604755e+00
2.550452833643604755e+00
2.557203039643543896e+00
2.557203039643543896e+00
2.424261482589190386e+00
2.424261482589190386e+00
2.748646382030701663e+00
2.748646382030701663e+00
2.592641621143223496e+00
2.592641621143223496e+00
2.429136631366924259e+00
2.429136631366924259e+00
2.374197454756310055e+00
2.374197454756310055e+00
2.264881618701742649e+00
2.264881618701742649e+00
2.264881618701742649e+00
2.184441663869136629e+00
2.184441663869136629e+00
2.179003997924741309e+00
2.179003997924741309e+00
2.288882351145970162e+00
2.288882351145970162e+00
2.191191869869075770e+00
2.191191869869075770e+00
2.159690908536027187e+00
2.159690908536027187e+00
2.153128208258308529e+00
2.153128208258308529e+00
2.194566972869045340e+00
2.194566972869045340e+00
2.062937955870235207e+00
2.062937955870235207e+00
2.062937955870235207e+00
2.087688711203345093e+00
2.087688711203345093e+00
2.456324961088900860e+00
2.456324961088900860e+00
2.284757225257118218e+00
2.284757225257118218e+00
2.236568254646443155e+00
2.236568254646443155e+00
2.222130314035462462e+00
2.222130314035462462e+00
2.191191869869075770e+00
2.191191869869075770e+00
2.193441938535722002e+00
2.193441938535722002e+00
2.228505508590960638e+00
2.228505508590960638e+00
2.372884914700766235e+00
2.372884914700766235e+00
2.372884914700766235e+00
2.234130680257575996e+00
2.234130680257575996e+00
2.203192236091189304e+00
2.203192236091189304e+00
2.204504776146733125e+00
2.204504776146733125e+00
2.230193060090945423e+00
2.230193060090945423e+00
2.143752922147282192e+00
2.143752922147282192e+00
2.342508987701040546e+00
2.342508987701040546e+00
2.568453382976775501e+00
2.568453382976775501e+00
2.387510361033966966e+00
2.387510361033966966e+00
2.387510361033966966e+00
2.332196172978911797e+00
2.332196172978911797e+00
2.311008026367992407e+00
2.311008026367992407e+00
2.281569627979369130e+00
2.281569627979369130e+00
2.264319101535081202e+00
2.264319101535081202e+00
2.320383312479018745e+00
2.320383312479018745e+00
2.367072237311929506e+00
2.367072237311929506e+00
2.264694112979522167e+00
2.264694112979522167e+00
2.235630726035340299e+00
2.235630726035340299e+00
2.233755668813135031e+00
2.233755668813135031e+00
2.233755668813135031e+00
2.158940885647145258e+00
2.158940885647145258e+00
2.029561937314981801e+00
2.029561937314981801e+00
2.327321024201178368e+00
2.327321024201178368e+00
2.334446241645558029e+00
2.334446241645558029e+00
2.194566972869045340e+00
2.194566972869045340e+00
2.156128299813837135e+00
2.156128299813837135e+00
2.147503036591693171e+00
2.147503036591693171e+00
2.189691824091311467e+00
2.189691824091311467e+00
2.189691824091311467e+00
2.247256080813012868e+00
2.247256080813012868e+00
2.324508438367870244e+00
2.324508438367870244e+00
2.270131778923917043e+00
2.270131778923917043e+00
2.258693929868464956e+00
2.258693929868464956e+00
2.287007293923764895e+00
2.287007293923764895e+00
2.338196356089969008e+00
2.338196356089969008e+00
2.225130405590991067e+00
2.225130405590991067e+00
2.218567705313272853e+00
2.218567705313272853e+00
2.218567705313272853e+00
2.625642628254035937e+00
2.625642628254035937e+00
2.483888302255317981e+00
2.483888302255317981e+00
2.386197820978423145e+00
2.386197820978423145e+00
2.345884090701010116e+00
2.345884090701010116e+00
2.293569994201483109e+00
2.293569994201483109e+00
2.260568987090670667e+00
2.260568987090670667e+00
2.256631366924039650e+00
2.256631366924039650e+00
2.373259926145207199e+00
2.373259926145207199e+00
2.221755302591021497e+00
2.221755302591021497e+00
2.193254432813501520e+00
2.193254432813501520e+00
2.193254432813501520e+00
2.197192052980132537e+00
2.197192052980132537e+00
2.226442945646534444e+00
2.226442945646534444e+00
2.097439008758812395e+00
2.097439008758812395e+00
2.209192419202246516e+00
2.209192419202246516e+00
2.480888210699789376e+00
2.480888210699789376e+00
2.273881893368328022e+00
2.273881893368328022e+00
2.233380657368694511e+00
2.233380657368694511e+00
2.238818323313089387e+00
2.238818323313089387e+00
2.238818323313089387e+00
2.234880703146458369e+00
2.234880703146458369e+00
2.239755851924192243e+00
2.239755851924192243e+00
2.274444410534989469e+00
2.274444410534989469e+00
2.335008758812219920e+00
2.335008758812219920e+00
2.187629261146885273e+00
2.187629261146885273e+00
2.191566881313516735e+00
2.191566881313516735e+00
2.223630359813226764e+00
2.223630359813226764e+00
2.213880062257759462e+00
2.213880062257759462e+00
2.213880062257759462e+00
2.147128025147251762e+00
2.147128025147251762e+00
2.401948301644947659e+00
2.401948301644947659e+00
2.512201666310617476e+00
2.512201666310617476e+00
2.392948026978362286e+00
2.392948026978362286e+00
2.405323404644917229e+00
2.405323404644917229e+00
2.356196905423139309e+00
2.356196905423139309e+00
2.260943998535111632e+00
2.260943998535111632e+00
2.184816675313578038e+00
2.184816675313578038e+00
2.184816675313578038e+00
2.204317270424512643e+00
2.204317270424512643e+00
2.222692831202123909e+00
2.222692831202123909e+00
2.193816949980162967e+00
2.193816949980162967e+00
2.233005645924253102e+00
2.233005645924253102e+00
2.269006744590594149e+00
2.269006744590594149e+00
2.188004272591326682e+00
2.188004272591326682e+00
2.117877132480849411e+00
2.117877132480849411e+00
2.494388622699667213e+00
2.494388622699667213e+00
2.494388622699667213e+00
2.394260567033906106e+00
2.394260567033906106e+00
2.294320017090365038e+00
2.294320017090365038e+00
2.284757225257118218e+00
2.284757225257118218e+00
2.266381664479506952e+00
2.266381664479506952e+00
2.258131412701803509e+00
2.258131412701803509e+00
2.260193975646229259e+00
2.260193975646229259e+00
2.380197637867366822e+00
2.380197637867366822e+00
2.257943906979583026e+00
2.257943906979583026e+00
2.226067934202093479e+00
2.226067934202093479e+00
2.226067934202093479e+00
2.213130039368877089e+00
2.213130039368877089e+00
2.226442945646534444e+00
2.226442945646534444e+00
2.097251503036591469e+00
2.097251503036591469e+00
2.148065553758354618e+00
2.148065553758354618e+00
2.484450819421979428e+00
2.484450819421979428e+00
2.311945554979094819e+00
2.311945554979094819e+00
2.261694021423993561e+00
2.261694021423993561e+00
2.269194250312814631e+00
2.269194250312814631e+00
2.275569444868312807e+00
2.275569444868312807e+00
2.275569444868312807e+00
2.286444776757103448e+00
2.286444776757103448e+00
2.295070039979247412e+00
2.295070039979247412e+00
2.397448164311655194e+00
2.397448164311655194e+00
2.248381115146336207e+00
2.248381115146336207e+00
2.237318277535325084e+00
2.237318277535325084e+00
2.231505600146489243e+00
2.231505600146489243e+00
2.208629902035584625e+00
2.208629902035584625e+00
2.077000885036774935e+00
2.077000885036774935e+00
2.077000885036774935e+00
2.263756584368419311e+00
2.263756584368419311e+00
2.440574480422376347e+00
2.440574480422376347e+00
2.291319925534837321e+00
2.291319925534837321e+00
2.284194708090456771e+00
2.284194708090456771e+00
2.272381847590563719e+00
2.272381847590563719e+00
2.270506790368358452e+00
2.270506790368358452e+00
2.301632740256966070e+00
2.301632740256966070e+00
2.348509170812097757e+00
2.348509170812097757e+00
2.348509170812097757e+00
2.356759422589800756e+00
2.356759422589800756e+00
2.259068941312906365e+00
2.259068941312906365e+00
2.243505966368602778e+00
2.243505966368602778e+00
2.252881252479629115e+00
2.252881252479629115e+00
2.167566148869289222e+00
2.167566148869289222e+00
2.076063356425672080e+00
2.076063356425672080e+00
2.415073702200384531e+00
2.415073702200384531e+00
2.396135624256111374e+00
2.396135624256111374e+00
2.396135624256111374e+00
2.323008392590105942e+00
2.323008392590105942e+00
2.228505508590960638e+00
2.228505508590960638e+00
2.227942991424298746e+00
2.227942991424298746e+00
2.249131138035218136e+00
2.249131138035218136e+00
2.273131870479445649e+00
2.273131870479445649e+00
2.392010498367259874e+00
2.392010498367259874e+00
2.307257911923581428e+00
2.307257911923581428e+00
2.232068117313150690e+00
2.232068117313150690e+00
2.214630085146641392e+00
2.214630085146641392e+00
2.214630085146641392e+00
2.235443220313119816e+00
2.235443220313119816e+00
2.110939420758690233e+00
2.110939420758690233e+00
2.105876766258735877e+00
2.105876766258735877e+00
2.500951322977385871e+00
2.500951322977385871e+00
2.354509353923154524e+00
2.354509353923154524e+00
2.294320017090365038e+00
2.294320017090365038e+00
2.308382946256904766e+00
2.308382946256904766e+00
2.272569353312784202e+00
2.272569353312784202e+00
2.272569353312784202e+00
2.267131687368389326e+00
2.267131687368389326e+00
2.282882168034912951e+00
2.282882168034912951e+00
2.413386150700399746e+00
2.413386150700399746e+00
2.245381023590808045e+00
2.245381023590808045e+00
2.213505050813318054e+00
2.213505050813318054e+00
2.216130130924405695e+00
2.216130130924405695e+00
2.238630817590868904e+00
2.238630817590868904e+00
2.098189031647694325e+00
2.098189031647694325e+00
2.240880886257515137e+00
2.240880886257515137e+00
2.240880886257515137e+00
2.497951231421857266e+00
2.497951231421857266e+00
2.295070039979247412e+00
2.295070039979247412e+00
2.276319467757194737e+00
2.276319467757194737e+00
2.270131778923917043e+00
2.270131778923917043e+00
2.273506881923887057e+00
2.273506881923887057e+00
2.291882442701498768e+00
2.291882442701498768e+00
2.330133610034486047e+00
2.330133610034486047e+00
2.390885464033936536e+00
2.390885464033936536e+00
2.390885464033936536e+00
2.255131321146275347e+00
2.255131321146275347e+00
2.224192876979888212e+00
2.224192876979888212e+00
2.235255714590899334e+00
2.235255714590899334e+00
2.195692007202368234e+00
2.195692007202368234e+00
2.109064363536484965e+00
2.109064363536484965e+00
2.395948118533890892e+00
2.395948118533890892e+00
2.428949125644703777e+00
2.428949125644703777e+00
2.268631733146153184e+00
2.268631733146153184e+00
2.252881252479629115e+00
2.252881252479629115e+00
2.252881252479629115e+00
2.244631000701926116e+00
2.244631000701926116e+00
2.222880336924344391e+00
2.222880336924344391e+00
2.242568437757499922e+00
2.242568437757499922e+00
2.355259376812036454e+00
2.355259376812036454e+00
2.306695394756919981e+00
2.306695394756919981e+00
2.217442670979949515e+00
2.217442670979949515e+00
2.197379558702353020e+00
2.197379558702353020e+00
2.229443037202063049e+00
2.229443037202063049e+00
2.134190130314035372e+00
2.134190130314035372e+00
2.134190130314035372e+00
2.085813653981139382e+00
2.085813653981139382e+00
2.480888210699789376e+00
2.480888210699789376e+00
2.364447157200842309e+00
2.364447157200842309e+00
2.280069582201605716e+00
2.280069582201605716e+00
2.277632007812738557e+00
2.277632007812738557e+00
2.274256904812768987e+00
2.274256904812768987e+00
2.292069948423719250e+00
2.292069948423719250e+00
2.304070314645832784e+00
2.304070314645832784e+00
2.304070314645832784e+00
2.441136997589037794e+00
2.441136997589037794e+00
2.310258003479110034e+00
2.310258003479110034e+00
2.254943815424054865e+00
2.254943815424054865e+00
2.230380565813165905e+00
2.230380565813165905e+00
2.232818140202032620e+00
2.232818140202032620e+00
2.083563585314493150e+00
2.083563585314493150e+00
2.171316263313699757e+00
2.171316263313699757e+00
2.481450727866450823e+00
2.481450727866450823e+00
2.481450727866450823e+00
2.299570177312540320e+00
2.299570177312540320e+00
2.263756584368419311e+00
2.263756584368419311e+00
2.261131504257332114e+00
2.261131504257332114e+00
2.243505966368602778e+00
2.243505966368602778e+00
2.260193975646229259e+00
2.260193975646229259e+00
2.298820154423657947e+00
2.298820154423657947e+00
2.395198095645008962e+00
2.395198095645008962e+00
2.248943632312997654e+00
2.248943632312997654e+00
2.248943632312997654e+00
2.229818048646504014e+00
2.229818048646504014e+00
2.218192693868831444e+00
2.218192693868831444e+00
2.188941801202429094e+00
2.188941801202429094e+00
2.093688894314401416e+00
2.093688894314401416e+00
2.335008758812219920e+00
2.335008758812219920e+00
2.467575304422132465e+00
2.467575304422132465e+00
2.309320474868007622e+00
2.309320474868007622e+00
2.299195165868098911e+00
2.299195165868098911e+00
2.279132053590502860e+00
2.279132053590502860e+00
2.279132053590502860e+00
2.265819147312845505e+00
2.275006927701650916e+00
2.275006927701650916e+00
2.275006927701650916e+00
2.342133976256599581e+00
2.342133976256599581e+00
2.346446607867672007e+00
2.346446607867672007e+00
2.240505874813074172e+00
2.240505874813074172e+00
2.216880153813287624e+00
2.216880153813287624e+00
2.226067934202093479e+00
2.226067934202093479e+00
2.146378002258369833e+00
2.146378002258369833e+00
2.072313241981261545e+00
2.072313241981261545e+00
2.451637318033387469e+00
2.451637318033387469e+00
2.451637318033387469e+00
2.368384777367473326e+00
2.368384777367473326e+00
2.258881435590685438e+00
2.258881435590685438e+00
2.260756492812891150e+00
2.260756492812891150e+00
2.257193884090700653e+00
2.257193884090700653e+00
2.254568803979613900e+00
2.254568803979613900e+00
2.280819605090487201e+00
2.280819605090487201e+00
2.404010864589373409e+00
2.404010864589373409e+00
2.301445234534745587e+00
2.301445234534745587e+00
2.301445234534745587e+00
2.245943540757469048e+00
2.245943540757469048e+00
2.231693105868709726e+00
2.231693105868709726e+00
2.276881984923856628e+00
2.276881984923856628e+00
2.153878231147190458e+00
2.153878231147190458e+00
2.203379741813409787e+00
2.203379741813409787e+00
2.579891232032227588e+00
2.579891232032227588e+00
2.386010315256203107e+00
2.386010315256203107e+00
2.307257911923581428e+00
2.307257911923581428e+00
2.307257911923581428e+00
2.242755943479720404e+00
2.242755943479720404e+00
2.168128666035950669e+00
2.168128666035950669e+00
2.179379009369182274e+00
2.179379009369182274e+00
2.225880428479872997e+00
2.225880428479872997e+00
2.348321665089877275e+00
2.348321665089877275e+00
2.228505508590960638e+00
2.228505508590960638e+00
2.225130405590991067e+00
2.225130405590991067e+00
2.231318094424268317e+00
2.231318094424268317e+00
2.219880245368816230e+00
2.219880245368816230e+00
2.081126010925626435e+00
2.081126010925626435e+00
2.081126010925626435e+00
2.265256630146183614e+00
2.265256630146183614e+00
2.482950773644215126e+00
2.482950773644215126e+00
2.306320383312479017e+00
2.306320383312479017e+00
2.287757316812646824e+00
2.287757316812646824e+00
2.273506881923887057e+00
2.273506881923887057e+00
2.260381481368449741e+00
2.260381481368449741e+00
2.281007110812707683e+00
2.281007110812707683e+00
2.341946470534379099e+00
2.341946470534379099e+00
2.354321848200934042e+00
2.354321848200934042e+00
2.354321848200934042e+00
2.240693380535294654e+00
2.240693380535294654e+00
2.237505783257545566e+00
2.237505783257545566e+00
2.246131046479689974e+00
2.246131046479689974e+00
2.185379192480239485e+00
2.185379192480239485e+00
2.093501388592180934e+00
2.093501388592180934e+00
2.413198644978179264e+00
2.413198644978179264e+00
2.421073885311441742e+00
2.421073885311441742e+00
2.291132419812616394e+00
2.291132419812616394e+00
2.291132419812616394e+00
2.283819696646015807e+00
2.283819696646015807e+00
2.266756675923947917e+00
2.266756675923947917e+00
2.252693746757408633e+00
2.252693746757408633e+00
2.325258461256752618e+00
2.325258461256752618e+00
2.398198187200537124e+00
2.398198187200537124e+00
2.307070406201360946e+00
2.307070406201360946e+00
2.237693288979766049e+00
2.237693288979766049e+00
2.214630085146641392e+00
2.214630085146641392e+00
2.227380474257637299e+00
2.227380474257637299e+00
2.227380474257637299e+00
2.113564500869777874e+00
2.113564500869777874e+00
2.105126743369853504e+00
2.105126743369853504e+00
2.497388714255195818e+00
2.497388714255195818e+00
2.348509170812097757e+00
2.348509170812097757e+00
2.286257271034882521e+00
2.286257271034882521e+00
2.307820429090243319e+00
2.307820429090243319e+00
2.302007751701407035e+00
2.302007751701407035e+00
2.301070223090304623e+00
2.301070223090304623e+00
2.301070223090304623e+00
2.283444685201574842e+00
2.283444685201574842e+00
2.397635670033875677e+00
2.397635670033875677e+00
2.258693929868464956e+00
2.258693929868464956e+00
2.236568254646443155e+00
2.236568254646443155e+00
2.224942899868770141e+00
2.224942899868770141e+00
2.236943266090884119e+00
2.236943266090884119e+00
2.089751274147770843e+00
2.089751274147770843e+00
2.214630085146641392e+00
2.214630085146641392e+00
2.214630085146641392e+00
2.490263496810816157e+00
2.490263496810816157e+00
2.339696401867732423e+00
2.339696401867732423e+00
2.286632282479323930e+00
2.286632282479323930e+00
2.301445234534745587e+00
2.301445234534745587e+00
2.234130680257575996e+00
2.234130680257575996e+00
2.258131412701803509e+00
2.258131412701803509e+00
2.307257911923581428e+00
2.307257911923581428e+00
2.376260017700735361e+00
2.376260017700735361e+00
2.245193517868587563e+00
2.245193517868587563e+00
2.232068117313150690e+00
2.232068117313150690e+00
2.232068117313150690e+00
2.233005645924253102e+00
2.233005645924253102e+00
2.189879329813531950e+00
2.189879329813531950e+00
2.087688711203345093e+00
2.087688711203345093e+00
2.339883907589953349e+00
2.339883907589953349e+00
2.414886196478164049e+00
2.414886196478164049e+00
2.272756859035004684e+00
2.272756859035004684e+00
2.263569078646198829e+00
2.263569078646198829e+00
2.260193975646229259e+00
2.260193975646229259e+00
2.256631366924039650e+00
2.256631366924039650e+00
2.256631366924039650e+00
2.284569719534897736e+00
2.284569719534897736e+00
2.375697500534073914e+00
2.375697500534073914e+00
2.347571642200994901e+00
2.347571642200994901e+00
2.255131321146275347e+00
2.255131321146275347e+00
2.228505508590960638e+00
2.228505508590960638e+00
2.242380932035279439e+00
2.242380932035279439e+00
2.148253059480575100e+00
2.148253059480575100e+00
2.084876125370036970e+00
2.084876125370036970e+00
2.084876125370036970e+00
2.476013061922055947e+00
2.476013061922055947e+00
2.370447340311899076e+00
2.370447340311899076e+00
2.273131870479445649e+00
2.273131870479445649e+00
2.266381664479506952e+00
2.266381664479506952e+00
2.261694021423993561e+00
2.261694021423993561e+00
2.272194341868343237e+00
2.272194341868343237e+00
2.278944547868282378e+00
2.278944547868282378e+00
2.403073335978270997e+00
2.403073335978270997e+00
2.403073335978270997e+00
2.278944547868282378e+00
2.278944547868282378e+00
2.241630909146397510e+00
2.241630909146397510e+00
2.227380474257637299e+00
2.227380474257637299e+00
2.262069032868434526e+00
2.262069032868434526e+00
2.113376995147556947e+00
2.113376995147556947e+00
2.163816034424878687e+00
2.163816034424878687e+00
2.505451460310678335e+00
2.505451460310678335e+00
2.314945646534623425e+00
2.314945646534623425e+00
2.270694296090578934e+00
2.270694296090578934e+00
2.263006561479537382e+00
2.263006561479537382e+00
2.263006561479537382e+00
2.263194067201757864e+00
2.263194067201757864e+00
2.274069399090548504e+00
2.274069399090548504e+00
2.310070497756889552e+00
2.310070497756889552e+00
2.405135898922696747e+00
2.405135898922696747e+00
2.255881344035157721e+00
2.255881344035157721e+00
2.230568071535386387e+00
2.230568071535386387e+00
2.228505508590960638e+00
2.228505508590960638e+00
2.217630176702169997e+00
2.217630176702169997e+00
2.217630176702169997e+00
2.094251411481063307e+00
2.094251411481063307e+00
2.300320200201422249e+00
2.300320200201422249e+00
2.456512466811120898e+00
2.456512466811120898e+00
2.288882351145970162e+00
2.288882351145970162e+00
2.269194250312814631e+00
2.269194250312814631e+00
2.263569078646198829e+00
2.263569078646198829e+00
2.260568987090670667e+00
2.260568987090670667e+00
2.271444318979460864e+00
2.271444318979460864e+00
2.271444318979460864e+00
2.338571367534409973e+00
2.338571367534409973e+00
2.336508804589983779e+00
2.336508804589983779e+00
2.234318185979796478e+00
2.234318185979796478e+00
2.227192968535416817e+00
2.227192968535416817e+00
2.255881344035157721e+00
2.255881344035157721e+00
2.175816400646992221e+00
2.175816400646992221e+00
2.086938688314462720e+00
2.086938688314462720e+00
2.428949125644703777e+00
2.428949125644703777e+00
2.428949125644703777e+00
2.385447798089541660e+00
2.385447798089541660e+00
2.270694296090578934e+00
2.270694296090578934e+00
2.277069490646077110e+00
2.277069490646077110e+00
2.267506698812830290e+00
2.267506698812830290e+00
2.275756950590533290e+00
2.275756950590533290e+00
2.295070039979247412e+00
2.295070039979247412e+00
2.408698507644886799e+00
2.408698507644886799e+00
2.303132786034730373e+00
2.303132786034730373e+00
2.244443494979705633e+00
2.244443494979705633e+00
2.244443494979705633e+00
2.218942716757713818e+00
2.218942716757713818e+00
2.236193243202001746e+00
2.236193243202001746e+00
2.109439374980925930e+00
2.109439374980925930e+00
2.111876949369793088e+00
2.111876949369793088e+00
2.505076448866237371e+00
2.505076448866237371e+00
2.340258919034394314e+00
2.340258919034394314e+00
2.275569444868312807e+00
2.275569444868312807e+00
2.269944273201696561e+00
2.269944273201696561e+00
2.269944273201696561e+00
2.259443952757347329e+00
2.259443952757347329e+00
2.269006744590594149e+00
2.269006744590594149e+00
2.287944822534867306e+00
2.287944822534867306e+00
2.406635944700461049e+00
2.406635944700461049e+00
2.263381572923978347e+00
2.263381572923978347e+00
2.235818231757560781e+00
2.235818231757560781e+00
2.221005279702139568e+00
2.221005279702139568e+00
2.222692831202123909e+00
2.222692831202123909e+00
2.101376628925443413e+00
2.101376628925443413e+00
2.240693380535294654e+00
2.240693380535294654e+00
2.240693380535294654e+00
2.473387981810968306e+00
2.473387981810968306e+00
2.294320017090365038e+00
2.294320017090365038e+00
2.269756767479476078e+00
2.269756767479476078e+00
2.259631458479567812e+00
2.259631458479567812e+00
2.255506332590716312e+00
2.255506332590716312e+00
2.278382030701620931e+00
2.278382030701620931e+00
2.337633838923307117e+00
2.337633838923307117e+00
2.384322763756218322e+00
2.384322763756218322e+00
2.384322763756218322e+00
2.261506515701773079e+00
2.261506515701773079e+00
2.234318185979796478e+00
2.234318185979796478e+00
2.231693105868709726e+00
2.231693105868709726e+00
2.187629261146885273e+00
2.187629261146885273e+00
2.096313974425489057e+00
2.096313974425489057e+00
2.388635395367290304e+00
2.388635395367290304e+00
2.425011505478072316e+00
2.425011505478072316e+00
2.292444959868159771e+00
2.292444959868159771e+00
2.284757225257118218e+00
2.284757225257118218e+00
2.284757225257118218e+00
2.262444044312875935e+00
2.262444044312875935e+00
2.252131229590746742e+00
2.252131229590746742e+00
2.269569261757255596e+00
2.269569261757255596e+00
2.382822717978454019e+00
2.382822717978454019e+00
2.314758140812402942e+00
2.314758140812402942e+00
2.237693288979766049e+00
2.237693288979766049e+00
2.216130130924405695e+00
2.216130130924405695e+00
2.239005829035309869e+00
2.239005829035309869e+00
2.115627063814203623e+00
2.115627063814203623e+00
2.115627063814203623e+00
2.091251319925535146e+00
2.091251319925535146e+00
2.494576128421887695e+00
2.494576128421887695e+00
2.356384411145359792e+00
2.356384411145359792e+00
2.269756767479476078e+00
2.269756767479476078e+00
2.263569078646198829e+00
2.263569078646198829e+00
2.245381023590808045e+00
2.245381023590808045e+00
2.242755943479720404e+00
2.242755943479720404e+00
