2.472262947477644968e+00
2.275756950590533290e+00
2.275756950590533290e+00
2.275756950590533290e+00
2.275756950590533290e+00
2.252881252479629115e+00
2.252881252479629115e+00
2.252881252479629115e+00
2.238630817590868904e+00
2.238630817590868904e+00
2.238630817590868904e+00
2.239005829035309869e+00
2.239005829035309869e+00
2.239005829035309869e+00
2.239005829035309869e+00
2.253631275368511044e+00
2.253631275368511044e+00
2.253631275368511044e+00
2.287194799645985377e+00
2.287194799645985377e+00
2.287194799645985377e+00
2.365759697256386129e+00
2.365759697256386129e+00
2.365759697256386129e+00
2.365759697256386129e+00
2.262256538590655452e+00
2.262256538590655452e+00
2.262256538590655452e+00
2.249131138035218136e+00
2.249131138035218136e+00
2.249131138035218136e+00
2.249131138035218136e+00
2.260381481368449741e+00
2.260381481368449741e+00
2.260381481368449741e+00
2.244818506424146598e+00
2.244818506424146598e+00
2.244818506424146598e+00
2.156128299813837135e+00
2.156128299813837135e+00
2.156128299813837135e+00
2.156128299813837135e+00
2.350384228034303025e+00
2.350384228034303025e+00
2.350384228034303025e+00
2.396135624256111374e+00
2.396135624256111374e+00
2.396135624256111374e+00
2.239193334757530351e+00
2.239193334757530351e+00
2.239193334757530351e+00
2.239193334757530351e+00
2.232443128757591655e+00
2.232443128757591655e+00
2.232443128757591655e+00
2.219130222479934300e+00
2.219130222479934300e+00
2.219130222479934300e+00
2.219130222479934300e+00
2.226255439924313961e+00
2.226255439924313961e+00
2.226255439924313961e+00
2.243880977813043742e+00
2.243880977813043742e+00
2.243880977813043742e+00
2.313258095034638639e+00
2.313258095034638639e+00
2.313258095034638639e+00
2.313258095034638639e+00
2.323008392590105942e+00
2.323008392590105942e+00
2.323008392590105942e+00
2.264506607257301685e+00
2.264506607257301685e+00
2.264506607257301685e+00
2.254193792535172935e+00
2.254193792535172935e+00
2.254193792535172935e+00
2.280444593646046680e+00
2.280444593646046680e+00
2.280444593646046680e+00
2.280444593646046680e+00
2.210692464980010374e+00
2.210692464980010374e+00
2.210692464980010374e+00
2.149378093813898438e+00
2.149378093813898438e+00
2.149378093813898438e+00
2.465137730033265306e+00
2.465137730033265306e+00
2.465137730033265306e+00
2.465137730033265306e+00
2.362009582811975594e+00
2.362009582811975594e+00
2.362009582811975594e+00
2.268256721701712220e+00
2.268256721701712220e+00
2.268256721701712220e+00
2.254568803979613900e+00
2.254568803979613900e+00
2.254568803979613900e+00
2.254568803979613900e+00
2.232068117313150690e+00
2.232068117313150690e+00
2.232068117313150690e+00
2.251193700979644330e+00
2.251193700979644330e+00
2.251193700979644330e+00
2.246881069368571904e+00
2.246881069368571904e+00
2.246881069368571904e+00
2.246881069368571904e+00
2.362572099978637485e+00
2.362572099978637485e+00
2.362572099978637485e+00
2.286444776757103448e+00
2.286444776757103448e+00
2.286444776757103448e+00
2.286444776757103448e+00
2.251943723868526259e+00
2.251943723868526259e+00
2.251943723868526259e+00
2.244255989257484707e+00
2.244255989257484707e+00
2.244255989257484707e+00
2.301445234534745587e+00
2.301445234534745587e+00
2.301445234534745587e+00
2.301445234534745587e+00
2.153128208258308529e+00
2.153128208258308529e+00
2.153128208258308529e+00
2.187066743980223826e+00
2.187066743980223826e+00
2.187066743980223826e+00
2.486888393810846587e+00
2.486888393810846587e+00
2.486888393810846587e+00
2.299195165868098911e+00
2.299195165868098911e+00
2.299195165868098911e+00
2.299195165868098911e+00
2.252693746757408633e+00
2.252693746757408633e+00
2.252693746757408633e+00
2.247818597979674760e+00
2.247818597979674760e+00
2.247818597979674760e+00
2.247818597979674760e+00
2.235255714590899334e+00
2.235255714590899334e+00
2.235255714590899334e+00
2.251756218146305777e+00
2.251756218146305777e+00
2.251756218146305777e+00
2.276131962034974254e+00
2.276131962034974254e+00
2.276131962034974254e+00
2.384697775200659287e+00
2.384697775200659287e+00
2.384697775200659287e+00
2.384697775200659287e+00
2.278382030701620931e+00
2.278382030701620931e+00
2.278382030701620931e+00
2.252131229590746742e+00
2.252131229590746742e+00
2.252131229590746742e+00
2.264506607257301685e+00
2.264506607257301685e+00
2.264506607257301685e+00
2.264506607257301685e+00
2.270694296090578934e+00
2.270694296090578934e+00
2.270694296090578934e+00
2.146565507980590315e+00
2.146565507980590315e+00
2.146565507980590315e+00
2.290569902645954947e+00
2.290569902645954947e+00
2.290569902645954947e+00
2.290569902645954947e+00
2.436074343089083438e+00
2.436074343089083438e+00
2.436074343089083438e+00
2.252506241035188150e+00
2.252506241035188150e+00
2.252506241035188150e+00
2.236568254646443155e+00
2.236568254646443155e+00
2.236568254646443155e+00
2.236568254646443155e+00
2.226255439924313961e+00
2.226255439924313961e+00
2.226255439924313961e+00
2.235443220313119816e+00
2.235443220313119816e+00
2.235443220313119816e+00
2.235443220313119816e+00
2.250256172368541474e+00
2.250256172368541474e+00
2.250256172368541474e+00
2.297132602923673161e+00
2.297132602923673161e+00
2.297132602923673161e+00
2.354509353923154524e+00
2.354509353923154524e+00
2.354509353923154524e+00
2.266944181646168399e+00
2.266944181646168399e+00
2.266944181646168399e+00
2.266944181646168399e+00
2.246881069368571904e+00
2.246881069368571904e+00
2.246881069368571904e+00
2.278569536423841413e+00
2.278569536423841413e+00
2.278569536423841413e+00
2.278569536423841413e+00
2.251943723868526259e+00
2.251943723868526259e+00
2.251943723868526259e+00
2.156878322702719064e+00
2.156878322702719064e+00
2.156878322702719064e+00
2.404385876033814373e+00
2.404385876033814373e+00
2.404385876033814373e+00
2.404385876033814373e+00
2.383385235145115466e+00
2.383385235145115466e+00
2.383385235145115466e+00
2.252318735312967224e+00
2.252318735312967224e+00
2.252318735312967224e+00
2.236005737479781263e+00
2.236005737479781263e+00
2.236005737479781263e+00
2.236005737479781263e+00
2.217442670979949515e+00
2.217442670979949515e+00
2.217442670979949515e+00
2.231693105868709726e+00
2.231693105868709726e+00
2.231693105868709726e+00
2.247818597979674760e+00
2.247818597979674760e+00
2.247818597979674760e+00
2.338383861812189490e+00
2.338383861812189490e+00
2.338383861812189490e+00
2.338383861812189490e+00
2.311195532090212890e+00
2.311195532090212890e+00
2.311195532090212890e+00
2.260006469924008776e+00
2.260006469924008776e+00
2.260006469924008776e+00
2.246693563646351421e+00
2.246693563646351421e+00
2.246693563646351421e+00
2.246693563646351421e+00
2.275194433423871843e+00
2.275194433423871843e+00
2.275194433423871843e+00
2.181254066591387542e+00
2.181254066591387542e+00
2.181254066591387542e+00
2.155565782647175688e+00
2.155565782647175688e+00
2.155565782647175688e+00
2.155565782647175688e+00
2.479950682088686964e+00
2.479950682088686964e+00
2.479950682088686964e+00
2.328071047090059853e+00
2.328071047090059853e+00
2.328071047090059853e+00
2.328071047090059853e+00
2.256818872646260132e+00
2.256818872646260132e+00
2.256818872646260132e+00
2.258131412701803509e+00
2.258131412701803509e+00
2.258131412701803509e+00
2.234505691702016961e+00
2.234505691702016961e+00
2.234505691702016961e+00
2.234505691702016961e+00
2.237505783257545566e+00
2.237505783257545566e+00
2.237505783257545566e+00
2.249131138035218136e+00
2.249131138035218136e+00
2.249131138035218136e+00
2.364447157200842309e+00
2.364447157200842309e+00
2.364447157200842309e+00
2.364447157200842309e+00
2.267131687368389326e+00
2.267131687368389326e+00
2.267131687368389326e+00
2.247631092257453833e+00
2.247631092257453833e+00
2.247631092257453833e+00
2.257381389812921579e+00
2.257381389812921579e+00
2.257381389812921579e+00
2.257381389812921579e+00
2.292069948423719250e+00
2.292069948423719250e+00
2.292069948423719250e+00
2.150128116702780368e+00
2.150128116702780368e+00
2.150128116702780368e+00
2.235818231757560781e+00
2.235818231757560781e+00
2.235818231757560781e+00
2.235818231757560781e+00
2.491763542588580016e+00
2.491763542588580016e+00
2.491763542588580016e+00
2.277256996368297592e+00
2.277256996368297592e+00
2.277256996368297592e+00
2.244818506424146598e+00
2.244818506424146598e+00
2.244818506424146598e+00
2.244818506424146598e+00
2.242193426313058957e+00
2.242193426313058957e+00
2.242193426313058957e+00
2.223067842646564873e+00
2.223067842646564873e+00
2.223067842646564873e+00
2.223067842646564873e+00
2.244818506424146598e+00
2.244818506424146598e+00
2.244818506424146598e+00
2.274631916257209951e+00
2.274631916257209951e+00
2.274631916257209951e+00
2.363697134311959935e+00
2.363697134311959935e+00
2.363697134311959935e+00
2.363697134311959935e+00
2.251943723868526259e+00
2.251943723868526259e+00
2.251943723868526259e+00
2.246318552201910457e+00
2.246318552201910457e+00
2.246318552201910457e+00
2.272194341868343237e+00
2.272194341868343237e+00
2.272194341868343237e+00
2.272194341868343237e+00
2.254943815424054865e+00
2.254943815424054865e+00
2.254943815424054865e+00
2.152565691091647082e+00
2.152565691091647082e+00
2.152565691091647082e+00
2.342883999145481511e+00
2.342883999145481511e+00
2.342883999145481511e+00
2.342883999145481511e+00
2.431011688589129527e+00
2.431011688589129527e+00
2.431011688589129527e+00
2.262631550035096417e+00
2.262631550035096417e+00
2.262631550035096417e+00
2.253256263924070080e+00
2.253256263924070080e+00
2.253256263924070080e+00
2.253256263924070080e+00
2.230005554368724940e+00
2.230005554368724940e+00
2.230005554368724940e+00
2.230943082979827352e+00
2.230943082979827352e+00
2.230943082979827352e+00
2.230943082979827352e+00
2.256818872646260132e+00
2.256818872646260132e+00
2.256818872646260132e+00
2.336133793145542814e+00
2.336133793145542814e+00
2.336133793145542814e+00
2.356384411145359792e+00
2.356384411145359792e+00
2.356384411145359792e+00
2.356384411145359792e+00
2.270131778923917043e+00
2.270131778923917043e+00
2.270131778923917043e+00
2.256256355479598685e+00
2.256256355479598685e+00
2.256256355479598685e+00
2.290194891201513983e+00
2.290194891201513983e+00
2.290194891201513983e+00
2.290194891201513983e+00
2.227755485702078264e+00
2.227755485702078264e+00
2.227755485702078264e+00
2.163066011535996758e+00
2.163066011535996758e+00
2.163066011535996758e+00
2.457637501144443792e+00
2.457637501144443792e+00
2.457637501144443792e+00
2.457637501144443792e+00
2.375134983367412023e+00
2.375134983367412023e+00
2.375134983367412023e+00
2.249693655201880027e+00
2.249693655201880027e+00
2.249693655201880027e+00
2.239005829035309869e+00
2.239005829035309869e+00
2.239005829035309869e+00
2.239005829035309869e+00
2.216880153813287624e+00
2.216880153813287624e+00
2.216880153813287624e+00
2.244443494979705633e+00
2.244443494979705633e+00
2.244443494979705633e+00
2.268256721701712220e+00
2.268256721701712220e+00
2.268256721701712220e+00
2.268256721701712220e+00
2.363884640034180418e+00
2.363884640034180418e+00
2.363884640034180418e+00
2.299945188756981285e+00
2.299945188756981285e+00
2.299945188756981285e+00
2.256631366924039650e+00
2.256631366924039650e+00
2.256631366924039650e+00
2.256631366924039650e+00
2.248006103701895242e+00
2.248006103701895242e+00
2.248006103701895242e+00
2.272569353312784202e+00
2.272569353312784202e+00
2.272569353312784202e+00
2.150128116702780368e+00
2.150128116702780368e+00
2.150128116702780368e+00
2.150128116702780368e+00
2.170003723258155937e+00
2.170003723258155937e+00
2.170003723258155937e+00
2.492326059755241463e+00
2.492326059755241463e+00
2.492326059755241463e+00
2.308195440534684284e+00
2.308195440534684284e+00
2.308195440534684284e+00
2.308195440534684284e+00
2.247818597979674760e+00
2.247818597979674760e+00
2.247818597979674760e+00
2.239755851924192243e+00
2.239755851924192243e+00
2.239755851924192243e+00
2.215755119479964730e+00
2.215755119479964730e+00
2.215755119479964730e+00
2.215755119479964730e+00
2.227005462813196335e+00
2.227005462813196335e+00
2.227005462813196335e+00
2.244255989257484707e+00
2.244255989257484707e+00
2.244255989257484707e+00
2.372509903256325270e+00
2.372509903256325270e+00
2.372509903256325270e+00
2.372509903256325270e+00
2.261694021423993561e+00
2.261694021423993561e+00
2.261694021423993561e+00
2.247818597979674760e+00
2.247818597979674760e+00
2.247818597979674760e+00
2.247818597979674760e+00
2.250818689535202921e+00
2.250818689535202921e+00
2.250818689535202921e+00
2.265444135868404540e+00
2.265444135868404540e+00
2.265444135868404540e+00
2.142065370647297406e+00
2.142065370647297406e+00
2.142065370647297406e+00
2.142065370647297406e+00
2.277632007812738557e+00
2.277632007812738557e+00
2.277632007812738557e+00
2.467387798699911539e+00
2.467387798699911539e+00
2.467387798699911539e+00
2.283444685201574842e+00
2.283444685201574842e+00
2.283444685201574842e+00
2.283444685201574842e+00
2.243693472090823260e+00
2.243693472090823260e+00
2.243693472090823260e+00
2.234130680257575996e+00
2.234130680257575996e+00
2.234130680257575996e+00
2.233943174535355514e+00
2.233943174535355514e+00
2.233943174535355514e+00
2.233943174535355514e+00
2.257568895535142062e+00
2.257568895535142062e+00
2.257568895535142062e+00
2.291694936979278285e+00
2.291694936979278285e+00
2.291694936979278285e+00
2.352259285256507848e+00
2.352259285256507848e+00
2.352259285256507848e+00
2.352259285256507848e+00
2.250818689535202921e+00
2.250818689535202921e+00
2.250818689535202921e+00
2.244255989257484707e+00
2.244255989257484707e+00
2.244255989257484707e+00
2.272944364757225166e+00
2.272944364757225166e+00
2.272944364757225166e+00
2.272944364757225166e+00
2.239005829035309869e+00
2.239005829035309869e+00
2.239005829035309869e+00
2.145440473647266977e+00
2.145440473647266977e+00
2.145440473647266977e+00
2.373634937589648164e+00
2.373634937589648164e+00
2.373634937589648164e+00
2.373634937589648164e+00
2.397448164311655194e+00
2.397448164311655194e+00
2.397448164311655194e+00
2.254756309701834383e+00
2.254756309701834383e+00
2.254756309701834383e+00
2.242380932035279439e+00
2.242380932035279439e+00
2.242380932035279439e+00
2.242380932035279439e+00
2.232818140202032620e+00
2.232818140202032620e+00
2.232818140202032620e+00
2.238630817590868904e+00
2.238630817590868904e+00
2.238630817590868904e+00
2.239380840479750834e+00
2.239380840479750834e+00
2.239380840479750834e+00
2.239380840479750834e+00
2.327883541367839371e+00
2.327883541367839371e+00
2.327883541367839371e+00
2.322070863979003530e+00
2.322070863979003530e+00
2.322070863979003530e+00
2.322070863979003530e+00
2.268631733146153184e+00
2.268631733146153184e+00
2.268631733146153184e+00
2.260193975646229259e+00
2.260193975646229259e+00
2.260193975646229259e+00
2.283069673757133433e+00
2.283069673757133433e+00
2.283069673757133433e+00
2.283069673757133433e+00
2.191754387035737217e+00
2.191754387035737217e+00
2.191754387035737217e+00
2.137377727591784460e+00
2.137377727591784460e+00
2.137377727591784460e+00
2.469262855922116806e+00
2.469262855922116806e+00
2.469262855922116806e+00
2.469262855922116806e+00
2.344196539201025331e+00
2.344196539201025331e+00
2.344196539201025331e+00
2.269194250312814631e+00
2.269194250312814631e+00
2.269194250312814631e+00
2.261881527146214044e+00
2.261881527146214044e+00
2.261881527146214044e+00
2.261881527146214044e+00
2.235255714590899334e+00
2.235255714590899334e+00
2.235255714590899334e+00
2.266756675923947917e+00
2.266756675923947917e+00
2.266756675923947917e+00
2.266756675923947917e+00
2.258881435590685438e+00
2.258881435590685438e+00
2.258881435590685438e+00
2.361259559923093665e+00
2.361259559923093665e+00
2.361259559923093665e+00
2.266194158757286470e+00
2.266194158757286470e+00
2.266194158757286470e+00
2.266194158757286470e+00
2.236943266090884119e+00
2.236943266090884119e+00
2.236943266090884119e+00
2.240505874813074172e+00
2.240505874813074172e+00
2.240505874813074172e+00
2.278007019257179522e+00
2.278007019257179522e+00
2.278007019257179522e+00
2.278007019257179522e+00
2.150315622425000850e+00
2.150315622425000850e+00
2.150315622425000850e+00
2.217442670979949515e+00
2.217442670979949515e+00
2.217442670979949515e+00
2.488575945310831372e+00
2.488575945310831372e+00
2.488575945310831372e+00
2.488575945310831372e+00
2.289257362590411127e+00
2.289257362590411127e+00
2.289257362590411127e+00
2.273881893368328022e+00
2.273881893368328022e+00
2.273881893368328022e+00
2.298632648701437464e+00
2.298632648701437464e+00
2.298632648701437464e+00
2.298632648701437464e+00
2.265444135868404540e+00
2.265444135868404540e+00
2.265444135868404540e+00
2.289632374034852091e+00
2.289632374034852091e+00
2.289632374034852091e+00
2.296007568590349823e+00
2.296007568590349823e+00
2.296007568590349823e+00
2.296007568590349823e+00
2.390697958311716054e+00
2.390697958311716054e+00
2.390697958311716054e+00
2.225880428479872997e+00
2.225880428479872997e+00
2.225880428479872997e+00
2.225880428479872997e+00
2.215005096591082356e+00
2.215005096591082356e+00
2.215005096591082356e+00
2.233943174535355514e+00
2.233943174535355514e+00
2.233943174535355514e+00
2.244818506424146598e+00
2.244818506424146598e+00
2.244818506424146598e+00
2.244818506424146598e+00
2.133065095980712478e+00
2.133065095980712478e+00
2.133065095980712478e+00
2.303695303201391820e+00
2.303695303201391820e+00
2.303695303201391820e+00
2.430261665700247153e+00
2.430261665700247153e+00
2.430261665700247153e+00
2.430261665700247153e+00
2.253631275368511044e+00
2.253631275368511044e+00
2.253631275368511044e+00
2.247631092257453833e+00
2.247631092257453833e+00
2.247631092257453833e+00
2.231880611590930208e+00
2.231880611590930208e+00
2.231880611590930208e+00
2.231880611590930208e+00
2.220442762535478121e+00
2.220442762535478121e+00
2.220442762535478121e+00
2.248568620868556689e+00
2.248568620868556689e+00
2.248568620868556689e+00
2.307632923368022837e+00
2.307632923368022837e+00
2.307632923368022837e+00
2.339321390423291458e+00
2.339321390423291458e+00
2.339321390423291458e+00
2.339321390423291458e+00
2.258693929868464956e+00
2.258693929868464956e+00
2.258693929868464956e+00
2.245756035035248566e+00
2.245756035035248566e+00
2.245756035035248566e+00
2.280069582201605716e+00
2.280069582201605716e+00
2.280069582201605716e+00
2.280069582201605716e+00
2.224567888424329176e+00
2.224567888424329176e+00
2.224567888424329176e+00
2.143752922147282192e+00
2.143752922147282192e+00
2.143752922147282192e+00
2.143752922147282192e+00
2.412073610644855925e+00
2.412073610644855925e+00
2.412073610644855925e+00
2.373634937589648164e+00
2.373634937589648164e+00
2.373634937589648164e+00
2.254381298257393418e+00
2.254381298257393418e+00
2.254381298257393418e+00
2.254381298257393418e+00
2.248381115146336207e+00
2.248381115146336207e+00
2.248381115146336207e+00
2.229068025757622085e+00
2.229068025757622085e+00
2.229068025757622085e+00
2.243505966368602778e+00
2.243505966368602778e+00
2.243505966368602778e+00
2.243505966368602778e+00
2.265069124423963132e+00
2.265069124423963132e+00
2.265069124423963132e+00
2.357696951200903612e+00
2.357696951200903612e+00
2.357696951200903612e+00
2.316070680867946319e+00
2.316070680867946319e+00
2.316070680867946319e+00
2.316070680867946319e+00
2.259818964201788294e+00
2.259818964201788294e+00
2.259818964201788294e+00
2.245381023590808045e+00
2.245381023590808045e+00
2.245381023590808045e+00
2.273506881923887057e+00
2.273506881923887057e+00
2.273506881923887057e+00
2.273506881923887057e+00
2.159128391369365740e+00
2.159128391369365740e+00
2.159128391369365740e+00
2.138877773369548763e+00
2.138877773369548763e+00
2.138877773369548763e+00
2.457825006866664719e+00
2.457825006866664719e+00
2.457825006866664719e+00
2.457825006866664719e+00
2.296195074312570750e+00
2.296195074312570750e+00
2.296195074312570750e+00
2.229443037202063049e+00
2.229443037202063049e+00
2.229443037202063049e+00
2.240130863368633207e+00
2.240130863368633207e+00
2.240130863368633207e+00
2.240130863368633207e+00
2.232255623035371173e+00
2.232255623035371173e+00
2.232255623035371173e+00
2.260381481368449741e+00
2.260381481368449741e+00
2.260381481368449741e+00
2.260381481368449741e+00
2.256256355479598685e+00
2.256256355479598685e+00
2.256256355479598685e+00
2.381885189367351607e+00
2.381885189367351607e+00
2.381885189367351607e+00
2.284569719534897736e+00
2.284569719534897736e+00
2.284569719534897736e+00
2.284569719534897736e+00
2.270694296090578934e+00
2.270694296090578934e+00
2.270694296090578934e+00
2.272381847590563719e+00
2.272381847590563719e+00
2.272381847590563719e+00
2.294507522812585520e+00
2.294507522812585520e+00
2.294507522812585520e+00
2.294507522812585520e+00
2.165128574480422063e+00
2.165128574480422063e+00
2.165128574480422063e+00
2.264694112979522167e+00
2.264694112979522167e+00
2.264694112979522167e+00
2.485013336588640875e+00
2.485013336588640875e+00
2.485013336588640875e+00
2.485013336588640875e+00
2.290382396923734465e+00
2.290382396923734465e+00
2.290382396923734465e+00
2.254943815424054865e+00
2.254943815424054865e+00
2.254943815424054865e+00
2.241630909146397510e+00
2.241630909146397510e+00
2.241630909146397510e+00
2.241630909146397510e+00
2.236005737479781263e+00
2.236005737479781263e+00
2.236005737479781263e+00
2.250631183812982439e+00
2.250631183812982439e+00
2.250631183812982439e+00
2.279882076479384789e+00
2.279882076479384789e+00
2.279882076479384789e+00
2.279882076479384789e+00
2.357696951200903612e+00
2.357696951200903612e+00
2.357696951200903612e+00
2.255506332590716312e+00
2.255506332590716312e+00
2.255506332590716312e+00
2.240130863368633207e+00
2.240130863368633207e+00
2.240130863368633207e+00
2.240130863368633207e+00
2.260381481368449741e+00
2.260381481368449741e+00
2.260381481368449741e+00
2.235630726035340299e+00
2.235630726035340299e+00
2.235630726035340299e+00
2.235630726035340299e+00
2.142627887813959298e+00
2.142627887813959298e+00
2.142627887813959298e+00
2.351509262367625919e+00
2.351509262367625919e+00
2.351509262367625919e+00
2.407198461867122496e+00
2.407198461867122496e+00
2.407198461867122496e+00
2.407198461867122496e+00
2.252506241035188150e+00
2.252506241035188150e+00
2.252506241035188150e+00
2.243693472090823260e+00
2.243693472090823260e+00
2.243693472090823260e+00
2.237318277535325084e+00
2.237318277535325084e+00
2.237318277535325084e+00
2.237318277535325084e+00
2.227192968535416817e+00
2.227192968535416817e+00
2.227192968535416817e+00
2.242568437757499922e+00
2.242568437757499922e+00
2.242568437757499922e+00
2.326383495590075512e+00
2.326383495590075512e+00
2.326383495590075512e+00
2.326383495590075512e+00
2.327696035645618888e+00
2.327696035645618888e+00
2.327696035645618888e+00
2.255318826868495830e+00
2.255318826868495830e+00
2.255318826868495830e+00
2.252881252479629115e+00
2.252881252479629115e+00
2.252881252479629115e+00
2.252881252479629115e+00
2.280444593646046680e+00
2.280444593646046680e+00
2.280444593646046680e+00
2.208254890591143660e+00
2.208254890591143660e+00
2.208254890591143660e+00
2.156128299813837135e+00
2.156128299813837135e+00
2.156128299813837135e+00
2.156128299813837135e+00
2.458012512588885201e+00
2.458012512588885201e+00
2.458012512588885201e+00
2.350946745200964472e+00
2.350946745200964472e+00
2.350946745200964472e+00
2.350946745200964472e+00
2.258693929868464956e+00
2.258693929868464956e+00
2.258693929868464956e+00
2.255318826868495830e+00
2.255318826868495830e+00
2.255318826868495830e+00
2.236568254646443155e+00
2.236568254646443155e+00
2.236568254646443155e+00
2.236568254646443155e+00
2.238630817590868904e+00
2.238630817590868904e+00
2.238630817590868904e+00
2.253631275368511044e+00
2.253631275368511044e+00
2.253631275368511044e+00
2.354134342478713116e+00
2.354134342478713116e+00
2.354134342478713116e+00
2.354134342478713116e+00
2.293569994201483109e+00
2.293569994201483109e+00
2.293569994201483109e+00
2.252693746757408633e+00
2.252693746757408633e+00
2.252693746757408633e+00
2.249131138035218136e+00
2.249131138035218136e+00
2.249131138035218136e+00
2.249131138035218136e+00
2.287194799645985377e+00
2.287194799645985377e+00
2.287194799645985377e+00
2.167191137424848257e+00
2.167191137424848257e+00
2.167191137424848257e+00
2.196254524369030126e+00
2.196254524369030126e+00
2.196254524369030126e+00
2.196254524369030126e+00
2.497388714255195818e+00
2.497388714255195818e+00
2.497388714255195818e+00
2.302945280312509890e+00
2.302945280312509890e+00
2.302945280312509890e+00
2.248193609424115724e+00
2.248193609424115724e+00
2.248193609424115724e+00
2.239943357646412725e+00
2.239943357646412725e+00
2.239943357646412725e+00
2.239943357646412725e+00
2.217442670979949515e+00
2.217442670979949515e+00
2.217442670979949515e+00
2.236568254646443155e+00
2.236568254646443155e+00
2.236568254646443155e+00
2.236568254646443155e+00
2.250631183812982439e+00
2.250631183812982439e+00
2.250631183812982439e+00
2.374384960478530537e+00
2.374384960478530537e+00
2.374384960478530537e+00
2.270694296090578934e+00
2.270694296090578934e+00
2.270694296090578934e+00
2.266756675923947917e+00
2.266756675923947917e+00
2.266756675923947917e+00
2.266756675923947917e+00
2.259631458479567812e+00
2.259631458479567812e+00
2.259631458479567812e+00
2.263006561479537382e+00
2.263006561479537382e+00
2.263006561479537382e+00
2.133815118869594407e+00
2.133815118869594407e+00
2.133815118869594407e+00
2.133815118869594407e+00
2.271256813257240381e+00
2.271256813257240381e+00
2.271256813257240381e+00
2.442262031922361132e+00
2.442262031922361132e+00
2.442262031922361132e+00
2.269194250312814631e+00
2.269194250312814631e+00
2.269194250312814631e+00
2.269194250312814631e+00
2.261319009979552597e+00
2.261319009979552597e+00
2.261319009979552597e+00
2.236193243202001746e+00
2.236193243202001746e+00
2.236193243202001746e+00
2.207504867702261730e+00
2.207504867702261730e+00
2.207504867702261730e+00
2.207504867702261730e+00
2.250631183812982439e+00
2.250631183812982439e+00
2.250631183812982439e+00
2.305382854701376161e+00
2.305382854701376161e+00
2.305382854701376161e+00
2.305382854701376161e+00
2.367822260200811879e+00
2.367822260200811879e+00
2.367822260200811879e+00
2.284194708090456771e+00
2.284194708090456771e+00
2.284194708090456771e+00
2.267694204535050773e+00
2.267694204535050773e+00
2.267694204535050773e+00
2.267694204535050773e+00
2.287382305368205859e+00
2.287382305368205859e+00
2.287382305368205859e+00
2.246131046479689974e+00
2.246131046479689974e+00
2.246131046479689974e+00
2.161378460036011973e+00
2.161378460036011973e+00
2.161378460036011973e+00
2.161378460036011973e+00
2.403823358867152926e+00
2.403823358867152926e+00
2.403823358867152926e+00
2.392948026978362286e+00
2.392948026978362286e+00
2.392948026978362286e+00
2.262631550035096417e+00
2.262631550035096417e+00
2.262631550035096417e+00
2.262631550035096417e+00
2.254943815424054865e+00
2.254943815424054865e+00
2.254943815424054865e+00
2.230380565813165905e+00
2.230380565813165905e+00
2.230380565813165905e+00
2.230380565813165905e+00
2.230380565813165905e+00
2.230380565813165905e+00
2.230380565813165905e+00
2.252881252479629115e+00
2.252881252479629115e+00
2.252881252479629115e+00
2.337821344645527599e+00
2.337821344645527599e+00
2.337821344645527599e+00
2.304445326090273749e+00
2.304445326090273749e+00
2.304445326090273749e+00
2.304445326090273749e+00
2.234505691702016961e+00
2.234505691702016961e+00
2.234505691702016961e+00
2.243880977813043742e+00
2.243880977813043742e+00
2.243880977813043742e+00
2.283819696646015807e+00
2.283819696646015807e+00
2.283819696646015807e+00
2.283819696646015807e+00
2.191754387035737217e+00
2.191754387035737217e+00
2.191754387035737217e+00
2.144690450758385047e+00
2.144690450758385047e+00
2.144690450758385047e+00
2.468325327311013950e+00
2.468325327311013950e+00
2.468325327311013950e+00
2.468325327311013950e+00
2.310070497756889552e+00
2.310070497756889552e+00
2.310070497756889552e+00
2.228130497146519229e+00
2.228130497146519229e+00
2.228130497146519229e+00
2.227755485702078264e+00
2.227755485702078264e+00
2.227755485702078264e+00
2.227755485702078264e+00
2.225692922757652514e+00
2.225692922757652514e+00
2.225692922757652514e+00
2.240505874813074172e+00
2.240505874813074172e+00
2.240505874813074172e+00
2.257568895535142062e+00
2.257568895535142062e+00
2.257568895535142062e+00
2.257568895535142062e+00
2.384510269478438804e+00
2.384510269478438804e+00
2.384510269478438804e+00
2.300320200201422249e+00
2.300320200201422249e+00
2.300320200201422249e+00
2.257006378368480615e+00
2.257006378368480615e+00
2.257006378368480615e+00
2.257006378368480615e+00
2.261694021423993561e+00
2.261694021423993561e+00
2.261694021423993561e+00
2.282132145146031021e+00
2.282132145146031021e+00
2.282132145146031021e+00
2.153128208258308529e+00
2.153128208258308529e+00
2.153128208258308529e+00
2.153128208258308529e+00
2.236193243202001746e+00
2.236193243202001746e+00
2.236193243202001746e+00
2.490826013977477604e+00
2.490826013977477604e+00
2.490826013977477604e+00
2.490826013977477604e+00
2.296007568590349823e+00
2.296007568590349823e+00
2.296007568590349823e+00
2.259068941312906365e+00
2.259068941312906365e+00
2.259068941312906365e+00
2.247443586535233351e+00
2.247443586535233351e+00
2.247443586535233351e+00
2.247443586535233351e+00
2.232255623035371173e+00
2.232255623035371173e+00
2.232255623035371173e+00
2.267506698812830290e+00
2.267506698812830290e+00
2.267506698812830290e+00
2.299195165868098911e+00
2.299195165868098911e+00
2.299195165868098911e+00
2.299195165868098911e+00
2.370447340311899076e+00
2.370447340311899076e+00
2.370447340311899076e+00
2.268819238868374111e+00
2.268819238868374111e+00
2.268819238868374111e+00
2.241255897701956545e+00
2.241255897701956545e+00
2.241255897701956545e+00
2.241255897701956545e+00
2.252881252479629115e+00
2.252881252479629115e+00
2.252881252479629115e+00
2.249506149479659545e+00
2.249506149479659545e+00
2.249506149479659545e+00
2.146940519425031280e+00
2.146940519425031280e+00
2.146940519425031280e+00
2.146940519425031280e+00
2.330321115756706529e+00
2.330321115756706529e+00
2.330321115756706529e+00
2.420323862422559369e+00
2.420323862422559369e+00
2.420323862422559369e+00
2.259443952757347329e+00
2.259443952757347329e+00
2.259443952757347329e+00
2.259443952757347329e+00
2.232443128757591655e+00
2.232443128757591655e+00
2.232443128757591655e+00
2.214817590868861874e+00
2.214817590868861874e+00
2.214817590868861874e+00
2.204317270424512643e+00
2.204317270424512643e+00
2.204317270424512643e+00
2.204317270424512643e+00
2.238255806146427940e+00
2.238255806146427940e+00
2.238255806146427940e+00
2.302195257423627517e+00
2.302195257423627517e+00
2.302195257423627517e+00
2.337446333201086635e+00
2.337446333201086635e+00
2.337446333201086635e+00
2.337446333201086635e+00
2.269756767479476078e+00
2.269756767479476078e+00
2.269756767479476078e+00
2.262819055757316900e+00
2.262819055757316900e+00
2.262819055757316900e+00
2.302382763145847999e+00
2.302382763145847999e+00
2.302382763145847999e+00
2.302382763145847999e+00
2.232068117313150690e+00
2.232068117313150690e+00
2.232068117313150690e+00
2.150690633869442259e+00
2.150690633869442259e+00
2.150690633869442259e+00
2.438324411755729670e+00
2.438324411755729670e+00
2.438324411755729670e+00
2.438324411755729670e+00
2.356759422589800756e+00
2.356759422589800756e+00
2.356759422589800756e+00
2.242193426313058957e+00
2.242193426313058957e+00
2.242193426313058957e+00
2.240318369090853690e+00
2.240318369090853690e+00
2.240318369090853690e+00
2.216692648091067142e+00
2.216692648091067142e+00
2.216692648091067142e+00
2.216692648091067142e+00
2.227567979979857782e+00
2.227567979979857782e+00
2.227567979979857782e+00
2.257756401257362544e+00
2.257756401257362544e+00
2.257756401257362544e+00
2.356946928312021239e+00
2.356946928312021239e+00
2.356946928312021239e+00
2.356946928312021239e+00
2.304257820368053267e+00
2.304257820368053267e+00
2.304257820368053267e+00
2.256068849757378203e+00
2.256068849757378203e+00
2.256068849757378203e+00
2.249131138035218136e+00
2.249131138035218136e+00
2.249131138035218136e+00
2.249131138035218136e+00
2.273319376201666131e+00
2.273319376201666131e+00
2.273319376201666131e+00
2.166628620258186366e+00
2.166628620258186366e+00
2.166628620258186366e+00
2.166441114535965884e+00
2.166441114535965884e+00
2.166441114535965884e+00
2.166441114535965884e+00
2.491201025421918569e+00
2.491201025421918569e+00
2.491201025421918569e+00
2.303132786034730373e+00
2.303132786034730373e+00
2.303132786034730373e+00
2.249881160924100509e+00
2.249881160924100509e+00
2.249881160924100509e+00
2.249881160924100509e+00
2.254756309701834383e+00
2.254756309701834383e+00
2.254756309701834383e+00
2.238255806146427940e+00
2.238255806146427940e+00
2.238255806146427940e+00
2.250443678090761956e+00
2.250443678090761956e+00
2.250443678090761956e+00
2.250443678090761956e+00
2.255506332590716312e+00
2.255506332590716312e+00
2.255506332590716312e+00
2.372134891811884305e+00
2.372134891811884305e+00
2.372134891811884305e+00
2.372134891811884305e+00
2.253068758201849597e+00
2.253068758201849597e+00
2.253068758201849597e+00
2.241068391979735619e+00
2.241068391979735619e+00
2.241068391979735619e+00
2.267131687368389326e+00
2.267131687368389326e+00
2.267131687368389326e+00
2.267131687368389326e+00
2.293757499923703591e+00
2.293757499923703591e+00
2.293757499923703591e+00
2.151815668202764709e+00
2.151815668202764709e+00
2.151815668202764709e+00
2.265631641590625023e+00
2.265631641590625023e+00
2.265631641590625023e+00
2.265631641590625023e+00
2.464575212866603859e+00
2.464575212866603859e+00
2.464575212866603859e+00
2.272006836146122755e+00
2.272006836146122755e+00
2.272006836146122755e+00
2.248381115146336207e+00
2.248381115146336207e+00
2.248381115146336207e+00
2.248381115146336207e+00
2.232443128757591655e+00
2.232443128757591655e+00
2.232443128757591655e+00
2.227005462813196335e+00
2.227005462813196335e+00
2.227005462813196335e+00
2.268444227423932702e+00
2.268444227423932702e+00
2.268444227423932702e+00
2.268444227423932702e+00
2.297507614368114126e+00
2.297507614368114126e+00
2.297507614368114126e+00
2.363509628589739453e+00
2.363509628589739453e+00
2.363509628589739453e+00
2.257756401257362544e+00
2.257756401257362544e+00
2.257756401257362544e+00
2.257756401257362544e+00
2.246881069368571904e+00
2.246881069368571904e+00
2.246881069368571904e+00
2.267319193090609808e+00
2.267319193090609808e+00
2.267319193090609808e+00
2.227755485702078264e+00
2.227755485702078264e+00
2.227755485702078264e+00
2.227755485702078264e+00
2.128752464369640052e+00
2.128752464369640052e+00
2.128752464369640052e+00
2.357134434034241721e+00
2.357134434034241721e+00
2.357134434034241721e+00
2.396510635700552783e+00
2.396510635700552783e+00
2.396510635700552783e+00
2.396510635700552783e+00
2.263194067201757864e+00
2.263194067201757864e+00
2.263194067201757864e+00
2.256443861201819168e+00
2.256443861201819168e+00
2.256443861201819168e+00
2.242380932035279439e+00
2.242380932035279439e+00
2.242380932035279439e+00
2.242380932035279439e+00
2.246318552201910457e+00
2.246318552201910457e+00
2.246318552201910457e+00
2.276881984923856628e+00
2.276881984923856628e+00
2.276881984923856628e+00
2.276881984923856628e+00
2.343446516312143402e+00
2.343446516312143402e+00
2.343446516312143402e+00
2.340446424756614796e+00
2.340446424756614796e+00
2.340446424756614796e+00
2.263756584368419311e+00
2.263756584368419311e+00
2.263756584368419311e+00
2.263756584368419311e+00
2.244443494979705633e+00
2.244443494979705633e+00
2.244443494979705633e+00
2.271256813257240381e+00
2.271256813257240381e+00
2.271256813257240381e+00
2.188191778313547164e+00
2.188191778313547164e+00
2.188191778313547164e+00
2.188191778313547164e+00
2.137190221869563977e+00
2.137190221869563977e+00
2.137190221869563977e+00
2.457637501144443792e+00
2.457637501144443792e+00
2.457637501144443792e+00
2.333508713034455617e+00
2.333508713034455617e+00
2.333508713034455617e+00
2.333508713034455617e+00
2.242755943479720404e+00
2.242755943479720404e+00
2.242755943479720404e+00
2.240505874813074172e+00
2.240505874813074172e+00
2.240505874813074172e+00
2.220630268257698603e+00
2.220630268257698603e+00
2.220630268257698603e+00
2.220630268257698603e+00
2.235068208868678852e+00
2.235068208868678852e+00
2.235068208868678852e+00
2.258131412701803509e+00
2.258131412701803509e+00
2.258131412701803509e+00
2.367447248756370914e+00
2.367447248756370914e+00
2.367447248756370914e+00
2.367447248756370914e+00
2.297882625812555535e+00
2.297882625812555535e+00
2.297882625812555535e+00
2.260006469924008776e+00
2.260006469924008776e+00
2.260006469924008776e+00
2.273694387646107540e+00
2.273694387646107540e+00
2.273694387646107540e+00
2.273694387646107540e+00
2.300507705923642732e+00
2.300507705923642732e+00
2.300507705923642732e+00
2.153503219702749494e+00
2.153503219702749494e+00
2.153503219702749494e+00
2.204317270424512643e+00
2.204317270424512643e+00
2.204317270424512643e+00
2.204317270424512643e+00
2.490826013977477604e+00
2.490826013977477604e+00
2.490826013977477604e+00
2.296945097201452679e+00
2.296945097201452679e+00
2.296945097201452679e+00
2.260568987090670667e+00
2.260568987090670667e+00
2.260568987090670667e+00
2.260568987090670667e+00
2.246318552201910457e+00
2.246318552201910457e+00
2.246318552201910457e+00
2.224380382702108694e+00
2.224380382702108694e+00
2.224380382702108694e+00
2.224380382702108694e+00
2.256443861201819168e+00
2.256443861201819168e+00
2.256443861201819168e+00
2.263756584368419311e+00
2.263756584368419311e+00
2.263756584368419311e+00
2.369322305978576182e+00
2.369322305978576182e+00
2.369322305978576182e+00
2.369322305978576182e+00
2.258318918424023991e+00
2.258318918424023991e+00
2.258318918424023991e+00
2.250068666646320992e+00
2.250068666646320992e+00
2.250068666646320992e+00
2.262819055757316900e+00
2.262819055757316900e+00
2.262819055757316900e+00
2.262819055757316900e+00
2.262069032868434526e+00
2.262069032868434526e+00
2.262069032868434526e+00
2.144127933591723156e+00
2.144127933591723156e+00
2.144127933591723156e+00
2.296570085757011714e+00
2.296570085757011714e+00
2.296570085757011714e+00
2.296570085757011714e+00
2.433824274422437206e+00
2.433824274422437206e+00
2.433824274422437206e+00
2.269381756035035114e+00
2.269381756035035114e+00
2.269381756035035114e+00
2.254943815424054865e+00
2.254943815424054865e+00
2.254943815424054865e+00
2.254943815424054865e+00
2.238068300424207457e+00
2.238068300424207457e+00
2.238068300424207457e+00
2.226442945646534444e+00
2.226442945646534444e+00
2.226442945646534444e+00
2.256256355479598685e+00
2.256256355479598685e+00
2.256256355479598685e+00
2.256256355479598685e+00
2.305195348979155678e+00
2.305195348979155678e+00
2.305195348979155678e+00
2.347759147923215384e+00
2.347759147923215384e+00
2.347759147923215384e+00
2.254193792535172935e+00
2.254193792535172935e+00
2.254193792535172935e+00
2.254193792535172935e+00
2.249506149479659545e+00
2.249506149479659545e+00
2.249506149479659545e+00
2.282132145146031021e+00
2.282132145146031021e+00
2.282132145146031021e+00
2.230755577257606870e+00
2.230755577257606870e+00
2.230755577257606870e+00
2.230755577257606870e+00
2.138877773369548763e+00
2.138877773369548763e+00
2.138877773369548763e+00
2.411323587755973996e+00
2.411323587755973996e+00
2.411323587755973996e+00
2.382822717978454019e+00
2.382822717978454019e+00
2.382822717978454019e+00
2.382822717978454019e+00
2.262819055757316900e+00
2.262819055757316900e+00
2.262819055757316900e+00
2.255318826868495830e+00
2.255318826868495830e+00
2.255318826868495830e+00
2.231130588702047834e+00
2.231130588702047834e+00
2.231130588702047834e+00
2.231130588702047834e+00
2.232068117313150690e+00
2.232068117313150690e+00
2.232068117313150690e+00
2.253068758201849597e+00
2.253068758201849597e+00
2.253068758201849597e+00
2.331071138645588459e+00
2.331071138645588459e+00
2.331071138645588459e+00
2.331071138645588459e+00
2.300882717368083696e+00
2.300882717368083696e+00
2.300882717368083696e+00
2.255318826868495830e+00
2.255318826868495830e+00
2.255318826868495830e+00
2.255318826868495830e+00
2.249506149479659545e+00
2.249506149479659545e+00
2.249506149479659545e+00
2.278569536423841413e+00
2.278569536423841413e+00
2.278569536423841413e+00
2.170191228980376863e+00
2.170191228980376863e+00
2.170191228980376863e+00
2.170191228980376863e+00
2.150128116702780368e+00
2.150128116702780368e+00
2.150128116702780368e+00
2.486513382366405178e+00
2.486513382366405178e+00
2.486513382366405178e+00
2.319820795312356854e+00
2.319820795312356854e+00
2.319820795312356854e+00
2.319820795312356854e+00
2.249318643757439062e+00
2.249318643757439062e+00
2.249318643757439062e+00
2.243318460646382295e+00
2.243318460646382295e+00
2.243318460646382295e+00
2.228880520035401602e+00
2.228880520035401602e+00
2.228880520035401602e+00
2.228880520035401602e+00
2.246318552201910457e+00
2.246318552201910457e+00
2.246318552201910457e+00
2.267319193090609808e+00
2.267319193090609808e+00
2.267319193090609808e+00
2.364822168645283273e+00
2.364822168645283273e+00
2.364822168645283273e+00
2.364822168645283273e+00
2.266756675923947917e+00
2.266756675923947917e+00
2.266756675923947917e+00
2.247818597979674760e+00
2.247818597979674760e+00
2.247818597979674760e+00
2.248756126590777171e+00
2.248756126590777171e+00
2.248756126590777171e+00
2.248756126590777171e+00
2.274444410534989469e+00
2.274444410534989469e+00
2.274444410534989469e+00
2.140940336313974068e+00
2.140940336313974068e+00
2.140940336313974068e+00
2.140940336313974068e+00
2.233568163090914993e+00
2.233568163090914993e+00
2.233568163090914993e+00
2.469075350199895880e+00
2.469075350199895880e+00
2.469075350199895880e+00
2.281757133701590057e+00
2.281757133701590057e+00
2.281757133701590057e+00
2.281757133701590057e+00
2.257193884090700653e+00
2.257193884090700653e+00
2.250818689535202921e+00
2.250818689535202921e+00
2.242380932035279439e+00
2.242380932035279439e+00
2.269194250312814631e+00
2.269194250312814631e+00
2.269194250312814631e+00
2.295257545701467894e+00
2.295257545701467894e+00
2.369134800256355700e+00
2.369134800256355700e+00
2.266569170201727434e+00
2.266569170201727434e+00
2.258693929868464956e+00
2.258693929868464956e+00
2.279694570757164307e+00
2.279694570757164307e+00
2.247443586535233351e+00
2.247443586535233351e+00
2.142252876369517889e+00
2.142252876369517889e+00
2.348884182256538722e+00
2.348884182256538722e+00
2.348884182256538722e+00
2.420698873867000778e+00
2.420698873867000778e+00
2.256256355479598685e+00
2.256256355479598685e+00
2.244631000701926116e+00
2.244631000701926116e+00
2.221567796868801015e+00
2.221567796868801015e+00
2.222130314035462462e+00
2.222130314035462462e+00
2.243318460646382295e+00
2.243318460646382295e+00
2.309695486312448587e+00
2.309695486312448587e+00
2.324695944090090727e+00
2.324695944090090727e+00
2.324695944090090727e+00
2.260381481368449741e+00
2.260381481368449741e+00
2.263944090090640238e+00
2.263944090090640238e+00
2.295445051423688376e+00
2.295445051423688376e+00
2.214630085146641392e+00
2.214630085146641392e+00
2.136065187536240639e+00
2.136065187536240639e+00
2.452949858088931290e+00
2.452949858088931290e+00
2.356384411145359792e+00
2.356384411145359792e+00
2.262631550035096417e+00
2.262631550035096417e+00
2.262631550035096417e+00
2.259818964201788294e+00
2.259818964201788294e+00
2.232443128757591655e+00
2.232443128757591655e+00
2.244631000701926116e+00
2.244631000701926116e+00
2.267131687368389326e+00
2.267131687368389326e+00
2.357696951200903612e+00
2.357696951200903612e+00
2.289819879757073018e+00
2.289819879757073018e+00
2.251193700979644330e+00
2.251193700979644330e+00
2.249131138035218136e+00
2.249131138035218136e+00
2.249131138035218136e+00
2.280069582201605716e+00
2.280069582201605716e+00
2.147690542313913653e+00
2.147690542313913653e+00
2.181254066591387542e+00
2.181254066591387542e+00
2.503201391644032547e+00
2.503201391644032547e+00
2.323008392590105942e+00
2.323008392590105942e+00
2.273319376201666131e+00
2.273319376201666131e+00
2.251006195257423848e+00
2.251006195257423848e+00
2.216130130924405695e+00
2.216130130924405695e+00
2.215005096591082356e+00
2.215005096591082356e+00
2.225130405590991067e+00
2.225130405590991067e+00
2.225130405590991067e+00
2.329008575701162709e+00
2.329008575701162709e+00
2.219130222479934300e+00
2.219130222479934300e+00
2.237693288979766049e+00
2.237693288979766049e+00
2.266944181646168399e+00
2.266944181646168399e+00
2.270694296090578934e+00
2.270694296090578934e+00
2.144690450758385047e+00
2.144690450758385047e+00
2.289257362590411127e+00
2.289257362590411127e+00
2.480138187810907002e+00
2.480138187810907002e+00
2.480138187810907002e+00
2.316070680867946319e+00
2.316070680867946319e+00
2.305007843256935196e+00
2.305007843256935196e+00
2.287007293923764895e+00
2.287007293923764895e+00
2.257381389812921579e+00
2.257381389812921579e+00
2.244443494979705633e+00
2.244443494979705633e+00
2.242943449201941331e+00
2.242943449201941331e+00
2.289444868312631609e+00
2.289444868312631609e+00
2.205254799035615054e+00
2.205254799035615054e+00
2.205254799035615054e+00
2.192316904202398664e+00
2.192316904202398664e+00
2.229443037202063049e+00
2.229443037202063049e+00
2.191379375591296252e+00
2.191379375591296252e+00
2.129502487258521981e+00
2.129502487258521981e+00
2.388260383922848895e+00
2.388260383922848895e+00
2.393135532700583212e+00
2.393135532700583212e+00
2.259256447035126847e+00
2.259256447035126847e+00
2.256443861201819168e+00
2.256443861201819168e+00
2.256443861201819168e+00
2.241255897701956545e+00
2.241255897701956545e+00
2.247631092257453833e+00
2.247631092257453833e+00
2.291507431257057803e+00
2.291507431257057803e+00
2.353009308145390222e+00
2.353009308145390222e+00
2.311758049256874337e+00
2.311758049256874337e+00
2.241255897701956545e+00
2.241255897701956545e+00
2.210504959257789892e+00
2.210504959257789892e+00
2.226817957090975852e+00
2.226817957090975852e+00
2.145440473647266977e+00
2.145440473647266977e+00
2.095001434369945237e+00
2.095001434369945237e+00
2.095001434369945237e+00
2.412823633533738299e+00
2.412823633533738299e+00
2.281569627979369130e+00
2.281569627979369130e+00
2.217442670979949515e+00
2.217442670979949515e+00
2.213317545091097571e+00
2.213317545091097571e+00
2.180504043702505612e+00
2.180504043702505612e+00
2.224380382702108694e+00
2.224380382702108694e+00
2.289069856868190644e+00
2.289069856868190644e+00
2.407948484756004870e+00
2.407948484756004870e+00
2.337821344645527599e+00
2.337821344645527599e+00
2.337821344645527599e+00
2.344759056367687222e+00
2.344759056367687222e+00
2.354696859645375007e+00
2.354696859645375007e+00
2.387697866756187448e+00
2.387697866756187448e+00
2.263006561479537382e+00
2.263006561479537382e+00
2.317383220923490139e+00
2.317383220923490139e+00
2.545390179143650844e+00
2.545390179143650844e+00
2.303320291756950855e+00
2.303320291756950855e+00
2.249131138035218136e+00
2.249131138035218136e+00
2.249131138035218136e+00
2.255131321146275347e+00
2.255131321146275347e+00
2.212380016479995160e+00
2.212380016479995160e+00
2.223630359813226764e+00
2.223630359813226764e+00
2.243693472090823260e+00
2.243693472090823260e+00
2.341571459089938134e+00
2.341571459089938134e+00
2.239005829035309869e+00
2.239005829035309869e+00
2.217442670979949515e+00
2.217442670979949515e+00
2.209942442091128445e+00
2.209942442091128445e+00
2.209942442091128445e+00
2.168316171758171151e+00
2.168316171758171151e+00
2.068000610370189563e+00
2.068000610370189563e+00
2.258318918424023991e+00
2.258318918424023991e+00
2.393135532700583212e+00
2.393135532700583212e+00
2.235818231757560781e+00
2.235818231757560781e+00
2.220630268257698603e+00
2.220630268257698603e+00
2.205629810480056463e+00
2.205629810480056463e+00
2.224005371257667729e+00
2.224005371257667729e+00
2.224005371257667729e+00
2.288132328257088233e+00
2.288132328257088233e+00
2.370259834589678594e+00
2.370259834589678594e+00
2.386760338145085036e+00
2.386760338145085036e+00
2.310445509201330516e+00
2.310445509201330516e+00
2.326758507034516477e+00
2.326758507034516477e+00
2.367072237311929506e+00
2.367072237311929506e+00
2.294882534257026929e+00
2.294882534257026929e+00
2.217067659535508550e+00
2.217067659535508550e+00
2.463637684255501004e+00
2.463637684255501004e+00
2.353009308145390222e+00
2.353009308145390222e+00
2.196067018646809643e+00
2.196067018646809643e+00
2.196067018646809643e+00
2.190066835535752432e+00
2.190066835535752432e+00
2.178066469313638454e+00
2.178066469313638454e+00
2.208067384868923178e+00
2.208067384868923178e+00
2.246693563646351421e+00
2.246693563646351421e+00
2.321320841090121156e+00
2.321320841090121156e+00
2.290194891201513983e+00
2.290194891201513983e+00
2.268631733146153184e+00
2.268631733146153184e+00
2.251006195257423848e+00
2.251006195257423848e+00
2.292819971312600735e+00
2.292819971312600735e+00
2.167191137424848257e+00
2.167191137424848257e+00
2.168316171758171151e+00
2.168316171758171151e+00
2.168316171758171151e+00
2.510889126255073656e+00
2.510889126255073656e+00
2.343634022034363884e+00
2.343634022034363884e+00
2.253256263924070080e+00
2.253256263924070080e+00
2.259068941312906365e+00
2.259068941312906365e+00
2.266381664479506952e+00
2.266381664479506952e+00
2.296570085757011714e+00
2.296570085757011714e+00
2.312133060701315301e+00
2.312133060701315301e+00
2.420511368144779851e+00
2.420511368144779851e+00
2.420511368144779851e+00
2.329196081423383191e+00
2.329196081423383191e+00
2.312508072145756710e+00
2.312508072145756710e+00
2.294695028534806447e+00
2.294695028534806447e+00
2.291694936979278285e+00
2.291694936979278285e+00
2.139440290536210654e+00
2.139440290536210654e+00
2.250256172368541474e+00
2.250256172368541474e+00
2.456699972533341381e+00
2.456699972533341381e+00
2.281382122257148648e+00
2.281382122257148648e+00
2.281382122257148648e+00
2.254193792535172935e+00
2.254193792535172935e+00
2.223630359813226764e+00
2.223630359813226764e+00
2.204692281868953607e+00
2.204692281868953607e+00
2.218942716757713818e+00
2.218942716757713818e+00
2.238630817590868904e+00
2.238630817590868904e+00
2.258881435590685438e+00
2.258881435590685438e+00
2.157065828424939546e+00
2.157065828424939546e+00
2.171691274758141166e+00
2.171691274758141166e+00
2.171691274758141166e+00
2.228318002868740155e+00
2.228318002868740155e+00
2.219880245368816230e+00
2.219880245368816230e+00
2.138877773369548763e+00
2.138877773369548763e+00
2.366884731589709023e+00
2.366884731589709023e+00
2.412636127811517817e+00
2.412636127811517817e+00
2.297882625812555535e+00
2.297882625812555535e+00
2.274819421979430434e+00
2.274819421979430434e+00
2.203567247535630269e+00
2.203567247535630269e+00
2.203567247535630269e+00
2.198129581591235393e+00
2.198129581591235393e+00
2.287194799645985377e+00
2.287194799645985377e+00
2.334258735923337547e+00
2.334258735923337547e+00
2.287007293923764895e+00
2.287007293923764895e+00
2.208067384868923178e+00
2.208067384868923178e+00
2.210504959257789892e+00
2.210504959257789892e+00
2.244631000701926116e+00
2.244631000701926116e+00
2.187816766869105756e+00
2.187816766869105756e+00
2.187816766869105756e+00
2.172441297647023095e+00
2.172441297647023095e+00
2.561140659810174913e+00
2.561140659810174913e+00
2.473012970366527341e+00
2.473012970366527341e+00
2.364259651478621826e+00
2.364259651478621826e+00
2.350571733756523507e+00
2.350571733756523507e+00
2.321883358256782603e+00
2.321883358256782603e+00
2.335946287423322332e+00
2.335946287423322332e+00
2.351884273812066883e+00
2.351884273812066883e+00
2.351884273812066883e+00
2.435699331644642474e+00
2.435699331644642474e+00
2.345321573534348669e+00
2.345321573534348669e+00
2.291694936979278285e+00
2.291694936979278285e+00
2.247068575090792386e+00
2.247068575090792386e+00
2.227755485702078264e+00
2.227755485702078264e+00
2.075688344981231115e+00
2.075688344981231115e+00
2.095376445814386202e+00
2.095376445814386202e+00
2.095376445814386202e+00
2.411698599200414961e+00
2.411698599200414961e+00
2.226255439924313961e+00
2.226255439924313961e+00
2.203004730368968822e+00
2.203004730368968822e+00
2.228505508590960638e+00
2.228505508590960638e+00
2.238068300424207457e+00
2.238068300424207457e+00
2.270131778923917043e+00
2.270131778923917043e+00
2.274631916257209951e+00
2.274631916257209951e+00
2.380385143589587305e+00
2.380385143589587305e+00
2.268631733146153184e+00
2.268631733146153184e+00
2.268631733146153184e+00
2.229818048646504014e+00
2.229818048646504014e+00
2.257381389812921579e+00
2.257381389812921579e+00
2.283444685201574842e+00
2.283444685201574842e+00
2.134002624591814889e+00
2.134002624591814889e+00
2.278382030701620931e+00
2.278382030701620931e+00
2.389572923978392716e+00
2.389572923978392716e+00
2.162878505813776275e+00
2.162878505813776275e+00
2.110376903592028786e+00
2.110376903592028786e+00
2.084501113925596005e+00
2.084501113925596005e+00
2.084501113925596005e+00
2.085251136814477935e+00
2.085251136814477935e+00
2.163628528702658205e+00
2.163628528702658205e+00
2.258506424146244473e+00
2.258506424146244473e+00
2.281382122257148648e+00
2.281382122257148648e+00
2.225317911313211550e+00
2.225317911313211550e+00
2.257381389812921579e+00
2.257381389812921579e+00
2.334446241645558029e+00
2.334446241645558029e+00
2.320758323923459709e+00
2.320758323923459709e+00
2.254381298257393418e+00
2.254381298257393418e+00
2.254381298257393418e+00
2.508076540421765976e+00
2.508076540421765976e+00
2.518576860866115208e+00
2.518576860866115208e+00
2.403635853144932444e+00
2.403635853144932444e+00
2.369884823145237629e+00
2.369884823145237629e+00
2.327508529923398850e+00
2.327508529923398850e+00
2.287944822534867306e+00
2.287944822534867306e+00
2.274444410534989469e+00
2.274444410534989469e+00
2.342696493423261028e+00
2.342696493423261028e+00
2.342696493423261028e+00
2.291132419812616394e+00
2.291132419812616394e+00
2.235255714590899334e+00
2.235255714590899334e+00
2.221942808313242423e+00
2.221942808313242423e+00
2.206192327646717910e+00
2.206192327646717910e+00
2.096126468703268575e+00
2.096126468703268575e+00
2.108126834925382109e+00
2.108126834925382109e+00
2.488388439588610446e+00
2.488388439588610446e+00
2.402510818811609106e+00
2.402510818811609106e+00
2.402510818811609106e+00
2.334258735923337547e+00
2.334258735923337547e+00
2.315320657979064389e+00
2.315320657979064389e+00
2.246318552201910457e+00
2.246318552201910457e+00
2.216505142368846659e+00
2.216505142368846659e+00
2.218755211035493335e+00
2.218755211035493335e+00
2.324695944090090727e+00
2.324695944090090727e+00
2.214255073702200427e+00
2.214255073702200427e+00
2.214255073702200427e+00
2.179379009369182274e+00
2.179379009369182274e+00
2.184254158146916147e+00
2.184254158146916147e+00
2.211629993591112786e+00
2.211629993591112786e+00
2.103814203314310571e+00
2.103814203314310571e+00
2.245943540757469048e+00
2.245943540757469048e+00
2.477325601977599767e+00
2.477325601977599767e+00
2.273131870479445649e+00
2.273131870479445649e+00
2.222692831202123909e+00
2.222692831202123909e+00
2.222692831202123909e+00
2.177316446424756524e+00
2.177316446424756524e+00
2.157065828424939546e+00
2.157065828424939546e+00
2.177128940702536042e+00
2.177128940702536042e+00
2.254006286812952009e+00
2.254006286812952009e+00
2.370634846034120002e+00
2.370634846034120002e+00
2.290382396923734465e+00
2.290382396923734465e+00
2.258693929868464956e+00
2.258693929868464956e+00
2.320195806756797818e+00
2.320195806756797818e+00
2.320195806756797818e+00
2.419573839533677440e+00
2.419573839533677440e+00
2.371197363200781449e+00
2.371197363200781449e+00
2.576141117587817053e+00
2.576141117587817053e+00
2.639330545976134701e+00
2.639330545976134701e+00
2.409073519089327764e+00
2.409073519089327764e+00
2.276131962034974254e+00
2.276131962034974254e+00
2.149753105258339403e+00
2.149753105258339403e+00
2.107939329203161627e+00
2.107939329203161627e+00
2.107939329203161627e+00
2.122564775536362802e+00
2.122564775536362802e+00
2.205442304757835537e+00
2.205442304757835537e+00
2.226442945646534444e+00
2.226442945646534444e+00
2.158940885647145258e+00
2.158940885647145258e+00
2.155190771202734279e+00
2.155190771202734279e+00
2.256256355479598685e+00
2.256256355479598685e+00
2.246693563646351421e+00
2.246693563646351421e+00
2.155190771202734279e+00
2.155190771202734279e+00
2.155190771202734279e+00
2.418448805200354101e+00
2.418448805200354101e+00
2.312695577867977192e+00
2.312695577867977192e+00
2.202254707480086449e+00
2.202254707480086449e+00
2.130440015869624837e+00
2.130440015869624837e+00
2.080750999481185470e+00
2.080750999481185470e+00
2.119377178258613714e+00
2.119377178258613714e+00
2.234130680257575996e+00
2.234130680257575996e+00
2.354696859645375007e+00
2.354696859645375007e+00
2.354696859645375007e+00
2.250256172368541474e+00
2.250256172368541474e+00
2.218005188146610962e+00
2.218005188146610962e+00
2.179379009369182274e+00
2.179379009369182274e+00
2.168878688924833043e+00
2.168878688924833043e+00
2.018686605426191161e+00
2.018686605426191161e+00
2.040062257759331033e+00
2.040062257759331033e+00
2.385635303811762142e+00
2.385635303811762142e+00
2.197567064424573946e+00
2.197567064424573946e+00
2.197567064424573946e+00
2.131940061647389140e+00
2.131940061647389140e+00
2.182941618091372327e+00
2.182941618091372327e+00
2.292257454145939732e+00
2.292257454145939732e+00
2.426324045533616136e+00
2.426324045533616136e+00
2.535827387310404024e+00
2.535827387310404024e+00
2.732333384197515702e+00
2.732333384197515702e+00
2.606142033143101333e+00
2.606142033143101333e+00
2.416761253700369316e+00
2.416761253700369316e+00
2.299570177312540320e+00
2.299570177312540320e+00
2.299570177312540320e+00
2.253443769646290562e+00
2.253443769646290562e+00
2.136065187536240639e+00
2.136065187536240639e+00
2.273131870479445649e+00
2.273131870479445649e+00
2.499638782921842051e+00
2.499638782921842051e+00
2.352071779534287366e+00
2.352071779534287366e+00
2.330883632923367976e+00
2.330883632923367976e+00
2.334821253089998994e+00
2.334821253089998994e+00
2.340446424756614796e+00
2.340446424756614796e+00
2.340446424756614796e+00
2.337258827478866152e+00
2.337258827478866152e+00
2.378322580645161111e+00
2.378322580645161111e+00
2.472262947477644968e+00
2.472262947477644968e+00
2.404948393200476264e+00
2.404948393200476264e+00
2.383947752311777357e+00
2.383947752311777357e+00
2.356196905423139309e+00
2.356196905423139309e+00
2.249131138035218136e+00
2.249131138035218136e+00
2.124814844203009478e+00
2.124814844203009478e+00
2.124814844203009478e+00
2.354134342478713116e+00
2.354134342478713116e+00
2.452949858088931290e+00
2.452949858088931290e+00
2.343259010589922919e+00
2.343259010589922919e+00
2.214067567979979945e+00
2.214067567979979945e+00
1.999748527481917781e+00
1.999748527481917781e+00
1.845243812372203696e+00
1.845243812372203696e+00
1.905995666371654407e+00
1.905995666371654407e+00
2.068000610370189563e+00
2.068000610370189563e+00
2.068000610370189563e+00
2.100064088869899592e+00
2.100064088869899592e+00
2.120877224036378017e+00
2.120877224036378017e+00
2.182004089480269915e+00
2.182004089480269915e+00
2.284194708090456771e+00
2.284194708090456771e+00
2.248756126590777171e+00
2.248756126590777171e+00
2.145815485091708386e+00
2.145815485091708386e+00
2.413011139255958781e+00
2.413011139255958781e+00
2.250631183812982439e+00
2.250631183812982439e+00
2.250631183812982439e+00
2.116002075258644588e+00
2.116002075258644588e+00
2.079438459425641650e+00
2.079438459425641650e+00
2.020186651203955464e+00
2.020186651203955464e+00
2.044562395092623941e+00
2.044562395092623941e+00
2.167003631702627775e+00
2.167003631702627775e+00
2.346259102145451525e+00
2.346259102145451525e+00
2.314570635090182460e+00
2.314570635090182460e+00
2.276131962034974254e+00
2.276131962034974254e+00
2.219692739646595747e+00
2.219692739646595747e+00
2.219692739646595747e+00
2.260006469924008776e+00
2.260006469924008776e+00
2.196817041535691573e+00
2.196817041535691573e+00
2.307070406201360946e+00
2.307070406201360946e+00
2.585141392254402426e+00
2.585141392254402426e+00
2.404760887478255782e+00
2.404760887478255782e+00
2.450699789422284613e+00
2.450699789422284613e+00
2.563203222754600663e+00
2.563203222754600663e+00
2.628267708365123578e+00
2.628267708365123578e+00
2.628267708365123578e+00
2.661456221198156946e+00
2.661456221198156946e+00
2.617954893642994829e+00
2.617954893642994829e+00
2.635955442976165131e+00
2.635955442976165131e+00
2.342696493423261028e+00
2.342696493423261028e+00
2.197379558702353020e+00
2.197379558702353020e+00
2.154628254036072832e+00
2.154628254036072832e+00
2.100064088869899592e+00
2.100064088869899592e+00
2.100064088869899592e+00
1.978560380870998392e+00
1.978560380870998392e+00
2.121252235480818982e+00
2.121252235480818982e+00
2.212567522202215642e+00
2.212567522202215642e+00
2.034062074648274265e+00
2.034062074648274265e+00
2.027311868648335125e+00
2.027311868648335125e+00
2.002936124759666647e+00
2.002936124759666647e+00
1.903370586260566988e+00
1.903370586260566988e+00
1.897182897427289516e+00
1.897182897427289516e+00
1.897182897427289516e+00
2.044187383648182976e+00
2.044187383648182976e+00
2.140002807702871657e+00
2.140002807702871657e+00
2.128377452925199087e+00
2.128377452925199087e+00
2.227380474257637299e+00
2.227380474257637299e+00
2.363697134311959935e+00
2.363697134311959935e+00
2.485950865199743731e+00
2.485950865199743731e+00
2.502638874477370656e+00
2.502638874477370656e+00
2.818398510696737969e+00
2.818398510696737969e+00
2.818398510696737969e+00
2.713020294808801580e+00
2.713020294808801580e+00
2.474888027588732609e+00
2.474888027588732609e+00
2.362947111423078006e+00
2.362947111423078006e+00
2.350196722312082542e+00
2.350196722312082542e+00
2.353384319589831186e+00
2.353384319589831186e+00
2.426886562700277583e+00
2.426886562700277583e+00
2.565640797143467378e+00
2.565640797143467378e+00
2.337633838923307117e+00
2.337633838923307117e+00
2.154065736869411385e+00
2.154065736869411385e+00
2.047562486648152102e+00
2.047562486648152102e+00
1.961497360148930280e+00
1.961497360148930280e+00
1.961497360148930280e+00
1.780179326761681002e+00
1.780179326761681002e+00
1.806992645039216416e+00
1.806992645039216416e+00
2.172066286202582130e+00
2.172066286202582130e+00
2.104939237647633021e+00
2.104939237647633021e+00
2.151253151036103706e+00
2.151253151036103706e+00
2.231880611590930208e+00
2.231880611590930208e+00
2.299570177312540320e+00
2.299570177312540320e+00
2.468137821588793912e+00
2.468137821588793912e+00
2.468137821588793912e+00
2.572766014587847927e+00
2.572766014587847927e+00
2.568453382976775501e+00
2.568453382976775501e+00
2.182566606646931362e+00
2.182566606646931362e+00
2.019999145481734981e+00
2.019999145481734981e+00
2.003686147648549021e+00
2.003686147648549021e+00
2.026561845759453195e+00
2.026561845759453195e+00
1.990373241370891666e+00
1.990373241370891666e+00
2.243880977813043742e+00
2.243880977813043742e+00
2.243880977813043742e+00
2.580266243476668553e+00
2.580266243476668553e+00
2.419761345255897922e+00
2.419761345255897922e+00
2.469637867366557771e+00
2.469637867366557771e+00
2.469262855922116806e+00
2.469262855922116806e+00
2.437949400311288706e+00
2.437949400311288706e+00
2.428761619922483295e+00
2.428761619922483295e+00
2.438886928922391562e+00
2.438886928922391562e+00
2.438886928922391562e+00
2.560203131199072502e+00
2.560203131199072502e+00
2.558515579699087716e+00
2.558515579699087716e+00
2.639143040253914219e+00
2.639143040253914219e+00
2.515389263588366120e+00
2.515389263588366120e+00
2.212005005035553751e+00
2.212005005035553751e+00
1.863806878872035888e+00
1.863806878872035888e+00
1.899807977538377157e+00
1.899807977538377157e+00
1.923433698538163483e+00
1.923433698538163483e+00
1.923433698538163483e+00
1.827055757316812690e+00
1.827055757316812690e+00
2.033687063203833301e+00
2.033687063203833301e+00
2.215380108035523765e+00
2.215380108035523765e+00
2.249131138035218136e+00
2.249131138035218136e+00
2.225505417035432032e+00
2.225505417035432032e+00
2.441699514755699685e+00
2.441699514755699685e+00
2.480888210699789376e+00
2.480888210699789376e+00
2.284944730979339145e+00
2.284944730979339145e+00
2.131190038758506766e+00
2.131190038758506766e+00
2.019061616870632125e+00
2.019061616870632125e+00
2.019061616870632125e+00
1.976310312204351938e+00
1.976310312204351938e+00
2.019249122592852608e+00
2.019249122592852608e+00
2.448262215033417899e+00
2.448262215033417899e+00
2.503388897366253030e+00
2.503388897366253030e+00
2.551202856532486685e+00
2.551202856532486685e+00
2.591516586809900158e+00
2.591516586809900158e+00
2.564328257087923557e+00
2.564328257087923557e+00
2.462512649922177665e+00
2.462512649922177665e+00
2.462512649922177665e+00
2.255318826868495830e+00
2.255318826868495830e+00
2.312133060701315301e+00
2.312133060701315301e+00
2.236755760368663637e+00
2.236755760368663637e+00
2.186691732535783306e+00
2.186691732535783306e+00
2.207692373424482213e+00
2.207692373424482213e+00
2.182379100924710880e+00
2.182379100924710880e+00
1.922121158482619663e+00
1.922121158482619663e+00
1.907308206427198227e+00
1.907308206427198227e+00
1.907308206427198227e+00
2.193441938535722002e+00
2.193441938535722002e+00
1.900370494705038604e+00
1.900370494705038604e+00
1.814305368205817004e+00
1.814305368205817004e+00
1.846556352427747516e+00
1.846556352427747516e+00
2.094813928647724754e+00
2.094813928647724754e+00
2.298257637256996500e+00
2.298257637256996500e+00
2.561328165532395840e+00
2.561328165532395840e+00
2.561328165532395840e+00
2.817835993530076077e+00
2.817835993530076077e+00
2.682831873531296818e+00
2.682831873531296818e+00
2.446574663533433114e+00
2.446574663533433114e+00
2.209004913480026033e+00
2.209004913480026033e+00
2.072500747703482027e+00
2.072500747703482027e+00
2.099876583147679110e+00
2.099876583147679110e+00
2.447324686422315043e+00
2.447324686422315043e+00
2.515576769310586602e+00
2.515576769310586602e+00
2.515576769310586602e+00
2.221942808313242423e+00
2.221942808313242423e+00
2.182379100924710880e+00
2.182379100924710880e+00
2.170566240424817828e+00
2.170566240424817828e+00
2.186879238258003344e+00
2.186879238258003344e+00
2.365947202978606612e+00
2.365947202978606612e+00
2.479200659199805035e+00
2.479200659199805035e+00
2.329383587145603673e+00
2.329383587145603673e+00
2.044937406537064906e+00
2.044937406537064906e+00
2.052062623981445011e+00
2.052062623981445011e+00
2.052062623981445011e+00
2.173191320535905025e+00
2.173191320535905025e+00
2.318695760979033516e+00
2.318695760979033516e+00
2.434386791589098653e+00
2.434386791589098653e+00
2.799647938474684850e+00
2.799647938474684850e+00
2.776772240363780675e+00
2.776772240363780675e+00
2.616267342143010044e+00
2.616267342143010044e+00
2.558703085421308199e+00
2.558703085421308199e+00
2.479013153477584552e+00
2.479013153477584552e+00
2.453137363811151772e+00
2.453137363811151772e+00
2.453137363811151772e+00
2.408135990478225352e+00
2.408135990478225352e+00
2.220817773979919085e+00
2.220817773979919085e+00
1.958309762871181414e+00
1.958309762871181414e+00
1.826118228705710056e+00
1.826118228705710056e+00
1.721302529984435559e+00
1.721302529984435559e+00
1.814117862483596522e+00
1.814117862483596522e+00
1.758991180150761391e+00
1.758991180150761391e+00
1.802680013428144212e+00
1.802680013428144212e+00
1.802680013428144212e+00
2.141127842036194995e+00
2.141127842036194995e+00
2.033499557481612818e+00
2.033499557481612818e+00
2.059000335703604190e+00
2.059000335703604190e+00
1.985685598315378275e+00
1.985685598315378275e+00
1.953809625537888728e+00
1.953809625537888728e+00
2.247631092257453833e+00
2.247631092257453833e+00
2.332571184423352761e+00
2.332571184423352761e+00
2.491576036866359534e+00
2.491576036866359534e+00
2.491576036866359534e+00
2.488763451033051854e+00
2.488763451033051854e+00
2.799460432752464367e+00
2.799460432752464367e+00
2.975153294473098065e+00
2.975153294473098065e+00
2.939152195806756573e+00
2.939152195806756573e+00
2.600516861476485531e+00
2.600516861476485531e+00
2.511639149143956029e+00
2.511639149143956029e+00
2.675331644642475748e+00
2.675331644642475748e+00
2.342508987701040546e+00
2.342508987701040546e+00
2.147878048036134135e+00
2.147878048036134135e+00
2.147878048036134135e+00
2.037249671926022909e+00
2.037249671926022909e+00
1.961497360148930280e+00
1.961497360148930280e+00
1.990748252815332409e+00
1.990748252815332409e+00
1.999186010315256334e+00
1.999186010315256334e+00
2.151440656758324188e+00
2.151440656758324188e+00
2.157815851313821920e+00
2.157815851313821920e+00
2.309320474868007622e+00
2.309320474868007622e+00
2.274631916257209951e+00
2.274631916257209951e+00
1.932996490371410303e+00
1.932996490371410303e+00
1.932996490371410303e+00
1.647612781151768679e+00
1.647612781151768679e+00
1.839056123538926224e+00
1.839056123538926224e+00
1.943496810815759979e+00
1.943496810815759979e+00
1.968997589037751350e+00
1.968997589037751350e+00
2.073063264870143918e+00
2.073063264870143918e+00
2.205254799035615054e+00
2.205254799035615054e+00
2.246131046479689974e+00
2.246131046479689974e+00
2.352446790978728330e+00
2.352446790978728330e+00
2.352446790978728330e+00
2.668956450086977572e+00
2.668956450086977572e+00
2.647768303476058183e+00
2.647768303476058183e+00
2.578016174810022321e+00
2.578016174810022321e+00
2.683019379253517300e+00
2.683019379253517300e+00
2.843149266029847411e+00
2.843149266029847411e+00
2.544827661976988953e+00
2.544827661976988953e+00
2.186691732535783306e+00
2.186691732535783306e+00
2.410948576311533031e+00
2.410948576311533031e+00
2.410948576311533031e+00
2.353571825312051669e+00
2.353571825312051669e+00
2.298632648701437464e+00
2.298632648701437464e+00
2.346446607867672007e+00
2.346446607867672007e+00
2.373072420422986717e+00
2.373072420422986717e+00
2.606142033143101333e+00
2.606142033143101333e+00
2.884775536362804260e+00
2.884775536362804260e+00
2.954527665028840122e+00
2.954527665028840122e+00
2.954527665028840122e+00
2.475825556199835464e+00
2.475825556199835464e+00
2.168878688924833043e+00
2.168878688924833043e+00
1.936934110538041542e+00
1.936934110538041542e+00
1.865869441816461860e+00
1.865869441816461860e+00
1.631674794763023906e+00
1.631674794763023906e+00
1.479607654042176756e+00
1.479607654042176756e+00
1.671426007873775488e+00
1.671426007873775488e+00
1.467607287820063000e+00
1.467607287820063000e+00
1.652675435651722813e+00
1.652675435651722813e+00
1.652675435651722813e+00
1.995435895870845799e+00
1.995435895870845799e+00
2.278757042146061895e+00
2.278757042146061895e+00
2.583641346476638123e+00
2.583641346476638123e+00
2.936527115695669821e+00
2.936527115695669821e+00
3.186097231971190435e+00
3.186097231971190435e+00
2.932777001251258842e+00
2.932777001251258842e+00
2.733270912808618558e+00
2.733270912808618558e+00
2.708895168919950081e+00
2.708895168919950081e+00
2.703645008697775243e+00
2.703645008697775243e+00
2.459887569811090469e+00
2.459887569811090469e+00
2.459887569811090469e+00
2.479013153477584552e+00
2.479013153477584552e+00
2.512951689199499850e+00
2.512951689199499850e+00
2.247818597979674760e+00
2.247818597979674760e+00
2.119189672536393232e+00
2.119189672536393232e+00
1.995248390148625317e+00
1.995248390148625317e+00
1.887432599871822214e+00
1.887432599871822214e+00
1.876182256538590609e+00
1.876182256538590609e+00
1.953434614093447763e+00
1.953434614093447763e+00
1.953434614093447763e+00
2.071375713370158689e+00
2.071375713370158689e+00
2.031061983092746104e+00
2.031061983092746104e+00
2.105501754814294912e+00
2.105501754814294912e+00
2.119002166814172750e+00
2.119002166814172750e+00
2.193816949980162967e+00
2.193816949980162967e+00
2.243505966368602778e+00
2.243505966368602778e+00
2.598454298532059781e+00
2.598454298532059781e+00
2.701769951475569975e+00
2.701769951475569975e+00
2.617767387920773903e+00
2.617767387920773903e+00
2.617767387920773903e+00
2.410573564867091623e+00
2.410573564867091623e+00
2.056562761314737475e+00
2.056562761314737475e+00
1.836993560594500696e+00
1.836993560594500696e+00
1.806617633594775230e+00
1.806617633594775230e+00
1.915183446760460262e+00
1.915183446760460262e+00
1.925496261482589233e+00
1.925496261482589233e+00
1.946309396649067658e+00
1.946309396649067658e+00
2.257943906979583026e+00
2.257943906979583026e+00
2.257943906979583026e+00
2.499638782921842051e+00
2.499638782921842051e+00
2.338196356089969008e+00
2.338196356089969008e+00
2.239568346201971760e+00
2.239568346201971760e+00
2.706457594531082922e+00
2.706457594531082922e+00
2.621142490920743473e+00
2.621142490920743473e+00
2.617579882198553420e+00
2.617579882198553420e+00
2.729333292641987541e+00
2.729333292641987541e+00
2.792897732474746153e+00
2.792897732474746153e+00
2.947402447584460017e+00
2.947402447584460017e+00
2.806585650196844473e+00
2.806585650196844473e+00
2.806585650196844473e+00
2.196817041535691573e+00
2.196817041535691573e+00
1.555734977263710572e+00
1.555734977263710572e+00
1.443419049653615005e+00
1.443419049653615005e+00
1.590423535874508021e+00
1.590423535874508021e+00
1.854056581316568586e+00
1.854056581316568586e+00
1.991498275704214560e+00
1.991498275704214560e+00
2.460825098422192880e+00
2.460825098422192880e+00
2.970090639973143709e+00
2.970090639973143709e+00
2.970090639973143709e+00
2.803773064363536793e+00
2.803773064363536793e+00
2.406448438978240567e+00
2.406448438978240567e+00
2.026374340037232713e+00
2.026374340037232713e+00
1.820305551316873771e+00
1.820305551316873771e+00
1.794617267372661473e+00
1.794617267372661473e+00
1.792929715872676688e+00
1.792929715872676688e+00
1.958309762871181414e+00
1.958309762871181414e+00
2.250068666646320992e+00
2.250068666646320992e+00
2.250068666646320992e+00
2.817273476363414630e+00
2.817273476363414630e+00
3.025967345194860769e+00
3.025967345194860769e+00
2.790835169530320403e+00
2.790835169530320403e+00
2.513326700643940814e+00
2.513326700643940814e+00
2.539014984588152668e+00
2.539014984588152668e+00
2.439824457533493973e+00
2.439824457533493973e+00
2.068375621814630971e+00
2.068375621814630971e+00
1.764991363261818380e+00
1.764991363261818380e+00
1.764991363261818380e+00
1.622299508651997346e+00
1.622299508651997346e+00
1.631862300485244388e+00
1.631862300485244388e+00
1.935621570482497722e+00
1.935621570482497722e+00
2.425761528366954689e+00
2.425761528366954689e+00
2.751458967864009342e+00
2.751458967864009342e+00
2.740396130252998219e+00
2.740396130252998219e+00
2.770397045808282943e+00
2.770397045808282943e+00
2.721458052308725506e+00
2.721458052308725506e+00
2.721458052308725506e+00
2.352821802423169739e+00
2.352821802423169739e+00
2.100251594592120075e+00
2.100251594592120075e+00
2.350384228034303025e+00
2.350384228034303025e+00
2.306320383312479017e+00
2.306320383312479017e+00
2.283444685201574842e+00
2.283444685201574842e+00
2.360322031311990809e+00
2.360322031311990809e+00
2.500013794366283459e+00
2.500013794366283459e+00
2.358446974089785542e+00
2.358446974089785542e+00
2.062937955870235207e+00
2.062937955870235207e+00
1.857244178594317452e+00
1.857244178594317452e+00
1.735365459150975065e+00
1.735365459150975065e+00
1.735365459150975065e+00
1.823305642872402155e+00
1.823305642872402155e+00
1.910683309427167575e+00
1.910683309427167575e+00
2.269194250312814631e+00
2.269194250312814631e+00
2.566390820032349751e+00
2.566390820032349751e+00
2.762334299752799982e+00
2.762334299752799982e+00
3.027654896694845554e+00
3.027654896694845554e+00
2.525514572588274831e+00
2.525514572588274831e+00
2.291319925534837321e+00
2.291319925534837321e+00
2.186691732535783306e+00
2.186691732535783306e+00
2.186691732535783306e+00
2.054875209814752690e+00
2.054875209814752690e+00
2.161753471480452937e+00
2.161753471480452937e+00
2.391260475478377501e+00
2.391260475478377501e+00
2.580641254921109962e+00
2.580641254921109962e+00
2.349634205145421095e+00
2.349634205145421095e+00
2.141127842036194995e+00
2.141127842036194995e+00
1.940684224982451855e+00
1.940684224982451855e+00
1.877119785149693465e+00
1.877119785149693465e+00
1.877119785149693465e+00
1.671050996429334523e+00
1.671050996429334523e+00
1.857994201483199603e+00
1.857994201483199603e+00
2.232630634479812137e+00
2.232630634479812137e+00
2.295820062868129341e+00
2.295820062868129341e+00
2.560390636921292984e+00
2.560390636921292984e+00
2.669518967253639019e+00
2.669518967253639019e+00
2.640830591753899004e+00
2.640830591753899004e+00
2.554015442365794808e+00
2.554015442365794808e+00
2.554015442365794808e+00
2.484638325144199911e+00
2.484638325144199911e+00
2.517076815088350905e+00
2.517076815088350905e+00
2.253443769646290562e+00
2.253443769646290562e+00
2.016999053926206376e+00
2.016999053926206376e+00
1.971435163426618287e+00
1.971435163426618287e+00
1.908245735038300861e+00
1.908245735038300861e+00
1.808867702261421462e+00
1.808867702261421462e+00
2.140565324869533104e+00
2.140565324869533104e+00
2.140565324869533104e+00
2.493451094088564801e+00
2.493451094088564801e+00
2.697832331308938958e+00
2.697832331308938958e+00
2.803960570085757276e+00
2.803960570085757276e+00
2.784459974974822671e+00
2.784459974974822671e+00
2.614767296365245741e+00
2.614767296365245741e+00
2.448637226477858864e+00
2.448637226477858864e+00
2.296757591479232197e+00
2.296757591479232197e+00
2.221755302591021497e+00
2.221755302591021497e+00
2.221755302591021497e+00
2.194004455702383449e+00
2.194004455702383449e+00
2.182566606646931362e+00
2.182566606646931362e+00
2.194379467146824858e+00
2.194379467146824858e+00
2.029561937314981801e+00
2.029561937314981801e+00
1.826680745872371503e+00
1.826680745872371503e+00
1.973310220648823554e+00
1.973310220648823554e+00
1.521233924375133606e+00
1.521233924375133606e+00
1.205661793877986998e+00
1.205661793877986998e+00
1.205661793877986998e+00
1.389979918820764881e+00
1.389979918820764881e+00
1.759178685872982095e+00
1.759178685872982095e+00
2.210129947813348927e+00
2.210129947813348927e+00
2.748646382030701663e+00
2.748646382030701663e+00
3.360290047914059830e+00
3.360290047914059830e+00
3.266912198248237420e+00
3.266912198248237420e+00
3.024279793694875984e+00
3.024279793694875984e+00
2.838461622974334020e+00
2.838461622974334020e+00
2.838461622974334020e+00
2.609517136143070459e+00
2.609517136143070459e+00
2.205442304757835537e+00
2.205442304757835537e+00
2.227942991424298746e+00
2.227942991424298746e+00
2.557578051087984861e+00
2.557578051087984861e+00
2.356946928312021239e+00
2.356946928312021239e+00
2.293945005645924073e+00
2.293945005645924073e+00
2.209379924924466998e+00
2.209379924924466998e+00
2.106251777703176842e+00
2.106251777703176842e+00
2.106251777703176842e+00
2.098751548814355772e+00
2.098751548814355772e+00
2.042124820703756782e+00
2.042124820703756782e+00
1.923246192815943001e+00
1.923246192815943001e+00
1.662800744651631080e+00
1.662800744651631080e+00
1.632424817651906057e+00
1.632424817651906057e+00
1.716989898373363355e+00
1.716989898373363355e+00
1.894182805871761355e+00
1.894182805871761355e+00
2.024874294259468410e+00
2.024874294259468410e+00
2.024874294259468410e+00
2.629017731254005508e+00
2.629017731254005508e+00
3.104719748527482004e+00
3.104719748527482004e+00
2.937839655751212753e+00
2.937839655751212753e+00
2.864149906918546318e+00
2.864149906918546318e+00
2.734583452864162378e+00
2.734583452864162378e+00
2.571078463087863142e+00
2.571078463087863142e+00
2.458762535477767130e+00
2.458762535477767130e+00
2.416198736533707869e+00
2.416198736533707869e+00
2.416198736533707869e+00
2.405510910367137711e+00
2.405510910367137711e+00
2.298820154423657947e+00
2.298820154423657947e+00
2.151628162480544670e+00
2.151628162480544670e+00
2.059750358592486119e+00
2.059750358592486119e+00
1.933371501815851268e+00
1.933371501815851268e+00
1.834555986205633760e+00
1.834555986205633760e+00
2.152378185369426600e+00
2.152378185369426600e+00
2.249318643757439062e+00
2.249318643757439062e+00
2.249318643757439062e+00
2.161753471480452937e+00
2.161753471480452937e+00
2.189879329813531950e+00
2.189879329813531950e+00
2.179003997924741309e+00
2.179003997924741309e+00
2.163066011535996758e+00
2.163066011535996758e+00
2.179566515091402756e+00
2.179566515091402756e+00
2.297507614368114126e+00
2.297507614368114126e+00
2.382822717978454019e+00
2.382822717978454019e+00
2.454824915311136557e+00
2.454824915311136557e+00
2.454824915311136557e+00
2.495326151310770069e+00
2.495326151310770069e+00
2.549702810754722826e+00
2.549702810754722826e+00
2.375697500534073914e+00
2.375697500534073914e+00
2.248381115146336207e+00
2.248381115146336207e+00
2.413948667867061193e+00
2.413948667867061193e+00
2.039874752037110550e+00
2.039874752037110550e+00
1.864181890316477075e+00
1.864181890316477075e+00
1.890432691427350820e+00
1.890432691427350820e+00
1.890432691427350820e+00
1.940871730704672338e+00
1.940871730704672338e+00
2.018124088259529714e+00
2.018124088259529714e+00
2.125752372814111890e+00
2.125752372814111890e+00
2.460825098422192880e+00
2.460825098422192880e+00
2.347946653645436310e+00
2.347946653645436310e+00
2.304070314645832784e+00
2.304070314645832784e+00
2.333133701590014208e+00
2.333133701590014208e+00
2.392010498367259874e+00
2.392010498367259874e+00
2.392010498367259874e+00
2.416011230811487387e+00
2.416011230811487387e+00
2.654143498031556359e+00
2.654143498031556359e+00
2.851962034974211857e+00
2.851962034974211857e+00
2.514076723532822744e+00
2.514076723532822744e+00
2.353196813867610704e+00
2.353196813867610704e+00
2.294695028534806447e+00
2.294695028534806447e+00
2.224005371257667729e+00
2.224005371257667729e+00
2.272756859035004684e+00
2.272756859035004684e+00
2.272756859035004684e+00
2.370634846034120002e+00
2.370634846034120002e+00
2.411886104922635443e+00
2.411886104922635443e+00
1.989998229926450479e+00
1.989998229926450479e+00
1.809055207983641944e+00
1.809055207983641944e+00
1.763116306039613113e+00
1.763116306039613113e+00
1.707614612262337239e+00
1.707614612262337239e+00
1.650612872707296841e+00
1.650612872707296841e+00
2.160253425702688634e+00
2.160253425702688634e+00
2.160253425702688634e+00
2.684706930753502085e+00
2.684706930753502085e+00
2.711332743308816795e+00
2.711332743308816795e+00
2.701957457197790902e+00
2.701957457197790902e+00
2.661831232642597911e+00
2.661831232642597911e+00
2.427824091311380439e+00
2.427824091311380439e+00
2.346071596423230599e+00
2.346071596423230599e+00
2.322820886867885459e+00
2.322820886867885459e+00
2.179566515091402756e+00
2.179566515091402756e+00
2.179566515091402756e+00
2.045312417981505870e+00
2.045312417981505870e+00
2.093688894314401416e+00
2.093688894314401416e+00
2.363134617145298488e+00
2.363134617145298488e+00
2.380947660756248752e+00
2.380947660756248752e+00
2.353384319589831186e+00
2.353384319589831186e+00
2.580453749198889035e+00
2.580453749198889035e+00
2.445074617755668811e+00
2.445074617755668811e+00
2.445074617755668811e+00
2.319070772423474924e+00
2.319070772423474924e+00
2.389947935422834124e+00
2.389947935422834124e+00
2.355821893978697901e+00
2.355821893978697901e+00
2.250256172368541474e+00
2.250256172368541474e+00
2.185941709646900932e+00
2.185941709646900932e+00
2.231880611590930208e+00
2.231880611590930208e+00
2.160815942869350526e+00
2.160815942869350526e+00
2.129689992980742907e+00
2.129689992980742907e+00
2.129689992980742907e+00
2.157065828424939546e+00
2.157065828424939546e+00
2.216692648091067142e+00
2.216692648091067142e+00
2.136065187536240639e+00
2.136065187536240639e+00
2.161940977202673420e+00
2.161940977202673420e+00
2.391447981200597983e+00
2.391447981200597983e+00
1.960934842982268833e+00
1.960934842982268833e+00
1.703864497817926482e+00
1.703864497817926482e+00
1.705552049317911267e+00
1.705552049317911267e+00
1.705552049317911267e+00
1.810180242316965282e+00
1.810180242316965282e+00
2.067063081759087151e+00
2.067063081759087151e+00
2.364072145756401344e+00
2.364072145756401344e+00
2.827023773918881933e+00
2.827023773918881933e+00
2.891713248084963439e+00
2.891713248084963439e+00
2.833023957029938700e+00
2.833023957029938700e+00
2.713207800531022507e+00
2.713207800531022507e+00
2.602016907254249833e+00
2.602016907254249833e+00
2.398573198644978088e+00
2.398573198644978088e+00
2.513326700643940814e+00
2.513326700643940814e+00
2.513326700643940814e+00
2.585328897976622908e+00
2.585328897976622908e+00
2.308007934812463802e+00
2.308007934812463802e+00
2.214442579424420909e+00
2.214442579424420909e+00
2.107001800592058771e+00
2.107001800592058771e+00
2.034624591814935712e+00
2.034624591814935712e+00
2.062937955870235207e+00
2.062937955870235207e+00
2.167566148869289222e+00
2.167566148869289222e+00
2.274444410534989469e+00
2.274444410534989469e+00
2.209004913480026033e+00
2.209004913480026033e+00
2.209004913480026033e+00
2.206004821924497428e+00
2.206004821924497428e+00
2.254193792535172935e+00
2.254193792535172935e+00
2.213880062257759462e+00
2.213880062257759462e+00
2.118252143925290376e+00
2.118252143925290376e+00
2.381510177922910199e+00
2.381510177922910199e+00
2.340446424756614796e+00
2.340446424756614796e+00
2.156878322702719064e+00
2.156878322702719064e+00
2.219692739646595747e+00
2.219692739646595747e+00
2.219692739646595747e+00
2.300695211645863214e+00
2.300695211645863214e+00
2.370259834589678594e+00
2.370259834589678594e+00
2.417136265144810281e+00
2.417136265144810281e+00
2.486888393810846587e+00
2.486888393810846587e+00
2.390510452589495571e+00
2.390510452589495571e+00
2.273131870479445649e+00
2.273131870479445649e+00
2.179003997924741309e+00
2.179003997924741309e+00
2.125189855647450443e+00
2.125189855647450443e+00
2.000873561815240897e+00
2.000873561815240897e+00
1.917058503982665529e+00
1.917058503982665529e+00
1.917058503982665529e+00
2.210129947813348927e+00
2.210129947813348927e+00
2.106814294869838289e+00
2.106814294869838289e+00
2.085813653981139382e+00
2.085813653981139382e+00
2.207129856257820322e+00
2.207129856257820322e+00
2.323195898312326424e+00
2.323195898312326424e+00
2.417511276589251690e+00
2.417511276589251690e+00
2.414511185033723084e+00
2.414511185033723084e+00
2.464012695699941968e+00
2.464012695699941968e+00
2.243880977813043742e+00
2.243880977813043742e+00
2.243880977813043742e+00
2.082813562425611220e+00
2.082813562425611220e+00
1.991498275704214560e+00
1.991498275704214560e+00
2.043249855037080120e+00
2.043249855037080120e+00
1.976122806482131455e+00
1.976122806482131455e+00
2.143002899258400262e+00
2.143002899258400262e+00
2.565828302865687860e+00
2.565828302865687860e+00
2.486888393810846587e+00
2.486888393810846587e+00
2.486888393810846587e+00
2.427824091311380439e+00
2.427824091311380439e+00
2.448262215033417899e+00
2.448262215033417899e+00
2.449387249366740793e+00
2.449387249366740793e+00
2.524764549699392902e+00
2.524764549699392902e+00
2.572391003143406518e+00
2.572391003143406518e+00
2.659768669698171717e+00
2.659768669698171717e+00
2.552702902310250987e+00
2.552702902310250987e+00
2.451824823755607952e+00
2.451824823755607952e+00
2.451824823755607952e+00
2.358446974089785542e+00
2.358446974089785542e+00
2.250631183812982439e+00
2.250631183812982439e+00
2.046062440870388244e+00
2.046062440870388244e+00
2.176003906369212704e+00
2.176003906369212704e+00
2.266006653035065987e+00
2.266006653035065987e+00
2.139440290536210654e+00
2.139440290536210654e+00
2.174503860591448845e+00
2.174503860591448845e+00
2.223255348368785356e+00
2.223255348368785356e+00
2.223255348368785356e+00
2.230568071535386387e+00
2.230568071535386387e+00
2.271256813257240381e+00
2.271256813257240381e+00
2.303695303201391820e+00
2.303695303201391820e+00
2.219505233924375265e+00
2.219505233924375265e+00
2.078688436536759720e+00
2.078688436536759720e+00
2.029186925870540392e+00
2.029186925870540392e+00
2.058250312814721816e+00
2.058250312814721816e+00
1.997123447370830363e+00
1.997123447370830363e+00
1.997123447370830363e+00
2.000686056093020415e+00
2.000686056093020415e+00
2.459137546922208095e+00
2.459137546922208095e+00
2.614767296365245741e+00
2.614767296365245741e+00
2.592454115421003014e+00
2.592454115421003014e+00
2.527577135532700581e+00
2.527577135532700581e+00
2.486138370921964214e+00
2.486138370921964214e+00
2.454824915311136557e+00
2.454824915311136557e+00
2.368384777367473326e+00
2.368384777367473326e+00
2.334258735923337547e+00
2.334258735923337547e+00
2.190629352702413879e+00
2.190629352702413879e+00
2.120502212591937052e+00
2.120502212591937052e+00
2.120502212591937052e+00
2.145627979369487459e+00
2.145627979369487459e+00
2.230755577257606870e+00
2.230755577257606870e+00
2.182004089480269915e+00
2.182004089480269915e+00
2.171691274758141166e+00
2.171691274758141166e+00
2.491013519699698087e+00
2.491013519699698087e+00
2.296945097201452679e+00
2.296945097201452679e+00
2.212567522202215642e+00
2.212567522202215642e+00
2.192316904202398664e+00
2.192316904202398664e+00
2.132502578814050587e+00
2.132502578814050587e+00
2.132502578814050587e+00
2.142815393536179780e+00
2.142815393536179780e+00
2.172628803369243577e+00
2.172628803369243577e+00
2.318883266701254442e+00
2.318883266701254442e+00
2.254943815424054865e+00
2.254943815424054865e+00
2.235818231757560781e+00
2.235818231757560781e+00
2.227005462813196335e+00
2.227005462813196335e+00
2.259631458479567812e+00
2.259631458479567812e+00
2.259631458479567812e+00
2.143190404980620745e+00
2.143190404980620745e+00
2.263944090090640238e+00
2.263944090090640238e+00
2.420136356700338887e+00
2.420136356700338887e+00
2.185191686758019003e+00
2.185191686758019003e+00
2.217067659535508550e+00
2.217067659535508550e+00
2.262819055757316900e+00
2.262819055757316900e+00
2.317008209479048730e+00
2.317008209479048730e+00
2.360322031311990809e+00
2.360322031311990809e+00
2.360322031311990809e+00
2.401760795922727176e+00
2.401760795922727176e+00
2.483700796533097499e+00
2.483700796533097499e+00
2.342321481978820064e+00
2.342321481978820064e+00
2.299382671590319838e+00
2.299382671590319838e+00
2.289819879757073018e+00
2.289819879757073018e+00
2.320383312479018745e+00
2.320383312479018745e+00
2.241255897701956545e+00
2.241255897701956545e+00
2.394073061311685624e+00
2.394073061311685624e+00
2.394073061311685624e+00
2.377947569200720146e+00
2.377947569200720146e+00
2.183504135258034218e+00
2.183504135258034218e+00
2.151815668202764709e+00
2.151815668202764709e+00
2.126314889980773337e+00
2.126314889980773337e+00
2.117877132480849411e+00
2.117877132480849411e+00
2.148065553758354618e+00
2.148065553758354618e+00
2.224005371257667729e+00
2.224005371257667729e+00
2.255131321146275347e+00
2.255131321146275347e+00
2.255131321146275347e+00
2.249131138035218136e+00
2.249131138035218136e+00
2.291507431257057803e+00
2.291507431257057803e+00
2.338196356089969008e+00
2.338196356089969008e+00
2.246131046479689974e+00
2.246131046479689974e+00
2.202442213202307375e+00
2.202442213202307375e+00
2.509014069032868388e+00
2.509014069032868388e+00
2.378885097811823002e+00
2.378885097811823002e+00
2.305007843256935196e+00
2.305007843256935196e+00
2.305007843256935196e+00
2.313633106479079604e+00
2.313633106479079604e+00
2.269944273201696561e+00
2.269944273201696561e+00
2.191754387035737217e+00
2.191754387035737217e+00
2.147503036591693171e+00
2.147503036591693171e+00
2.251943723868526259e+00
2.251943723868526259e+00
2.214442579424420909e+00
2.214442579424420909e+00
2.239943357646412725e+00
2.239943357646412725e+00
2.239943357646412725e+00
2.267506698812830290e+00
2.267506698812830290e+00
2.356196905423139309e+00
2.356196905423139309e+00
2.274631916257209951e+00
2.274631916257209951e+00
2.323008392590105942e+00
2.323008392590105942e+00
2.570328440198980768e+00
2.570328440198980768e+00
2.339321390423291458e+00
2.339321390423291458e+00
2.239005829035309869e+00
2.239005829035309869e+00
2.217255165257729033e+00
2.217255165257729033e+00
2.217255165257729033e+00
2.193629444257942485e+00
2.193629444257942485e+00
2.206004821924497428e+00
2.206004821924497428e+00
2.211442487868892304e+00
2.211442487868892304e+00
2.297320108645893644e+00
2.297320108645893644e+00
2.226630451368755370e+00
2.226630451368755370e+00
2.321133335367900674e+00
2.321133335367900674e+00
2.379072603534043484e+00
2.379072603534043484e+00
2.345884090701010116e+00
2.345884090701010116e+00
2.345884090701010116e+00
2.193254432813501520e+00
2.193254432813501520e+00
2.281944639423810539e+00
2.281944639423810539e+00
2.372322397534104788e+00
2.372322397534104788e+00
2.155003265480513797e+00
2.155003265480513797e+00
2.152378185369426600e+00
2.152378185369426600e+00
2.206567339091158875e+00
2.206567339091158875e+00
2.257756401257362544e+00
2.257756401257362544e+00
2.298257637256996500e+00
2.298257637256996500e+00
2.298257637256996500e+00
2.367634754478591397e+00
2.367634754478591397e+00
2.413573656422620228e+00
2.413573656422620228e+00
2.358821985534226506e+00
2.358821985534226506e+00
2.349821710867641578e+00
2.349821710867641578e+00
2.335758781701101849e+00
2.335758781701101849e+00
2.244255989257484707e+00
2.244255989257484707e+00
2.118439649647511303e+00
2.118439649647511303e+00
2.336133793145542814e+00
2.336133793145542814e+00
2.265631641590625023e+00
2.265631641590625023e+00
2.265631641590625023e+00
2.092001342814417075e+00
2.092001342814417075e+00
2.124064821314127105e+00
2.124064821314127105e+00
2.163066011535996758e+00
2.163066011535996758e+00
2.218755211035493335e+00
2.218755211035493335e+00
2.284382213812677254e+00
2.284382213812677254e+00
2.411511093478194478e+00
2.411511093478194478e+00
2.420698873867000778e+00
2.420698873867000778e+00
2.408135990478225352e+00
2.408135990478225352e+00
2.408135990478225352e+00
2.353009308145390222e+00
2.353009308145390222e+00
2.327883541367839371e+00
2.327883541367839371e+00
2.195129490035706787e+00
2.195129490035706787e+00
2.136252693258461566e+00
2.136252693258461566e+00
2.454637409588916075e+00
2.454637409588916075e+00
2.301445234534745587e+00
2.301445234534745587e+00
2.230755577257606870e+00
2.230755577257606870e+00
2.227942991424298746e+00
2.227942991424298746e+00
2.227942991424298746e+00
2.239755851924192243e+00
2.239755851924192243e+00
2.254193792535172935e+00
2.254193792535172935e+00
2.257568895535142062e+00
2.257568895535142062e+00
2.372697408978545752e+00
2.372697408978545752e+00
2.258318918424023991e+00
2.258318918424023991e+00
2.225505417035432032e+00
2.225505417035432032e+00
2.243880977813043742e+00
2.243880977813043742e+00
2.292819971312600735e+00
2.292819971312600735e+00
2.292819971312600735e+00
2.185941709646900932e+00
2.185941709646900932e+00
2.273881893368328022e+00
2.273881893368328022e+00
2.515014252143925599e+00
2.515014252143925599e+00
2.338571367534409973e+00
2.338571367534409973e+00
2.308382946256904766e+00
2.308382946256904766e+00
2.262069032868434526e+00
2.262069032868434526e+00
2.202629718924527857e+00
2.202629718924527857e+00
2.205254799035615054e+00
2.205254799035615054e+00
2.241068391979735619e+00
2.241068391979735619e+00
2.241068391979735619e+00
2.344571550645466296e+00
2.344571550645466296e+00
2.260381481368449741e+00
2.260381481368449741e+00
2.257943906979583026e+00
2.257943906979583026e+00
2.257193884090700653e+00
2.257193884090700653e+00
2.223630359813226764e+00
2.223630359813226764e+00
2.053750175481429796e+00
2.053750175481429796e+00
2.201129673146763555e+00
2.201129673146763555e+00
2.242943449201941331e+00
2.242943449201941331e+00
2.242943449201941331e+00
2.067250587481307633e+00
2.067250587481307633e+00
2.071750724814600098e+00
2.071750724814600098e+00
2.074375804925687294e+00
2.074375804925687294e+00
2.122564775536362802e+00
2.122564775536362802e+00
2.266006653035065987e+00
2.266006653035065987e+00
2.500951322977385871e+00
2.500951322977385871e+00
2.645330729087191468e+00
2.645330729087191468e+00
2.581016266365550926e+00
2.581016266365550926e+00
2.581016266365550926e+00
2.498888760032960121e+00
2.498888760032960121e+00
2.475075533310953091e+00
2.475075533310953091e+00
2.375509994811853431e+00
2.375509994811853431e+00
2.215567613757744247e+00
2.215567613757744247e+00
2.412636127811517817e+00
2.412636127811517817e+00
2.249693655201880027e+00
2.249693655201880027e+00
2.104189214758751536e+00
2.104189214758751536e+00
2.104189214758751536e+00
2.115252052369762659e+00
2.115252052369762659e+00
2.131190038758506766e+00
2.131190038758506766e+00
2.150690633869442259e+00
2.150690633869442259e+00
2.215755119479964730e+00
2.215755119479964730e+00
2.381322672200689716e+00
2.381322672200689716e+00
2.369134800256355700e+00
2.369134800256355700e+00
2.341571459089938134e+00
2.341571459089938134e+00
2.322633381145664977e+00
2.322633381145664977e+00
2.322633381145664977e+00
2.332571184423352761e+00
2.332571184423352761e+00
2.197192052980132537e+00
2.197192052980132537e+00
2.171128757591479275e+00
2.171128757591479275e+00
2.460637592699972398e+00
2.460637592699972398e+00
2.282132145146031021e+00
2.282132145146031021e+00
2.230380565813165905e+00
2.230380565813165905e+00
2.230193060090945423e+00
2.230193060090945423e+00
2.188754295480208611e+00
2.188754295480208611e+00
2.188754295480208611e+00
2.210879970702230857e+00
2.210879970702230857e+00
2.229630542924283532e+00
2.229630542924283532e+00
2.321320841090121156e+00
2.321320841090121156e+00
2.238818323313089387e+00
2.238818323313089387e+00
2.242193426313058957e+00
2.242193426313058957e+00
2.261694021423993561e+00
2.261694021423993561e+00
2.290382396923734465e+00
2.290382396923734465e+00
2.193441938535722002e+00
2.193441938535722002e+00
2.347196630756553937e+00
2.347196630756553937e+00
2.542765099032563203e+00
2.542765099032563203e+00
2.542765099032563203e+00
2.336133793145542814e+00
2.336133793145542814e+00
2.235630726035340299e+00
2.235630726035340299e+00
2.182941618091372327e+00
2.182941618091372327e+00
2.199254615924558287e+00
2.199254615924558287e+00
2.198317087313455875e+00
2.198317087313455875e+00
2.246506057924130939e+00
2.246506057924130939e+00
2.325445966978973100e+00
2.325445966978973100e+00
2.246131046479689974e+00
2.246131046479689974e+00
2.246131046479689974e+00
2.244443494979705633e+00
2.244443494979705633e+00
2.273881893368328022e+00
2.273881893368328022e+00
2.233943174535355514e+00
2.233943174535355514e+00
2.153503219702749494e+00
2.153503219702749494e+00
2.370634846034120002e+00
2.370634846034120002e+00
2.365759697256386129e+00
2.365759697256386129e+00
2.214255073702200427e+00
2.214255073702200427e+00
2.207129856257820322e+00
2.207129856257820322e+00
2.207129856257820322e+00
2.192691915646840073e+00
2.192691915646840073e+00
2.215005096591082356e+00
2.215005096591082356e+00
2.252881252479629115e+00
2.252881252479629115e+00
2.316070680867946319e+00
2.316070680867946319e+00
2.261694021423993561e+00
2.261694021423993561e+00
2.212005005035553751e+00
2.212005005035553751e+00
2.238818323313089387e+00
2.238818323313089387e+00
2.303132786034730373e+00
2.303132786034730373e+00
2.303132786034730373e+00
2.254943815424054865e+00
2.254943815424054865e+00
2.230380565813165905e+00
2.230380565813165905e+00
2.558140568254646752e+00
2.558140568254646752e+00
2.425011505478072316e+00
2.425011505478072316e+00
2.354884365367595489e+00
2.354884365367595489e+00
2.335946287423322332e+00
2.335946287423322332e+00
2.313258095034638639e+00
2.313258095034638639e+00
2.305945371868038052e+00
2.305945371868038052e+00
2.305945371868038052e+00
2.321133335367900674e+00
2.321133335367900674e+00
2.412448622089296890e+00
2.412448622089296890e+00
2.308757957701345731e+00
2.308757957701345731e+00
2.261694021423993561e+00
2.261694021423993561e+00
2.248568620868556689e+00
2.248568620868556689e+00
2.267694204535050773e+00
2.267694204535050773e+00
2.121064729758598499e+00
2.121064729758598499e+00
2.159878414258247670e+00
2.159878414258247670e+00
2.159878414258247670e+00
2.435699331644642474e+00
2.435699331644642474e+00
2.254381298257393418e+00
2.254381298257393418e+00
2.220067751091036712e+00
2.220067751091036712e+00
2.204879787591174090e+00
2.204879787591174090e+00
2.190629352702413879e+00
2.190629352702413879e+00
2.213505050813318054e+00
2.213505050813318054e+00
2.235255714590899334e+00
2.235255714590899334e+00
2.235255714590899334e+00
2.317570726645710621e+00
2.317570726645710621e+00
2.203942258980071234e+00
2.203942258980071234e+00
2.209192419202246516e+00
2.209192419202246516e+00
2.209942442091128445e+00
2.209942442091128445e+00
2.179003997924741309e+00
2.179003997924741309e+00
2.082438550981169811e+00
2.082438550981169811e+00
2.282132145146031021e+00
2.282132145146031021e+00
2.414511185033723084e+00
2.414511185033723084e+00
2.261881527146214044e+00
2.261881527146214044e+00
2.261881527146214044e+00
2.250818689535202921e+00
2.250818689535202921e+00
2.266194158757286470e+00
2.266194158757286470e+00
2.269194250312814631e+00
2.269194250312814631e+00
2.310070497756889552e+00
2.310070497756889552e+00
2.397635670033875677e+00
2.397635670033875677e+00
2.431574205755790974e+00
2.431574205755790974e+00
2.332196172978911797e+00
2.332196172978911797e+00
2.297320108645893644e+00
2.297320108645893644e+00
2.297320108645893644e+00
2.315133152256843907e+00
2.315133152256843907e+00
2.237693288979766049e+00
2.237693288979766049e+00
2.145815485091708386e+00
2.145815485091708386e+00
2.403635853144932444e+00
2.403635853144932444e+00
2.365947202978606612e+00
2.365947202978606612e+00
2.261131504257332114e+00
2.261131504257332114e+00
2.240318369090853690e+00
2.240318369090853690e+00
2.204879787591174090e+00
2.204879787591174090e+00
2.204879787591174090e+00
2.209567430646687480e+00
2.209567430646687480e+00
2.244443494979705633e+00
2.244443494979705633e+00
2.329758598590044638e+00
2.329758598590044638e+00
2.292819971312600735e+00
2.292819971312600735e+00
2.240880886257515137e+00
2.240880886257515137e+00
2.238068300424207457e+00
2.238068300424207457e+00
2.284757225257118218e+00
2.284757225257118218e+00
2.174691366313669327e+00
2.174691366313669327e+00
2.135315164647358710e+00
2.135315164647358710e+00
2.135315164647358710e+00
2.465325235755485789e+00
2.465325235755485789e+00
2.282882168034912951e+00
2.282882168034912951e+00
2.181629078035828950e+00
2.181629078035828950e+00
2.188004272591326682e+00
2.188004272591326682e+00
2.217442670979949515e+00
2.217442670979949515e+00
2.249131138035218136e+00
2.249131138035218136e+00
2.271819330423901828e+00
2.271819330423901828e+00
2.399323221533860018e+00
2.399323221533860018e+00
2.399323221533860018e+00
2.298632648701437464e+00
2.298632648701437464e+00
2.288882351145970162e+00
2.288882351145970162e+00
2.287007293923764895e+00
2.287007293923764895e+00
2.291132419812616394e+00
2.291132419812616394e+00
2.150690633869442259e+00
2.150690633869442259e+00
2.245193517868587563e+00
2.245193517868587563e+00
2.474888027588732609e+00
2.474888027588732609e+00
2.474888027588732609e+00
2.295820062868129341e+00
2.295820062868129341e+00
2.255506332590716312e+00
2.255506332590716312e+00
2.233755668813135031e+00
2.233755668813135031e+00
2.243318460646382295e+00
2.243318460646382295e+00
2.278569536423841413e+00
2.278569536423841413e+00
2.306320383312479017e+00
2.306320383312479017e+00
2.346071596423230599e+00
2.346071596423230599e+00
2.248756126590777171e+00
2.248756126590777171e+00
2.248756126590777171e+00
2.259256447035126847e+00
2.259256447035126847e+00
2.279507065034943825e+00
2.279507065034943825e+00
2.238818323313089387e+00
2.238818323313089387e+00
2.149378093813898438e+00
2.149378093813898438e+00
2.343071504867702437e+00
2.343071504867702437e+00
2.394260567033906106e+00
2.394260567033906106e+00
2.248756126590777171e+00
2.248756126590777171e+00
2.223255348368785356e+00
2.223255348368785356e+00
2.223255348368785356e+00
2.198879604480116878e+00
2.198879604480116878e+00
2.205067293313394572e+00
2.205067293313394572e+00
2.239380840479750834e+00
2.239380840479750834e+00
2.318133243812372069e+00
2.318133243812372069e+00
2.323008392590105942e+00
2.323008392590105942e+00
2.264319101535081202e+00
2.264319101535081202e+00
2.279319559312723342e+00
2.279319559312723342e+00
2.309132969145787140e+00
2.309132969145787140e+00
2.309132969145787140e+00
2.223817865535447247e+00
2.223817865535447247e+00
2.172628803369243577e+00
2.172628803369243577e+00
2.485200842310861358e+00
2.485200842310861358e+00
2.371009857478560967e+00
2.371009857478560967e+00
2.278944547868282378e+00
2.278944547868282378e+00
2.254193792535172935e+00
2.254193792535172935e+00
2.211817499313333268e+00
2.211817499313333268e+00
2.211254982146671821e+00
2.211254982146671821e+00
2.211254982146671821e+00
2.232443128757591655e+00
2.232443128757591655e+00
2.330696127201147494e+00
2.330696127201147494e+00
2.255506332590716312e+00
2.255506332590716312e+00
2.242380932035279439e+00
2.242380932035279439e+00
2.222505325479903426e+00
2.222505325479903426e+00
2.266569170201727434e+00
2.266569170201727434e+00
2.161378460036011973e+00
2.161378460036011973e+00
2.200379650257881181e+00
2.200379650257881181e+00
2.200379650257881181e+00
2.494951139866329104e+00
2.494951139866329104e+00
2.342883999145481511e+00
2.342883999145481511e+00
2.333696218756676100e+00
2.333696218756676100e+00
2.362197088534196077e+00
2.362197088534196077e+00
2.384322763756218322e+00
2.384322763756218322e+00
2.376822534867396808e+00
2.376822534867396808e+00
2.320008301034577336e+00
2.320008301034577336e+00
2.317570726645710621e+00
2.317570726645710621e+00
2.317570726645710621e+00
2.150690633869442259e+00
2.150690633869442259e+00
2.110564409314249268e+00
2.110564409314249268e+00
2.118627155369731785e+00
2.118627155369731785e+00
2.167191137424848257e+00
2.167191137424848257e+00
2.084688619647816488e+00
2.084688619647816488e+00
2.264694112979522167e+00
2.264694112979522167e+00
2.429886654255806189e+00
2.429886654255806189e+00
2.429886654255806189e+00
2.276319467757194737e+00
2.276319467757194737e+00
2.266944181646168399e+00
2.266944181646168399e+00
2.258318918424023991e+00
2.258318918424023991e+00
2.258693929868464956e+00
2.258693929868464956e+00
2.279507065034943825e+00
2.279507065034943825e+00
2.332571184423352761e+00
2.332571184423352761e+00
2.353759331034272151e+00
2.353759331034272151e+00
2.273694387646107540e+00
2.273694387646107540e+00
2.269006744590594149e+00
2.269006744590594149e+00
2.269006744590594149e+00
2.269569261757255596e+00
2.269569261757255596e+00
2.210317453535568966e+00
2.210317453535568966e+00
2.134377636036255854e+00
2.134377636036255854e+00
2.390322946867275089e+00
2.390322946867275089e+00
2.381322672200689716e+00
2.381322672200689716e+00
2.269006744590594149e+00
2.269006744590594149e+00
2.265819147312845505e+00
2.265819147312845505e+00
2.242380932035279439e+00
2.242380932035279439e+00
2.242380932035279439e+00
2.248943632312997654e+00
2.248943632312997654e+00
2.274256904812768987e+00
2.274256904812768987e+00
2.355259376812036454e+00
2.355259376812036454e+00
2.311758049256874337e+00
2.311758049256874337e+00
2.258318918424023991e+00
2.258318918424023991e+00
2.264319101535081202e+00
2.264319101535081202e+00
2.283819696646015807e+00
2.283819696646015807e+00
2.194566972869045340e+00
2.194566972869045340e+00
2.194566972869045340e+00
2.164191045869319652e+00
2.164191045869319652e+00
2.478825647755364070e+00
2.478825647755364070e+00
2.318133243812372069e+00
2.318133243812372069e+00
2.229818048646504014e+00
2.229818048646504014e+00
2.239380840479750834e+00
2.239380840479750834e+00
2.226067934202093479e+00
2.226067934202093479e+00
2.242380932035279439e+00
2.242380932035279439e+00
2.252693746757408633e+00
2.252693746757408633e+00
2.252693746757408633e+00
2.373072420422986717e+00
2.373072420422986717e+00
2.266944181646168399e+00
2.266944181646168399e+00
2.244631000701926116e+00
2.244631000701926116e+00
2.273694387646107540e+00
2.273694387646107540e+00
2.310070497756889552e+00
2.310070497756889552e+00
2.190066835535752432e+00
2.190066835535752432e+00
2.266944181646168399e+00
2.266944181646168399e+00
2.493451094088564801e+00
2.493451094088564801e+00
2.493451094088564801e+00
2.303132786034730373e+00
2.303132786034730373e+00
2.257943906979583026e+00
2.257943906979583026e+00
2.240130863368633207e+00
2.240130863368633207e+00
2.227005462813196335e+00
2.227005462813196335e+00
2.249506149479659545e+00
2.249506149479659545e+00
2.271444318979460864e+00
2.271444318979460864e+00
2.352259285256507848e+00
2.352259285256507848e+00
2.232630634479812137e+00
2.232630634479812137e+00
2.232630634479812137e+00
2.211067476424451339e+00
2.211067476424451339e+00
2.215942625202185212e+00
2.215942625202185212e+00
2.212005005035553751e+00
2.212005005035553751e+00
2.125377361369670925e+00
2.125377361369670925e+00
2.305382854701376161e+00
2.305382854701376161e+00
2.392010498367259874e+00
2.392010498367259874e+00
2.243693472090823260e+00
2.243693472090823260e+00
2.234880703146458369e+00
2.234880703146458369e+00
2.234880703146458369e+00
2.231130588702047834e+00
2.231130588702047834e+00
2.232255623035371173e+00
2.232255623035371173e+00
2.272944364757225166e+00
2.272944364757225166e+00
2.340258919034394314e+00
2.340258919034394314e+00
2.364447157200842309e+00
2.364447157200842309e+00
2.303132786034730373e+00
2.303132786034730373e+00
2.294320017090365038e+00
2.294320017090365038e+00
2.294320017090365038e+00
2.287944822534867306e+00
2.287944822534867306e+00
2.219880245368816230e+00
2.219880245368816230e+00
2.157440839869380955e+00
2.157440839869380955e+00
2.441324503311258276e+00
2.441324503311258276e+00
2.363322122867518971e+00
2.363322122867518971e+00
2.258506424146244473e+00
2.258506424146244473e+00
2.251943723868526259e+00
2.251943723868526259e+00
2.233193151646474028e+00
2.233193151646474028e+00
2.233193151646474028e+00
2.226255439924313961e+00
2.226255439924313961e+00
2.249506149479659545e+00
2.249506149479659545e+00
2.345321573534348669e+00
2.345321573534348669e+00
2.291319925534837321e+00
2.291319925534837321e+00
2.255506332590716312e+00
2.255506332590716312e+00
2.264319101535081202e+00
2.264319101535081202e+00
2.281007110812707683e+00
2.281007110812707683e+00
2.172816309091464060e+00
2.172816309091464060e+00
2.172816309091464060e+00
2.187816766869105756e+00
2.187816766869105756e+00
2.491576036866359534e+00
2.491576036866359534e+00
2.317383220923490139e+00
2.317383220923490139e+00
2.244631000701926116e+00
2.244631000701926116e+00
2.238630817590868904e+00
2.238630817590868904e+00
2.221567796868801015e+00
2.221567796868801015e+00
2.232068117313150690e+00
2.232068117313150690e+00
2.258318918424023991e+00
2.258318918424023991e+00
2.258318918424023991e+00
2.371572374645222414e+00
2.371572374645222414e+00
2.260756492812891150e+00
2.260756492812891150e+00
2.245756035035248566e+00
2.245756035035248566e+00
2.257568895535142062e+00
2.257568895535142062e+00
2.273506881923887057e+00
2.273506881923887057e+00
2.155753288369396170e+00
2.155753288369396170e+00
2.269006744590594149e+00
2.269006744590594149e+00
2.452012329477828434e+00
2.452012329477828434e+00
2.275381939146092325e+00
2.275381939146092325e+00
2.257006378368480615e+00
2.257006378368480615e+00
2.257006378368480615e+00
2.232630634479812137e+00
2.232630634479812137e+00
2.233380657368694511e+00
2.233380657368694511e+00
2.267506698812830290e+00
2.267506698812830290e+00
2.304257820368053267e+00
2.304257820368053267e+00
2.346634113589892490e+00
2.346634113589892490e+00
2.233755668813135031e+00
2.233755668813135031e+00
2.216130130924405695e+00
2.216130130924405695e+00
2.247256080813012868e+00
2.247256080813012868e+00
2.218942716757713818e+00
2.218942716757713818e+00
2.218942716757713818e+00
2.146002990813928868e+00
2.146002990813928868e+00
2.377010040589617734e+00
2.377010040589617734e+00
2.401385784478286212e+00
2.401385784478286212e+00
2.256631366924039650e+00
2.256631366924039650e+00
2.260006469924008776e+00
2.260006469924008776e+00
2.236193243202001746e+00
2.236193243202001746e+00
2.233005645924253102e+00
2.233005645924253102e+00
2.233005645924253102e+00
2.260193975646229259e+00
2.260193975646229259e+00
2.332758690145573244e+00
2.332758690145573244e+00
2.317570726645710621e+00
2.317570726645710621e+00
2.263944090090640238e+00
2.263944090090640238e+00
2.253818781090731527e+00
2.253818781090731527e+00
2.270506790368358452e+00
2.270506790368358452e+00
2.192504409924619146e+00
2.192504409924619146e+00
2.159503402813806705e+00
2.159503402813806705e+00
2.159503402813806705e+00
2.468512833033234433e+00
2.468512833033234433e+00
2.339883907589953349e+00
2.339883907589953349e+00
2.250631183812982439e+00
2.250631183812982439e+00
2.241630909146397510e+00
2.241630909146397510e+00
2.231318094424268317e+00
2.231318094424268317e+00
2.246693563646351421e+00
2.246693563646351421e+00
2.252506241035188150e+00
2.252506241035188150e+00
2.363697134311959935e+00
2.363697134311959935e+00
2.286444776757103448e+00
2.286444776757103448e+00
2.268631733146153184e+00
2.268631733146153184e+00
2.253631275368511044e+00
2.253631275368511044e+00
2.253631275368511044e+00
2.264131595812860720e+00
2.264131595812860720e+00
2.155565782647175688e+00
2.155565782647175688e+00
2.203754753257850751e+00
2.203754753257850751e+00
2.473575487533188788e+00
2.473575487533188788e+00
2.285319742423780109e+00
2.285319742423780109e+00
2.251943723868526259e+00
2.251943723868526259e+00
2.237318277535325084e+00
2.237318277535325084e+00
2.224380382702108694e+00
2.224380382702108694e+00
2.224380382702108694e+00
2.274256904812768987e+00
2.274256904812768987e+00
2.285132236701559627e+00
2.285132236701559627e+00
2.395010589922788480e+00
2.395010589922788480e+00
2.276319467757194737e+00
2.276319467757194737e+00
2.253068758201849597e+00
2.253068758201849597e+00
2.272756859035004684e+00
2.272756859035004684e+00
2.252881252479629115e+00
2.252881252479629115e+00
2.142440382091738371e+00
2.142440382091738371e+00
2.142440382091738371e+00
2.308570451979125249e+00
2.308570451979125249e+00
2.414698690755943566e+00
2.414698690755943566e+00
2.240505874813074172e+00
2.240505874813074172e+00
2.240880886257515137e+00
2.240880886257515137e+00
2.230193060090945423e+00
2.230193060090945423e+00
2.233380657368694511e+00
2.233380657368694511e+00
2.258131412701803509e+00
2.258131412701803509e+00
2.258131412701803509e+00
2.326946012756737403e+00
2.326946012756737403e+00
2.371009857478560967e+00
2.371009857478560967e+00
2.279694570757164307e+00
2.279694570757164307e+00
2.262444044312875935e+00
2.262444044312875935e+00
2.283444685201574842e+00
2.283444685201574842e+00
2.212005005035553751e+00
2.212005005035553751e+00
2.138127750480666833e+00
2.138127750480666833e+00
2.404760887478255782e+00
2.404760887478255782e+00
2.353946836756492633e+00
2.353946836756492633e+00
2.243130954924161813e+00
2.243130954924161813e+00
2.235068208868678852e+00
2.235068208868678852e+00
2.223442854091006282e+00
2.223442854091006282e+00
2.223442854091006282e+00
2.232068117313150690e+00
2.232068117313150690e+00
2.248381115146336207e+00
2.248381115146336207e+00
2.348884182256538722e+00
2.348884182256538722e+00
2.292444959868159771e+00
2.292444959868159771e+00
2.248943632312997654e+00
2.248943632312997654e+00
2.243693472090823260e+00
2.243693472090823260e+00
2.267131687368389326e+00
2.267131687368389326e+00
2.164191045869319652e+00
2.164191045869319652e+00
2.164191045869319652e+00
2.171878780480361648e+00
2.171878780480361648e+00
2.503201391644032547e+00
2.503201391644032547e+00
2.324508438367870244e+00
2.324508438367870244e+00
2.256818872646260132e+00
2.256818872646260132e+00
2.258318918424023991e+00
2.258318918424023991e+00
2.236380748924222672e+00
2.236380748924222672e+00
2.244818506424146598e+00
2.244818506424146598e+00
2.259443952757347329e+00
2.259443952757347329e+00
2.259443952757347329e+00
2.375509994811853431e+00
2.375509994811853431e+00
2.270131778923917043e+00
2.270131778923917043e+00
2.260006469924008776e+00
2.260006469924008776e+00
2.262631550035096417e+00
2.262631550035096417e+00
2.268444227423932702e+00
2.268444227423932702e+00
2.137565233314004942e+00
2.137565233314004942e+00
2.248381115146336207e+00
2.248381115146336207e+00
2.456699972533341381e+00
2.456699972533341381e+00
2.456699972533341381e+00
2.274069399090548504e+00
2.274069399090548504e+00
2.249318643757439062e+00
2.249318643757439062e+00
2.239005829035309869e+00
2.239005829035309869e+00
2.224380382702108694e+00
2.224380382702108694e+00
2.247443586535233351e+00
2.247443586535233351e+00
2.288507339701529197e+00
2.288507339701529197e+00
2.359572008423108880e+00
2.359572008423108880e+00
2.257193884090700653e+00
2.257193884090700653e+00
2.257193884090700653e+00
2.264881618701742649e+00
2.264881618701742649e+00
2.300882717368083696e+00
2.300882717368083696e+00
2.257006378368480615e+00
2.257006378368480615e+00
2.168691183202612560e+00
2.168691183202612560e+00
2.376635029145176325e+00
2.376635029145176325e+00
2.421636402478102745e+00
2.421636402478102745e+00
2.263381572923978347e+00
2.263381572923978347e+00
2.251006195257423848e+00
2.251006195257423848e+00
2.251006195257423848e+00
2.231318094424268317e+00
2.231318094424268317e+00
2.227192968535416817e+00
2.227192968535416817e+00
2.248756126590777171e+00
2.248756126590777171e+00
2.322820886867885459e+00
2.322820886867885459e+00
2.317195715201269657e+00
2.317195715201269657e+00
2.258693929868464956e+00
2.258693929868464956e+00
2.248193609424115724e+00
2.248193609424115724e+00
2.271069307535019899e+00
2.271069307535019899e+00
2.271069307535019899e+00
2.182566606646931362e+00
2.182566606646931362e+00
2.122377269814142320e+00
2.122377269814142320e+00
2.446762169255653596e+00
2.446762169255653596e+00
2.342321481978820064e+00
2.342321481978820064e+00
2.246881069368571904e+00
2.246881069368571904e+00
2.245381023590808045e+00
2.245381023590808045e+00
2.226255439924313961e+00
2.226255439924313961e+00
2.240880886257515137e+00
2.240880886257515137e+00
2.240880886257515137e+00
2.267319193090609808e+00
2.267319193090609808e+00
2.373259926145207199e+00
2.373259926145207199e+00
2.286819788201544412e+00
2.286819788201544412e+00
2.254381298257393418e+00
2.254381298257393418e+00
2.246693563646351421e+00
2.246693563646351421e+00
2.267881710257271255e+00
2.267881710257271255e+00
2.144690450758385047e+00
2.144690450758385047e+00
2.144690450758385047e+00
2.183504135258034218e+00
2.183504135258034218e+00
2.483888302255317981e+00
2.483888302255317981e+00
2.311945554979094819e+00
2.311945554979094819e+00
2.270319284646137969e+00
2.270319284646137969e+00
2.258693929868464956e+00
2.258693929868464956e+00
2.238630817590868904e+00
2.238630817590868904e+00
2.249506149479659545e+00
2.249506149479659545e+00
2.263756584368419311e+00
2.263756584368419311e+00
2.263756584368419311e+00
2.369697317423017147e+00
2.369697317423017147e+00
2.268069215979491737e+00
2.268069215979491737e+00
2.260756492812891150e+00
2.260756492812891150e+00
2.274069399090548504e+00
2.274069399090548504e+00
2.257756401257362544e+00
2.257756401257362544e+00
2.136815210425123013e+00
2.136815210425123013e+00
2.301632740256966070e+00
2.301632740256966070e+00
2.463450178533280521e+00
2.463450178533280521e+00
2.463450178533280521e+00
2.287944822534867306e+00
2.287944822534867306e+00
2.269381756035035114e+00
2.269381756035035114e+00
2.252131229590746742e+00
2.252131229590746742e+00
2.243318460646382295e+00
2.243318460646382295e+00
2.249693655201880027e+00
2.249693655201880027e+00
2.289444868312631609e+00
2.289444868312631609e+00
2.333508713034455617e+00
2.333508713034455617e+00
2.251193700979644330e+00
2.251193700979644330e+00
2.251193700979644330e+00
2.238630817590868904e+00
2.238630817590868904e+00
2.264131595812860720e+00
2.264131595812860720e+00
2.206192327646717910e+00
2.206192327646717910e+00
2.140190313425092139e+00
2.140190313425092139e+00
2.402135807367168141e+00
2.402135807367168141e+00
2.387697866756187448e+00
2.387697866756187448e+00
2.266944181646168399e+00
2.266944181646168399e+00
2.251006195257423848e+00
2.251006195257423848e+00
2.219692739646595747e+00
2.219692739646595747e+00
2.219692739646595747e+00
2.252881252479629115e+00
2.252881252479629115e+00
2.279507065034943825e+00
2.279507065034943825e+00
2.347759147923215384e+00
2.347759147923215384e+00
2.297320108645893644e+00
2.297320108645893644e+00
2.246318552201910457e+00
2.246318552201910457e+00
2.234130680257575996e+00
2.234130680257575996e+00
2.257381389812921579e+00
2.257381389812921579e+00
2.162315988647114828e+00
2.162315988647114828e+00
2.162315988647114828e+00
2.124627338480788552e+00
2.124627338480788552e+00
2.458200018311105683e+00
2.458200018311105683e+00
2.328446058534500818e+00
2.328446058534500818e+00
2.272194341868343237e+00
2.272194341868343237e+00
2.273319376201666131e+00
2.273319376201666131e+00
2.237880794701986531e+00
2.237880794701986531e+00
2.257943906979583026e+00
2.257943906979583026e+00
2.286819788201544412e+00
2.286819788201544412e+00
2.286819788201544412e+00
2.399135715811639535e+00
2.399135715811639535e+00
2.291507431257057803e+00
2.291507431257057803e+00
2.264506607257301685e+00
2.264506607257301685e+00
2.268256721701712220e+00
2.268256721701712220e+00
2.293194982757042144e+00
2.293194982757042144e+00
2.152190679647205673e+00
2.152190679647205673e+00
2.236755760368663637e+00
2.236755760368663637e+00
2.483138279366435608e+00
2.483138279366435608e+00
2.483138279366435608e+00
2.303132786034730373e+00
