2.282319650868251504e+00
2.282319650868251504e+00
2.316258186590166801e+00
2.316258186590166801e+00
2.316258186590166801e+00
2.387510361033966966e+00
2.387510361033966966e+00
2.387510361033966966e+00
2.246506057924130939e+00
2.246506057924130939e+00
2.246506057924130939e+00
2.246506057924130939e+00
2.212755027924436124e+00
2.212755027924436124e+00
2.212755027924436124e+00
2.207692373424482213e+00
2.207692373424482213e+00
2.207692373424482213e+00
2.189316812646870059e+00
2.189316812646870059e+00
2.189316812646870059e+00
2.189316812646870059e+00
2.077375896481215900e+00
2.077375896481215900e+00
2.077375896481215900e+00
2.279319559312723342e+00
2.279319559312723342e+00
2.279319559312723342e+00
2.279319559312723342e+00
2.393885555589465142e+00
2.393885555589465142e+00
2.393885555589465142e+00
2.284007202368236289e+00
2.284007202368236289e+00
2.284007202368236289e+00
2.289444868312631609e+00
2.289444868312631609e+00
2.289444868312631609e+00
2.289444868312631609e+00
2.293194982757042144e+00
2.293194982757042144e+00
2.293194982757042144e+00
2.282507156590471986e+00
2.282507156590471986e+00
2.282507156590471986e+00
2.287007293923764895e+00
2.287007293923764895e+00
2.287007293923764895e+00
2.287007293923764895e+00
2.355634388256477418e+00
2.355634388256477418e+00
2.355634388256477418e+00
2.360884548478652700e+00
2.360884548478652700e+00
2.360884548478652700e+00
2.360884548478652700e+00
2.261506515701773079e+00
2.261506515701773079e+00
2.261506515701773079e+00
2.226630451368755370e+00
2.226630451368755370e+00
2.226630451368755370e+00
2.231505600146489243e+00
2.231505600146489243e+00
2.231505600146489243e+00
2.154065736869411385e+00
2.154065736869411385e+00
2.154065736869411385e+00
2.154065736869411385e+00
2.092563859981078966e+00
2.092563859981078966e+00
2.092563859981078966e+00
2.428386608478041886e+00
2.428386608478041886e+00
2.428386608478041886e+00
2.335946287423322332e+00
2.335946287423322332e+00
2.335946287423322332e+00
2.335946287423322332e+00
2.259068941312906365e+00
2.259068941312906365e+00
2.259068941312906365e+00
2.257568895535142062e+00
2.257568895535142062e+00
2.257568895535142062e+00
2.257568895535142062e+00
2.250068666646320992e+00
2.250068666646320992e+00
2.265444135868404540e+00
2.268256721701712220e+00
2.296570085757011714e+00
2.296570085757011714e+00
2.296570085757011714e+00
2.296570085757011714e+00
2.411886104922635443e+00
2.411886104922635443e+00
2.411886104922635443e+00
2.260943998535111632e+00
2.260943998535111632e+00
2.260943998535111632e+00
2.249318643757439062e+00
2.249318643757439062e+00
2.249318643757439062e+00
2.227942991424298746e+00
2.227942991424298746e+00
2.227942991424298746e+00
2.227942991424298746e+00
2.224192876979888212e+00
2.224192876979888212e+00
2.224192876979888212e+00
2.097251503036591469e+00
2.097251503036591469e+00
2.097251503036591469e+00
2.265069124423963132e+00
2.265069124423963132e+00
2.265069124423963132e+00
2.265069124423963132e+00
2.433449262977995797e+00
2.433449262977995797e+00
2.433449262977995797e+00
2.281569627979369130e+00
2.281569627979369130e+00
2.281569627979369130e+00
2.279319559312723342e+00
2.279319559312723342e+00
2.279319559312723342e+00
2.279319559312723342e+00
2.293757499923703591e+00
2.293757499923703591e+00
2.293757499923703591e+00
2.267881710257271255e+00
2.267881710257271255e+00
2.267881710257271255e+00
2.280257087923826198e+00
2.280257087923826198e+00
2.280257087923826198e+00
2.280257087923826198e+00
2.327696035645618888e+00
2.327696035645618888e+00
2.327696035645618888e+00
2.356571916867580274e+00
2.356571916867580274e+00
2.356571916867580274e+00
2.251568712424085295e+00
2.251568712424085295e+00
2.251568712424085295e+00
2.251568712424085295e+00
2.238818323313089387e+00
2.238818323313089387e+00
2.238818323313089387e+00
2.234318185979796478e+00
2.234318185979796478e+00
2.234318185979796478e+00
2.186129215369121415e+00
2.186129215369121415e+00
2.186129215369121415e+00
2.186129215369121415e+00
2.100251594592120075e+00
2.100251594592120075e+00
2.100251594592120075e+00
2.356571916867580274e+00
2.356571916867580274e+00
2.356571916867580274e+00
2.379635120700704931e+00
2.379635120700704931e+00
2.379635120700704931e+00
2.379635120700704931e+00
2.271444318979460864e+00
2.271444318979460864e+00
2.271444318979460864e+00
2.270881801812799416e+00
2.270881801812799416e+00
2.270881801812799416e+00
2.263569078646198829e+00
2.263569078646198829e+00
2.263569078646198829e+00
2.263569078646198829e+00
2.263756584368419311e+00
2.263756584368419311e+00
2.263756584368419311e+00
2.272944364757225166e+00
2.272944364757225166e+00
2.272944364757225166e+00
2.361822077089755112e+00
2.361822077089755112e+00
2.361822077089755112e+00
2.361822077089755112e+00
2.306132877590258534e+00
2.306132877590258534e+00
2.306132877590258534e+00
2.248568620868556689e+00
2.248568620868556689e+00
2.248568620868556689e+00
2.248568620868556689e+00
2.243130954924161813e+00
2.243130954924161813e+00
2.243130954924161813e+00
2.253256263924070080e+00
2.253256263924070080e+00
2.253256263924070080e+00
2.155940794091616652e+00
2.155940794091616652e+00
2.155940794091616652e+00
2.155940794091616652e+00
2.099689077425458628e+00
2.099689077425458628e+00
2.099689077425458628e+00
2.457637501144443792e+00
2.457637501144443792e+00
2.457637501144443792e+00
2.326758507034516477e+00
2.326758507034516477e+00
2.326758507034516477e+00
2.326758507034516477e+00
2.264881618701742649e+00
2.264881618701742649e+00
2.264881618701742649e+00
2.266006653035065987e+00
2.266006653035065987e+00
2.266006653035065987e+00
2.265444135868404540e+00
2.265444135868404540e+00
2.265444135868404540e+00
2.265444135868404540e+00
2.268631733146153184e+00
2.268631733146153184e+00
2.295820062868129341e+00
2.295820062868129341e+00
2.295820062868129341e+00
2.295820062868129341e+00
2.425761528366954689e+00
2.425761528366954689e+00
2.425761528366954689e+00
2.288882351145970162e+00
2.288882351145970162e+00
2.288882351145970162e+00
2.266381664479506952e+00
2.266381664479506952e+00
2.266381664479506952e+00
2.266381664479506952e+00
2.240505874813074172e+00
2.240505874813074172e+00
2.240505874813074172e+00
2.243505966368602778e+00
2.243505966368602778e+00
2.243505966368602778e+00
2.104564226203192501e+00
2.104564226203192501e+00
2.104564226203192501e+00
2.104564226203192501e+00
2.184629169591357556e+00
2.184629169591357556e+00
2.184629169591357556e+00
2.456887478255561863e+00
2.456887478255561863e+00
2.456887478255561863e+00
2.278757042146061895e+00
2.278757042146061895e+00
2.278757042146061895e+00
2.278757042146061895e+00
2.261506515701773079e+00
2.261506515701773079e+00
2.261506515701773079e+00
2.269194250312814631e+00
2.269194250312814631e+00
2.269194250312814631e+00
2.269194250312814631e+00
2.264506607257301685e+00
2.264506607257301685e+00
2.264506607257301685e+00
2.278569536423841413e+00
2.278569536423841413e+00
2.278569536423841413e+00
2.310445509201330516e+00
2.310445509201330516e+00
2.310445509201330516e+00
2.310445509201330516e+00
2.392198004089480357e+00
2.392198004089480357e+00
2.392198004089480357e+00
2.270319284646137969e+00
2.270319284646137969e+00
2.270319284646137969e+00
2.269194250312814631e+00
2.269194250312814631e+00
2.269194250312814631e+00
2.269194250312814631e+00
2.228130497146519229e+00
2.228130497146519229e+00
2.228130497146519229e+00
2.201504684591204519e+00
2.201504684591204519e+00
2.201504684591204519e+00
2.091813837092196593e+00
2.091813837092196593e+00
2.091813837092196593e+00
2.091813837092196593e+00
2.292069948423719250e+00
2.292069948423719250e+00
2.292069948423719250e+00
2.419573839533677440e+00
2.419573839533677440e+00
2.419573839533677440e+00
2.286819788201544412e+00
2.286819788201544412e+00
2.286819788201544412e+00
2.286819788201544412e+00
2.274631916257209951e+00
2.274631916257209951e+00
2.274631916257209951e+00
2.257568895535142062e+00
2.257568895535142062e+00
2.257568895535142062e+00
2.253256263924070080e+00
2.253256263924070080e+00
2.253256263924070080e+00
2.253256263924070080e+00
2.271819330423901828e+00
2.271819330423901828e+00
2.271819330423901828e+00
2.349634205145421095e+00
2.349634205145421095e+00
2.349634205145421095e+00
2.349634205145421095e+00
2.339696401867732423e+00
2.339696401867732423e+00
2.339696401867732423e+00
2.243880977813043742e+00
2.243880977813043742e+00
2.243880977813043742e+00
2.234318185979796478e+00
2.234318185979796478e+00
2.234318185979796478e+00
2.234318185979796478e+00
2.240130863368633207e+00
2.240130863368633207e+00
2.240130863368633207e+00
2.170753746147038310e+00
2.170753746147038310e+00
2.170753746147038310e+00
2.102689168980987233e+00
2.102689168980987233e+00
2.102689168980987233e+00
2.102689168980987233e+00
2.422198919644764192e+00
2.422198919644764192e+00
2.422198919644764192e+00
2.372134891811884305e+00
2.372134891811884305e+00
2.372134891811884305e+00
2.290382396923734465e+00
2.290382396923734465e+00
2.290382396923734465e+00
2.290382396923734465e+00
2.291132419812616394e+00
2.291132419812616394e+00
2.291132419812616394e+00
2.281382122257148648e+00
2.281382122257148648e+00
2.281382122257148648e+00
2.269194250312814631e+00
2.269194250312814631e+00
2.275569444868312807e+00
2.275569444868312807e+00
2.275569444868312807e+00
2.380010132145145896e+00
2.380010132145145896e+00
2.380010132145145896e+00
2.285319742423780109e+00
2.285319742423780109e+00
2.285319742423780109e+00
2.239568346201971760e+00
2.239568346201971760e+00
2.239568346201971760e+00
2.239568346201971760e+00
2.238255806146427940e+00
2.238255806146427940e+00
2.238255806146427940e+00
2.250818689535202921e+00
2.250818689535202921e+00
2.250818689535202921e+00
2.138315256202887316e+00
2.138315256202887316e+00
2.138315256202887316e+00
2.138315256202887316e+00
2.137565233314004942e+00
2.137565233314004942e+00
2.137565233314004942e+00
2.459512558366649504e+00
2.459512558366649504e+00
2.459512558366649504e+00
2.459512558366649504e+00
2.301445234534745587e+00
2.301445234534745587e+00
2.301445234534745587e+00
2.271256813257240381e+00
2.271256813257240381e+00
2.271256813257240381e+00
2.279882076479384789e+00
2.279882076479384789e+00
2.279882076479384789e+00
2.279882076479384789e+00
2.265631641590625023e+00
2.265631641590625023e+00
2.265631641590625023e+00
2.260756492812891150e+00
2.260756492812891150e+00
2.260756492812891150e+00
2.279132053590502860e+00
2.279132053590502860e+00
2.279132053590502860e+00
2.279132053590502860e+00
2.404573381756035300e+00
2.404573381756035300e+00
2.404573381756035300e+00
2.273319376201666131e+00
2.273319376201666131e+00
2.273319376201666131e+00
2.257193884090700653e+00
2.257193884090700653e+00
2.257193884090700653e+00
2.257193884090700653e+00
2.234693197424237443e+00
2.234693197424237443e+00
2.234693197424237443e+00
2.234318185979796478e+00
2.234318185979796478e+00
2.234318185979796478e+00
2.103251686147648680e+00
2.103251686147648680e+00
2.103251686147648680e+00
2.103251686147648680e+00
2.230380565813165905e+00
2.230380565813165905e+00
2.230380565813165905e+00
2.438324411755729670e+00
2.438324411755729670e+00
2.438324411755729670e+00
2.280069582201605716e+00
2.280069582201605716e+00
2.280069582201605716e+00
2.280069582201605716e+00
2.272006836146122755e+00
2.272006836146122755e+00
2.272006836146122755e+00
2.284194708090456771e+00
2.284194708090456771e+00
2.284194708090456771e+00
2.281944639423810539e+00
2.281944639423810539e+00
2.281944639423810539e+00
2.281944639423810539e+00
2.292069948423719250e+00
2.292069948423719250e+00
2.292069948423719250e+00
2.334071230201117064e+00
2.334071230201117064e+00
2.334071230201117064e+00
2.334071230201117064e+00
2.376822534867396808e+00
2.376822534867396808e+00
2.376822534867396808e+00
2.248006103701895242e+00
2.248006103701895242e+00
2.248006103701895242e+00
2.223630359813226764e+00
2.223630359813226764e+00
2.223630359813226764e+00
2.223630359813226764e+00
2.236193243202001746e+00
2.236193243202001746e+00
2.236193243202001746e+00
2.182941618091372327e+00
2.182941618091372327e+00
2.182941618091372327e+00
2.082813562425611220e+00
2.082813562425611220e+00
2.082813562425611220e+00
2.082813562425611220e+00
2.324508438367870244e+00
2.324508438367870244e+00
2.324508438367870244e+00
2.381135166478469234e+00
2.381135166478469234e+00
2.381135166478469234e+00
2.274444410534989469e+00
2.274444410534989469e+00
2.274444410534989469e+00
2.274444410534989469e+00
2.268631733146153184e+00
2.268631733146153184e+00
2.268631733146153184e+00
2.276506973479415219e+00
2.276506973479415219e+00
2.276506973479415219e+00
2.279132053590502860e+00
2.279132053590502860e+00
2.279132053590502860e+00
2.291507431257057803e+00
2.291507431257057803e+00
2.291507431257057803e+00
2.381135166478469234e+00
2.381135166478469234e+00
2.381135166478469234e+00
2.381135166478469234e+00
2.337821344645527599e+00
2.337821344645527599e+00
2.337821344645527599e+00
2.265069124423963132e+00
2.265069124423963132e+00
2.265069124423963132e+00
2.265069124423963132e+00
2.242380932035279439e+00
2.242380932035279439e+00
2.242380932035279439e+00
2.242005920590838475e+00
2.242005920590838475e+00
2.242005920590838475e+00
2.142815393536179780e+00
2.142815393536179780e+00
2.142815393536179780e+00
2.142815393536179780e+00
2.089751274147770843e+00
2.089751274147770843e+00
2.089751274147770843e+00
2.444137089144566399e+00
2.444137089144566399e+00
2.444137089144566399e+00
2.332196172978911797e+00
2.332196172978911797e+00
2.332196172978911797e+00
2.332196172978911797e+00
2.271444318979460864e+00
2.271444318979460864e+00
2.271444318979460864e+00
2.276131962034974254e+00
2.276131962034974254e+00
2.276131962034974254e+00
2.272944364757225166e+00
2.272944364757225166e+00
2.272944364757225166e+00
2.272944364757225166e+00
2.271631824701681346e+00
2.271631824701681346e+00
2.271631824701681346e+00
2.281007110812707683e+00
2.281007110812707683e+00
2.281007110812707683e+00
2.401948301644947659e+00
2.401948301644947659e+00
2.401948301644947659e+00
2.401948301644947659e+00
2.282882168034912951e+00
2.282882168034912951e+00
2.282882168034912951e+00
2.251943723868526259e+00
2.251943723868526259e+00
2.251943723868526259e+00
2.251943723868526259e+00
2.241255897701956545e+00
2.241255897701956545e+00
2.241255897701956545e+00
2.265069124423963132e+00
2.265069124423963132e+00
2.265069124423963132e+00
2.113939512314218838e+00
2.113939512314218838e+00
2.113939512314218838e+00
2.113939512314218838e+00
2.165878597369304437e+00
2.165878597369304437e+00
2.165878597369304437e+00
2.460450086977751916e+00
2.460450086977751916e+00
2.460450086977751916e+00
2.288319833979308715e+00
2.288319833979308715e+00
2.288319833979308715e+00
2.288319833979308715e+00
2.258131412701803509e+00
2.258131412701803509e+00
2.258131412701803509e+00
2.263569078646198829e+00
2.263569078646198829e+00
2.263569078646198829e+00
2.261694021423993561e+00
2.261694021423993561e+00
2.261694021423993561e+00
2.261694021423993561e+00
2.276131962034974254e+00
2.276131962034974254e+00
2.276131962034974254e+00
2.299570177312540320e+00
2.299570177312540320e+00
2.299570177312540320e+00
2.406260933256020085e+00
2.406260933256020085e+00
2.406260933256020085e+00
2.406260933256020085e+00
2.261881527146214044e+00
2.261881527146214044e+00
2.261881527146214044e+00
2.251943723868526259e+00
2.251943723868526259e+00
2.251943723868526259e+00
2.251943723868526259e+00
2.245568529313028083e+00
2.245568529313028083e+00
2.245568529313028083e+00
2.203567247535630269e+00
2.203567247535630269e+00
2.203567247535630269e+00
2.093876400036621899e+00
2.093876400036621899e+00
2.093876400036621899e+00
2.093876400036621899e+00
2.277632007812738557e+00
2.277632007812738557e+00
2.277632007812738557e+00
2.419386333811456957e+00
2.419386333811456957e+00
2.419386333811456957e+00
2.278382030701620931e+00
2.278382030701620931e+00
2.278382030701620931e+00
2.278382030701620931e+00
2.264131595812860720e+00
2.264131595812860720e+00
2.264131595812860720e+00
2.257568895535142062e+00
2.257568895535142062e+00
2.257568895535142062e+00
2.255506332590716312e+00
2.255506332590716312e+00
2.255506332590716312e+00
2.255506332590716312e+00
2.269944273201696561e+00
2.332571184423352761e+00
2.332571184423352761e+00
2.332571184423352761e+00
2.353946836756492633e+00
2.353946836756492633e+00
2.353946836756492633e+00
2.268631733146153184e+00
2.268631733146153184e+00
2.268631733146153184e+00
2.268631733146153184e+00
2.246506057924130939e+00
2.246506057924130939e+00
2.246506057924130939e+00
2.255506332590716312e+00
2.255506332590716312e+00
2.255506332590716312e+00
2.255506332590716312e+00
2.182379100924710880e+00
2.182379100924710880e+00
2.182379100924710880e+00
2.104564226203192501e+00
2.104564226203192501e+00
2.104564226203192501e+00
2.398760704367198571e+00
2.398760704367198571e+00
2.398760704367198571e+00
2.398760704367198571e+00
2.353009308145390222e+00
2.353009308145390222e+00
2.353009308145390222e+00
2.260756492812891150e+00
2.260756492812891150e+00
2.260756492812891150e+00
2.270881801812799416e+00
2.270881801812799416e+00
2.270881801812799416e+00
2.270881801812799416e+00
2.279319559312723342e+00
2.279319559312723342e+00
2.279319559312723342e+00
2.283444685201574842e+00
2.283444685201574842e+00
2.283444685201574842e+00
2.287944822534867306e+00
2.287944822534867306e+00
2.287944822534867306e+00
2.287944822534867306e+00
2.384322763756218322e+00
2.384322763756218322e+00
2.384322763756218322e+00
2.310445509201330516e+00
2.310445509201330516e+00
2.310445509201330516e+00
2.253818781090731527e+00
2.253818781090731527e+00
2.253818781090731527e+00
2.253818781090731527e+00
2.233943174535355514e+00
2.233943174535355514e+00
2.233943174535355514e+00
2.253068758201849597e+00
2.253068758201849597e+00
2.253068758201849597e+00
2.147690542313913653e+00
2.147690542313913653e+00
2.147690542313913653e+00
2.147690542313913653e+00
2.129502487258521981e+00
2.129502487258521981e+00
2.129502487258521981e+00
2.477138096255378841e+00
2.477138096255378841e+00
2.477138096255378841e+00
2.316820703756828248e+00
2.316820703756828248e+00
2.316820703756828248e+00
2.316820703756828248e+00
2.265444135868404540e+00
2.265444135868404540e+00
2.265444135868404540e+00
2.263569078646198829e+00
2.263569078646198829e+00
2.263569078646198829e+00
2.257193884090700653e+00
2.257193884090700653e+00
2.257193884090700653e+00
2.257193884090700653e+00
2.263944090090640238e+00
2.263944090090640238e+00
2.263944090090640238e+00
2.270319284646137969e+00
2.270319284646137969e+00
2.270319284646137969e+00
2.270319284646137969e+00
2.392573015533921321e+00
2.392573015533921321e+00
2.392573015533921321e+00
2.264694112979522167e+00
2.264694112979522167e+00
2.264694112979522167e+00
2.260381481368449741e+00
2.260381481368449741e+00
2.260381481368449741e+00
2.260381481368449741e+00
2.245193517868587563e+00
2.245193517868587563e+00
2.245193517868587563e+00
2.243130954924161813e+00
2.243130954924161813e+00
2.243130954924161813e+00
2.103439191869869163e+00
2.103439191869869163e+00
2.103439191869869163e+00
2.103439191869869163e+00
2.216692648091067142e+00
2.216692648091067142e+00
2.216692648091067142e+00
2.452199835200048916e+00
2.452199835200048916e+00
2.452199835200048916e+00
2.289819879757073018e+00
2.289819879757073018e+00
2.289819879757073018e+00
2.289819879757073018e+00
2.271069307535019899e+00
2.271069307535019899e+00
2.271069307535019899e+00
2.270694296090578934e+00
2.270694296090578934e+00
2.270694296090578934e+00
2.267506698812830290e+00
2.267506698812830290e+00
2.267506698812830290e+00
2.267506698812830290e+00
2.272006836146122755e+00
2.272006836146122755e+00
2.272006836146122755e+00
2.313633106479079604e+00
2.313633106479079604e+00
2.313633106479079604e+00
2.370072328867458111e+00
2.370072328867458111e+00
2.370072328867458111e+00
2.247068575090792386e+00
2.247068575090792386e+00
2.247068575090792386e+00
2.247068575090792386e+00
2.248568620868556689e+00
2.248568620868556689e+00
2.248568620868556689e+00
2.257756401257362544e+00
2.257756401257362544e+00
2.257756401257362544e+00
2.210129947813348927e+00
2.210129947813348927e+00
2.210129947813348927e+00
2.210129947813348927e+00
2.110189397869807859e+00
2.110189397869807859e+00
2.110189397869807859e+00
2.339133884701071420e+00
2.339133884701071420e+00
2.339133884701071420e+00
2.412261116367076408e+00
2.412261116367076408e+00
2.412261116367076408e+00
2.412261116367076408e+00
2.283632190923795324e+00
2.283632190923795324e+00
2.283632190923795324e+00
2.269194250312814631e+00
2.269194250312814631e+00
2.269194250312814631e+00
2.269381756035035114e+00
2.269381756035035114e+00
2.269381756035035114e+00
2.269381756035035114e+00
2.268444227423932702e+00
2.268444227423932702e+00
2.268444227423932702e+00
2.282132145146031021e+00
2.282132145146031021e+00
2.282132145146031021e+00
2.354696859645375007e+00
2.354696859645375007e+00
2.354696859645375007e+00
2.354696859645375007e+00
2.323945921201208797e+00
2.323945921201208797e+00
2.323945921201208797e+00
2.249131138035218136e+00
2.249131138035218136e+00
2.249131138035218136e+00
2.249131138035218136e+00
2.229443037202063049e+00
2.229443037202063049e+00
2.229443037202063049e+00
2.239755851924192243e+00
2.239755851924192243e+00
2.239755851924192243e+00
2.161940977202673420e+00
2.161940977202673420e+00
2.161940977202673420e+00
2.161940977202673420e+00
2.094813928647724754e+00
2.094813928647724754e+00
2.094813928647724754e+00
2.443199560533463544e+00
2.443199560533463544e+00
2.443199560533463544e+00
2.352071779534287366e+00
2.352071779534287366e+00
2.352071779534287366e+00
2.352071779534287366e+00
2.296945097201452679e+00
2.296945097201452679e+00
2.296945097201452679e+00
2.286444776757103448e+00
2.286444776757103448e+00
2.286444776757103448e+00
2.250818689535202921e+00
2.250818689535202921e+00
2.250818689535202921e+00
2.250818689535202921e+00
2.264131595812860720e+00
2.264131595812860720e+00
2.264131595812860720e+00
2.279132053590502860e+00
2.279132053590502860e+00
2.279132053590502860e+00
2.386197820978423145e+00
2.386197820978423145e+00
2.386197820978423145e+00
2.386197820978423145e+00
2.270131778923917043e+00
2.270131778923917043e+00
2.270131778923917043e+00
2.240505874813074172e+00
2.240505874813074172e+00
2.240505874813074172e+00
2.224755394146549659e+00
2.224755394146549659e+00
2.224755394146549659e+00
2.224755394146549659e+00
2.240505874813074172e+00
2.240505874813074172e+00
2.240505874813074172e+00
2.115627063814203623e+00
2.115627063814203623e+00
2.115627063814203623e+00
2.115627063814203623e+00
2.156878322702719064e+00
2.156878322702719064e+00
2.156878322702719064e+00
2.472637958922086376e+00
2.472637958922086376e+00
2.472637958922086376e+00
2.302570268868068482e+00
2.302570268868068482e+00
2.302570268868068482e+00
2.302570268868068482e+00
2.273506881923887057e+00
2.273506881923887057e+00
2.273506881923887057e+00
2.276131962034974254e+00
2.276131962034974254e+00
2.276131962034974254e+00
2.263381572923978347e+00
2.263381572923978347e+00
2.263381572923978347e+00
2.263381572923978347e+00
2.264319101535081202e+00
2.264319101535081202e+00
2.279882076479384789e+00
2.279882076479384789e+00
2.377010040589617734e+00
2.377010040589617734e+00
2.377010040589617734e+00
2.236755760368663637e+00
2.236755760368663637e+00
2.236755760368663637e+00
2.236380748924222672e+00
2.236380748924222672e+00
2.236380748924222672e+00
2.236380748924222672e+00
2.248193609424115724e+00
2.248193609424115724e+00
2.248193609424115724e+00
2.243693472090823260e+00
2.243693472090823260e+00
2.243693472090823260e+00
2.121064729758598499e+00
2.121064729758598499e+00
2.121064729758598499e+00
2.121064729758598499e+00
2.273319376201666131e+00
2.273319376201666131e+00
2.273319376201666131e+00
2.434761803033539618e+00
2.434761803033539618e+00
2.434761803033539618e+00
2.293194982757042144e+00
2.293194982757042144e+00
2.293194982757042144e+00
2.293194982757042144e+00
2.272944364757225166e+00
2.272944364757225166e+00
2.272944364757225166e+00
2.261131504257332114e+00
2.261131504257332114e+00
2.261131504257332114e+00
2.257006378368480615e+00
2.257006378368480615e+00
2.257006378368480615e+00
2.257006378368480615e+00
2.277256996368297592e+00
2.277256996368297592e+00
2.277256996368297592e+00
2.350571733756523507e+00
2.350571733756523507e+00
2.350571733756523507e+00
2.365572191534165203e+00
2.365572191534165203e+00
2.365572191534165203e+00
2.365572191534165203e+00
2.259443952757347329e+00
2.259443952757347329e+00
2.259443952757347329e+00
2.242755943479720404e+00
2.242755943479720404e+00
2.242755943479720404e+00
2.242755943479720404e+00
2.248568620868556689e+00
2.248568620868556689e+00
2.248568620868556689e+00
2.185191686758019003e+00
2.185191686758019003e+00
2.185191686758019003e+00
2.107751823480941145e+00
2.107751823480941145e+00
2.107751823480941145e+00
2.107751823480941145e+00
2.384135258033997840e+00
2.384135258033997840e+00
2.384135258033997840e+00
2.379260109256263966e+00
2.379260109256263966e+00
2.379260109256263966e+00
2.280069582201605716e+00
2.280069582201605716e+00
2.280069582201605716e+00
2.280069582201605716e+00
2.277819513534959039e+00
2.277819513534959039e+00
2.277819513534959039e+00
2.266381664479506952e+00
2.266381664479506952e+00
2.266381664479506952e+00
2.266569170201727434e+00
2.266569170201727434e+00
2.266569170201727434e+00
2.266569170201727434e+00
2.277256996368297592e+00
2.277256996368297592e+00
2.277256996368297592e+00
2.365759697256386129e+00
2.365759697256386129e+00
2.365759697256386129e+00
2.304070314645832784e+00
2.304070314645832784e+00
2.304070314645832784e+00
2.304070314645832784e+00
2.263381572923978347e+00
2.263381572923978347e+00
2.263381572923978347e+00
2.245006012146367080e+00
2.245006012146367080e+00
2.245006012146367080e+00
2.245006012146367080e+00
2.256631366924039650e+00
2.256631366924039650e+00
2.256631366924039650e+00
2.140002807702871657e+00
2.140002807702871657e+00
2.140002807702871657e+00
2.111314432203131197e+00
2.111314432203131197e+00
2.111314432203131197e+00
2.452949858088931290e+00
2.452949858088931290e+00
2.452949858088931290e+00
2.452949858088931290e+00
2.313445600756859122e+00
2.313445600756859122e+00
2.313445600756859122e+00
2.258881435590685438e+00
2.258881435590685438e+00
2.258881435590685438e+00
2.266569170201727434e+00
2.266569170201727434e+00
2.266569170201727434e+00
2.266569170201727434e+00
2.265069124423963132e+00
2.265069124423963132e+00
2.265069124423963132e+00
2.272569353312784202e+00
2.272569353312784202e+00
2.272569353312784202e+00
2.280444593646046680e+00
2.280444593646046680e+00
2.280444593646046680e+00
2.405323404644917229e+00
2.405323404644917229e+00
2.405323404644917229e+00
2.405323404644917229e+00
2.271256813257240381e+00
2.271256813257240381e+00
2.271256813257240381e+00
2.243693472090823260e+00
2.243693472090823260e+00
2.243693472090823260e+00
2.243693472090823260e+00
2.234880703146458369e+00
2.234880703146458369e+00
2.234880703146458369e+00
2.236568254646443155e+00
2.236568254646443155e+00
2.236568254646443155e+00
2.100626606036561483e+00
2.100626606036561483e+00
2.100626606036561483e+00
2.100626606036561483e+00
2.207504867702261730e+00
2.207504867702261730e+00
2.207504867702261730e+00
2.461200109866634289e+00
2.461200109866634289e+00
2.461200109866634289e+00
2.302757774590289408e+00
2.302757774590289408e+00
2.302757774590289408e+00
2.302757774590289408e+00
2.281194616534928166e+00
2.281194616534928166e+00
2.281194616534928166e+00
2.285507248146000592e+00
2.285507248146000592e+00
2.285507248146000592e+00
2.269006744590594149e+00
2.269006744590594149e+00
2.269006744590594149e+00
2.269006744590594149e+00
2.278382030701620931e+00
2.278382030701620931e+00
2.278382030701620931e+00
2.315508163701284872e+00
2.315508163701284872e+00
2.315508163701284872e+00
2.388635395367290304e+00
2.388635395367290304e+00
2.388635395367290304e+00
2.388635395367290304e+00
2.260568987090670667e+00
2.260568987090670667e+00
2.260568987090670667e+00
2.238818323313089387e+00
2.238818323313089387e+00
2.238818323313089387e+00
2.233380657368694511e+00
2.233380657368694511e+00
2.233380657368694511e+00
2.233380657368694511e+00
2.204129764702292160e+00
2.204129764702292160e+00
2.204129764702292160e+00
2.106814294869838289e+00
2.106814294869838289e+00
2.106814294869838289e+00
2.106814294869838289e+00
2.306882900479140464e+00
2.306882900479140464e+00
2.306882900479140464e+00
2.420323862422559369e+00
2.420323862422559369e+00
2.420323862422559369e+00
2.297132602923673161e+00
2.297132602923673161e+00
2.297132602923673161e+00
2.297132602923673161e+00
2.256818872646260132e+00
2.256818872646260132e+00
2.256818872646260132e+00
2.248381115146336207e+00
2.248381115146336207e+00
2.248381115146336207e+00
2.247818597979674760e+00
2.247818597979674760e+00
2.247818597979674760e+00
2.247818597979674760e+00
2.268631733146153184e+00
2.268631733146153184e+00
2.268631733146153184e+00
2.355259376812036454e+00
2.355259376812036454e+00
2.355259376812036454e+00
2.335571275978881367e+00
2.335571275978881367e+00
2.335571275978881367e+00
2.335571275978881367e+00
2.263569078646198829e+00
2.263569078646198829e+00
2.263569078646198829e+00
2.245381023590808045e+00
2.245381023590808045e+00
2.245381023590808045e+00
2.246881069368571904e+00
2.246881069368571904e+00
2.246881069368571904e+00
2.246881069368571904e+00
2.157815851313821920e+00
2.157815851313821920e+00
2.157815851313821920e+00
2.087126194036683202e+00
2.087126194036683202e+00
2.087126194036683202e+00
2.418636310922574584e+00
2.418636310922574584e+00
2.418636310922574584e+00
2.418636310922574584e+00
2.346071596423230599e+00
2.346071596423230599e+00
2.346071596423230599e+00
2.277256996368297592e+00
2.277256996368297592e+00
2.277256996368297592e+00
2.277256996368297592e+00
2.291694936979278285e+00
2.291694936979278285e+00
2.291694936979278285e+00
2.278007019257179522e+00
2.278007019257179522e+00
2.278007019257179522e+00
2.278382030701620931e+00
2.278382030701620931e+00
2.278382030701620931e+00
2.288132328257088233e+00
2.288132328257088233e+00
2.386385326700643628e+00
2.386385326700643628e+00
2.386385326700643628e+00
2.277819513534959039e+00
2.277819513534959039e+00
2.277819513534959039e+00
2.277819513534959039e+00
2.235818231757560781e+00
2.235818231757560781e+00
2.235818231757560781e+00
2.234130680257575996e+00
2.234130680257575996e+00
2.234130680257575996e+00
2.254193792535172935e+00
2.254193792535172935e+00
2.254193792535172935e+00
2.254193792535172935e+00
2.118439649647511303e+00
2.118439649647511303e+00
2.118439649647511303e+00
2.130627521591845319e+00
2.130627521591845319e+00
2.130627521591845319e+00
2.461950132755516218e+00
2.461950132755516218e+00
2.461950132755516218e+00
2.461950132755516218e+00
2.298820154423657947e+00
2.298820154423657947e+00
2.298820154423657947e+00
2.265631641590625023e+00
2.265631641590625023e+00
2.265631641590625023e+00
2.267131687368389326e+00
2.267131687368389326e+00
2.267131687368389326e+00
2.267131687368389326e+00
2.256256355479598685e+00
2.256256355479598685e+00
2.256256355479598685e+00
2.275006927701650916e+00
2.275006927701650916e+00
2.275006927701650916e+00
2.306132877590258534e+00
2.306132877590258534e+00
2.306132877590258534e+00
2.306132877590258534e+00
2.416386242255928352e+00
2.416386242255928352e+00
2.416386242255928352e+00
2.278569536423841413e+00
2.278569536423841413e+00
2.278569536423841413e+00
2.260193975646229259e+00
2.260193975646229259e+00
2.260193975646229259e+00
2.260193975646229259e+00
2.245381023590808045e+00
2.245381023590808045e+00
2.245381023590808045e+00
2.230005554368724940e+00
2.230005554368724940e+00
2.230005554368724940e+00
2.104939237647633021e+00
2.104939237647633021e+00
2.104939237647633021e+00
2.104939237647633021e+00
2.245193517868587563e+00
2.245193517868587563e+00
2.245193517868587563e+00
2.433449262977995797e+00
2.433449262977995797e+00
2.433449262977995797e+00
2.433449262977995797e+00
2.278382030701620931e+00
2.278382030701620931e+00
2.278382030701620931e+00
2.268819238868374111e+00
2.268819238868374111e+00
2.268819238868374111e+00
2.276694479201635701e+00
2.276694479201635701e+00
2.276694479201635701e+00
2.276694479201635701e+00
2.275194433423871843e+00
2.275194433423871843e+00
2.275194433423871843e+00
2.283444685201574842e+00
2.283444685201574842e+00
2.283444685201574842e+00
2.330133610034486047e+00
2.330133610034486047e+00
2.330133610034486047e+00
2.330133610034486047e+00
2.367072237311929506e+00
2.367072237311929506e+00
2.367072237311929506e+00
2.263381572923978347e+00
2.263381572923978347e+00
2.263381572923978347e+00
2.242193426313058957e+00
2.242193426313058957e+00
2.242193426313058957e+00
2.242193426313058957e+00
2.248193609424115724e+00
2.248193609424115724e+00
2.248193609424115724e+00
2.187629261146885273e+00
2.187629261146885273e+00
2.187629261146885273e+00
2.095751457258827610e+00
2.095751457258827610e+00
2.095751457258827610e+00
2.095751457258827610e+00
2.352071779534287366e+00
2.352071779534287366e+00
2.352071779534287366e+00
2.378322580645161111e+00
2.378322580645161111e+00
2.378322580645161111e+00
2.273131870479445649e+00
2.273131870479445649e+00
2.273131870479445649e+00
2.273131870479445649e+00
2.274631916257209951e+00
2.274631916257209951e+00
2.274631916257209951e+00
2.268444227423932702e+00
2.268444227423932702e+00
2.268444227423932702e+00
2.264506607257301685e+00
2.264506607257301685e+00
2.264506607257301685e+00
2.264506607257301685e+00
2.280257087923826198e+00
2.280257087923826198e+00
2.280257087923826198e+00
2.377760063478499664e+00
2.377760063478499664e+00
2.377760063478499664e+00
2.323195898312326424e+00
2.323195898312326424e+00
2.323195898312326424e+00
2.252693746757408633e+00
2.252693746757408633e+00
2.252693746757408633e+00
2.252693746757408633e+00
2.225130405590991067e+00
2.225130405590991067e+00
2.225130405590991067e+00
2.256256355479598685e+00
2.256256355479598685e+00
2.256256355479598685e+00
2.164378551591540134e+00
2.164378551591540134e+00
2.164378551591540134e+00
2.164378551591540134e+00
2.114877040925321250e+00
2.114877040925321250e+00
2.114877040925321250e+00
2.460075075533310951e+00
2.460075075533310951e+00
2.460075075533310951e+00
2.324320932645649762e+00
2.324320932645649762e+00
2.324320932645649762e+00
2.324320932645649762e+00
2.270131778923917043e+00
2.270131778923917043e+00
2.270131778923917043e+00
2.286632282479323930e+00
2.286632282479323930e+00
2.286632282479323930e+00
2.278757042146061895e+00
2.278757042146061895e+00
2.278757042146061895e+00
2.278757042146061895e+00
2.272381847590563719e+00
2.272381847590563719e+00
2.272381847590563719e+00
2.268256721701712220e+00
2.268256721701712220e+00
2.268256721701712220e+00
2.268256721701712220e+00
2.387322855311746483e+00
2.387322855311746483e+00
2.387322855311746483e+00
2.253256263924070080e+00
2.253256263924070080e+00
2.253256263924070080e+00
2.233755668813135031e+00
2.233755668813135031e+00
2.233755668813135031e+00
2.233755668813135031e+00
2.216880153813287624e+00
2.216880153813287624e+00
2.216880153813287624e+00
2.239193334757530351e+00
2.239193334757530351e+00
2.239193334757530351e+00
2.116377086703085553e+00
2.116377086703085553e+00
2.116377086703085553e+00
2.116377086703085553e+00
2.203754753257850751e+00
2.203754753257850751e+00
2.203754753257850751e+00
2.468887844477675397e+00
2.468887844477675397e+00
2.468887844477675397e+00
2.301445234534745587e+00
2.301445234534745587e+00
2.301445234534745587e+00
2.301445234534745587e+00
2.276881984923856628e+00
2.276881984923856628e+00
2.276881984923856628e+00
2.280444593646046680e+00
2.280444593646046680e+00
2.280444593646046680e+00
2.283632190923795324e+00
2.283632190923795324e+00
2.283632190923795324e+00
2.283632190923795324e+00
2.274819421979430434e+00
2.274819421979430434e+00
2.274819421979430434e+00
2.289632374034852091e+00
2.289632374034852091e+00
2.289632374034852091e+00
2.289632374034852091e+00
2.384885280922879769e+00
2.384885280922879769e+00
2.384885280922879769e+00
2.251381206701864812e+00
2.251381206701864812e+00
2.251381206701864812e+00
2.238255806146427940e+00
2.238255806146427940e+00
2.238255806146427940e+00
2.238255806146427940e+00
2.246131046479689974e+00
2.246131046479689974e+00
2.246131046479689974e+00
2.219130222479934300e+00
2.219130222479934300e+00
2.219130222479934300e+00
2.108689352092044000e+00
2.108689352092044000e+00
2.108689352092044000e+00
2.108689352092044000e+00
2.289819879757073018e+00
2.289819879757073018e+00
2.289819879757073018e+00
2.411698599200414961e+00
2.411698599200414961e+00
2.411698599200414961e+00
2.276131962034974254e+00
2.276131962034974254e+00
2.276131962034974254e+00
2.276131962034974254e+00
2.266381664479506952e+00
2.266381664479506952e+00
2.266381664479506952e+00
2.256256355479598685e+00
2.256256355479598685e+00
2.256256355479598685e+00
2.258881435590685438e+00
2.258881435590685438e+00
2.258881435590685438e+00
2.258881435590685438e+00
2.269569261757255596e+00
2.269569261757255596e+00
2.269569261757255596e+00
2.341571459089938134e+00
2.344571550645466296e+00
2.344571550645466296e+00
2.344571550645466296e+00
2.344571550645466296e+00
2.257568895535142062e+00
2.257568895535142062e+00
2.257568895535142062e+00
2.249881160924100509e+00
2.249881160924100509e+00
2.249881160924100509e+00
2.259818964201788294e+00
2.259818964201788294e+00
2.259818964201788294e+00
2.259818964201788294e+00
2.190816858424634361e+00
2.190816858424634361e+00
2.190816858424634361e+00
2.117689626758628929e+00
2.117689626758628929e+00
2.117689626758628929e+00
2.424073976866969904e+00
2.424073976866969904e+00
2.424073976866969904e+00
2.424073976866969904e+00
2.357696951200903612e+00
2.357696951200903612e+00
2.357696951200903612e+00
2.262444044312875935e+00
2.262444044312875935e+00
2.262444044312875935e+00
2.257006378368480615e+00
2.257006378368480615e+00
2.257006378368480615e+00
2.257006378368480615e+00
2.253068758201849597e+00
2.253068758201849597e+00
2.253068758201849597e+00
2.264506607257301685e+00
2.264506607257301685e+00
2.264506607257301685e+00
2.264506607257301685e+00
2.277819513534959039e+00
2.277819513534959039e+00
2.277819513534959039e+00
2.378510086367381593e+00
2.378510086367381593e+00
2.378510086367381593e+00
2.292257454145939732e+00
2.292257454145939732e+00
2.292257454145939732e+00
2.292257454145939732e+00
2.254568803979613900e+00
2.254568803979613900e+00
2.254568803979613900e+00
2.234880703146458369e+00
2.234880703146458369e+00
2.234880703146458369e+00
2.262256538590655452e+00
2.262256538590655452e+00
2.262256538590655452e+00
2.262256538590655452e+00
2.139440290536210654e+00
2.139440290536210654e+00
2.139440290536210654e+00
2.142065370647297406e+00
2.142065370647297406e+00
2.142065370647297406e+00
2.484638325144199911e+00
2.484638325144199911e+00
2.484638325144199911e+00
2.484638325144199911e+00
2.321883358256782603e+00
2.321883358256782603e+00
2.321883358256782603e+00
2.286444776757103448e+00
2.286444776757103448e+00
2.286444776757103448e+00
2.282694662312692468e+00
2.282694662312692468e+00
2.282694662312692468e+00
2.282694662312692468e+00
2.270131778923917043e+00
2.270131778923917043e+00
2.270131778923917043e+00
2.263756584368419311e+00
2.263756584368419311e+00
2.263756584368419311e+00
2.271631824701681346e+00
2.271631824701681346e+00
2.271631824701681346e+00
2.271631824701681346e+00
2.387135349589526001e+00
2.387135349589526001e+00
2.387135349589526001e+00
2.247443586535233351e+00
2.247443586535233351e+00
2.247443586535233351e+00
2.236755760368663637e+00
2.236755760368663637e+00
2.236755760368663637e+00
2.236755760368663637e+00
2.225505417035432032e+00
2.225505417035432032e+00
2.225505417035432032e+00
2.243693472090823260e+00
2.243693472090823260e+00
2.243693472090823260e+00
2.243693472090823260e+00
2.113564500869777874e+00
2.113564500869777874e+00
2.113564500869777874e+00
2.245568529313028083e+00
2.245568529313028083e+00
2.245568529313028083e+00
2.450324777977843649e+00
2.450324777977843649e+00
2.450324777977843649e+00
2.450324777977843649e+00
2.295070039979247412e+00
2.295070039979247412e+00
2.295070039979247412e+00
2.275756950590533290e+00
2.275756950590533290e+00
2.275756950590533290e+00
2.263944090090640238e+00
2.263944090090640238e+00
2.251756218146305777e+00
2.251756218146305777e+00
2.255881344035157721e+00
2.255881344035157721e+00
2.309507980590228104e+00
2.309507980590228104e+00
2.357884456923124095e+00
2.357884456923124095e+00
2.259443952757347329e+00
2.259443952757347329e+00
2.240693380535294654e+00
2.240693380535294654e+00
2.245193517868587563e+00
2.245193517868587563e+00
2.198692098757896396e+00
2.198692098757896396e+00
2.110939420758690233e+00
2.110939420758690233e+00
2.357696951200903612e+00
2.357696951200903612e+00
2.357696951200903612e+00
2.399885738700521909e+00
2.399885738700521909e+00
2.274819421979430434e+00
2.274819421979430434e+00
2.259068941312906365e+00
2.259068941312906365e+00
2.262444044312875935e+00
2.262444044312875935e+00
2.263944090090640238e+00
2.263944090090640238e+00
2.273694387646107540e+00
2.273694387646107540e+00
2.373072420422986717e+00
2.373072420422986717e+00
2.331821161534470832e+00
2.331821161534470832e+00
2.331821161534470832e+00
2.260756492812891150e+00
2.260756492812891150e+00
2.248381115146336207e+00
2.248381115146336207e+00
2.264881618701742649e+00
2.264881618701742649e+00
2.161753471480452937e+00
2.161753471480452937e+00
2.099314065981017663e+00
2.099314065981017663e+00
2.438511917477950597e+00
2.438511917477950597e+00
2.314195623645741495e+00
2.314195623645741495e+00
2.250256172368541474e+00
2.250256172368541474e+00
2.250256172368541474e+00
2.258506424146244473e+00
2.258506424146244473e+00
2.264131595812860720e+00
2.264131595812860720e+00
2.299945188756981285e+00
2.299945188756981285e+00
2.285882259590441556e+00
2.285882259590441556e+00
2.397073152867214230e+00
2.397073152867214230e+00
2.286819788201544412e+00
2.286819788201544412e+00
2.255131321146275347e+00
2.255131321146275347e+00
2.246693563646351421e+00
2.246693563646351421e+00
2.246693563646351421e+00
2.271819330423901828e+00
2.271819330423901828e+00
2.131940061647389140e+00
2.131940061647389140e+00
2.188191778313547164e+00
2.188191778313547164e+00
2.478263130588702179e+00
2.478263130588702179e+00
2.309507980590228104e+00
2.309507980590228104e+00
2.277819513534959039e+00
2.277819513534959039e+00
2.281569627979369130e+00
2.281569627979369130e+00
2.272006836146122755e+00
2.272006836146122755e+00
2.272006836146122755e+00
2.275756950590533290e+00
2.275756950590533290e+00
2.280069582201605716e+00
2.368197271645252844e+00
2.240880886257515137e+00
2.240880886257515137e+00
2.235443220313119816e+00
2.235443220313119816e+00
2.240693380535294654e+00
2.240693380535294654e+00
2.239568346201971760e+00
2.239568346201971760e+00
2.117689626758628929e+00
2.117689626758628929e+00
2.295632557145908859e+00
2.295632557145908859e+00
2.295632557145908859e+00
2.438886928922391562e+00
2.438886928922391562e+00
2.289444868312631609e+00
2.289444868312631609e+00
2.275944456312753772e+00
2.275944456312753772e+00
2.249693655201880027e+00
2.249693655201880027e+00
2.236005737479781263e+00
2.236005737479781263e+00
2.266569170201727434e+00
2.266569170201727434e+00
2.341196447645496725e+00
2.341196447645496725e+00
2.350946745200964472e+00
2.350946745200964472e+00
2.350946745200964472e+00
2.254381298257393418e+00
2.254381298257393418e+00
2.238443311868648422e+00
2.238443311868648422e+00
2.239943357646412725e+00
2.239943357646412725e+00
2.170191228980376863e+00
2.170191228980376863e+00
2.074000793481246330e+00
2.074000793481246330e+00
2.367634754478591397e+00
2.367634754478591397e+00
2.339321390423291458e+00
2.339321390423291458e+00
2.248756126590777171e+00
2.248756126590777171e+00
2.248756126590777171e+00
2.264694112979522167e+00
2.264694112979522167e+00
2.254006286812952009e+00
2.254006286812952009e+00
2.265069124423963132e+00
2.265069124423963132e+00
2.281944639423810539e+00
2.281944639423810539e+00
2.406635944700461049e+00
2.406635944700461049e+00
2.341758964812158617e+00
2.341758964812158617e+00
2.287194799645985377e+00
2.287194799645985377e+00
2.244631000701926116e+00
2.244631000701926116e+00
2.244631000701926116e+00
2.246693563646351421e+00
2.246693563646351421e+00
2.136065187536240639e+00
2.136065187536240639e+00
2.130065004425183872e+00
2.130065004425183872e+00
2.467387798699911539e+00
2.467387798699911539e+00
2.309882992034669069e+00
2.309882992034669069e+00
2.264881618701742649e+00
2.264881618701742649e+00
2.279507065034943825e+00
2.279507065034943825e+00
2.278569536423841413e+00
2.278569536423841413e+00
2.290569902645954947e+00
2.290569902645954947e+00
2.290569902645954947e+00
2.286257271034882521e+00
2.400823267311624321e+00
2.400823267311624321e+00
2.400823267311624321e+00
2.276506973479415219e+00
2.276506973479415219e+00
2.260381481368449741e+00
2.260381481368449741e+00
2.225317911313211550e+00
2.225317911313211550e+00
2.221942808313242423e+00
2.221942808313242423e+00
2.089001251258888470e+00
2.089001251258888470e+00
2.201504684591204519e+00
2.201504684591204519e+00
2.438511917477950597e+00
2.438511917477950597e+00
2.282132145146031021e+00
2.282132145146031021e+00
2.282132145146031021e+00
2.261319009979552597e+00
2.261319009979552597e+00
2.271819330423901828e+00
2.271819330423901828e+00
2.250068666646320992e+00
2.250068666646320992e+00
2.245943540757469048e+00
2.245943540757469048e+00
2.276881984923856628e+00
2.276881984923856628e+00
2.328258552812280335e+00
2.328258552812280335e+00
2.217442670979949515e+00
2.217442670979949515e+00
2.213692556535538980e+00
2.213692556535538980e+00
2.213692556535538980e+00
2.230568071535386387e+00
2.230568071535386387e+00
2.196067018646809643e+00
2.196067018646809643e+00
2.109439374980925930e+00
2.109439374980925930e+00
2.355071871089815971e+00
2.355071871089815971e+00
2.418823816644795066e+00
2.418823816644795066e+00
2.307632923368022837e+00
2.307632923368022837e+00
2.307445417645802355e+00
2.307445417645802355e+00
2.287569811090426342e+00
2.287569811090426342e+00
2.287569811090426342e+00
2.292632465590380253e+00
2.292632465590380253e+00
2.317570726645710621e+00
2.317570726645710621e+00
2.412261116367076408e+00
2.412261116367076408e+00
2.361072054200873183e+00
2.361072054200873183e+00
2.258318918424023991e+00
2.258318918424023991e+00
2.229255531479842567e+00
2.229255531479842567e+00
2.236755760368663637e+00
2.236755760368663637e+00
2.161003448591571008e+00
2.161003448591571008e+00
2.161003448591571008e+00
2.101751640369884377e+00
2.101751640369884377e+00
2.438886928922391562e+00
2.438886928922391562e+00
2.335196264534440402e+00
2.335196264534440402e+00
2.255881344035157721e+00
2.255881344035157721e+00
2.270881801812799416e+00
2.270881801812799416e+00
2.278007019257179522e+00
2.278007019257179522e+00
2.280069582201605716e+00
2.280069582201605716e+00
2.282507156590471986e+00
2.282507156590471986e+00
2.403073335978270997e+00
2.403073335978270997e+00
2.285882259590441556e+00
2.285882259590441556e+00
2.252318735312967224e+00
2.252318735312967224e+00
2.228693014313181120e+00
2.228693014313181120e+00
2.246881069368571904e+00
2.246881069368571904e+00
2.119564683980834197e+00
2.119564683980834197e+00
2.161190954313791490e+00
2.161190954313791490e+00
2.461762627033295736e+00
2.461762627033295736e+00
2.308382946256904766e+00
2.308382946256904766e+00
2.308382946256904766e+00
2.282694662312692468e+00
2.282694662312692468e+00
2.274069399090548504e+00
2.274069399090548504e+00
2.244255989257484707e+00
2.244255989257484707e+00
2.249506149479659545e+00
2.249506149479659545e+00
2.263194067201757864e+00
2.263194067201757864e+00
2.355071871089815971e+00
2.355071871089815971e+00
2.216130130924405695e+00
2.216130130924405695e+00
2.213317545091097571e+00
2.213317545091097571e+00
2.213317545091097571e+00
2.230193060090945423e+00
2.230193060090945423e+00
2.226255439924313961e+00
2.226255439924313961e+00
2.107564317758720662e+00
2.107564317758720662e+00
2.300507705923642732e+00
2.300507705923642732e+00
2.467762810144352947e+00
2.467762810144352947e+00
2.309132969145787140e+00
2.309132969145787140e+00
2.277444502090518075e+00
2.277444502090518075e+00
2.242380932035279439e+00
2.242380932035279439e+00
2.242380932035279439e+00
2.217630176702169997e+00
2.217630176702169997e+00
2.225505417035432032e+00
2.225505417035432032e+00
2.293757499923703591e+00
2.293757499923703591e+00
2.324320932645649762e+00
2.324320932645649762e+00
2.236943266090884119e+00
2.236943266090884119e+00
2.220630268257698603e+00
2.220630268257698603e+00
2.230943082979827352e+00
2.230943082979827352e+00
2.230943082979827352e+00
2.201879696035645484e+00
2.201879696035645484e+00
2.142252876369517889e+00
2.142252876369517889e+00
2.411323587755973996e+00
2.411323587755973996e+00
2.399885738700521909e+00
2.399885738700521909e+00
2.304820337534714714e+00
2.304820337534714714e+00
2.309882992034669069e+00
2.309882992034669069e+00
2.303507797479171337e+00
2.303507797479171337e+00
2.280069582201605716e+00
2.280069582201605716e+00
2.270131778923917043e+00
2.270131778923917043e+00
2.367072237311929506e+00
2.367072237311929506e+00
2.297695120090334608e+00
2.297695120090334608e+00
2.262256538590655452e+00
2.262256538590655452e+00
2.262256538590655452e+00
2.269006744590594149e+00
2.269006744590594149e+00
2.303507797479171337e+00
2.303507797479171337e+00
2.193254432813501520e+00
2.193254432813501520e+00
2.143377910702841227e+00
2.143377910702841227e+00
2.470762901699881109e+00
2.470762901699881109e+00
2.313820612201300086e+00
2.313820612201300086e+00
2.267319193090609808e+00
2.267319193090609808e+00
2.298632648701437464e+00
2.298632648701437464e+00
2.298632648701437464e+00
2.302757774590289408e+00
2.302757774590289408e+00
2.321320841090121156e+00
2.321320841090121156e+00
2.341008941923276243e+00
2.341008941923276243e+00
2.452387340922269399e+00
2.452387340922269399e+00
2.274631916257209951e+00
2.274631916257209951e+00
2.216880153813287624e+00
2.216880153813287624e+00
2.184441663869136629e+00
2.184441663869136629e+00
2.191379375591296252e+00
2.191379375591296252e+00
2.191379375591296252e+00
2.054875209814752690e+00
2.054875209814752690e+00
2.160815942869350526e+00
2.160815942869350526e+00
2.398385692922757606e+00
2.398385692922757606e+00
2.228505508590960638e+00
2.228505508590960638e+00
2.223067842646564873e+00
2.223067842646564873e+00
2.243693472090823260e+00
2.243693472090823260e+00
2.240318369090853690e+00
2.240318369090853690e+00
2.276131962034974254e+00
2.276131962034974254e+00
2.276131962034974254e+00
2.331258644367808941e+00
2.331258644367808941e+00
2.411511093478194478e+00
2.411511093478194478e+00
2.300320200201422249e+00
2.300320200201422249e+00
2.298070131534776017e+00
2.298070131534776017e+00
2.270694296090578934e+00
2.270694296090578934e+00
2.244631000701926116e+00
2.244631000701926116e+00
2.141877864925076924e+00
2.141877864925076924e+00
2.349071687978759204e+00
2.349071687978759204e+00
2.349071687978759204e+00
2.432511734366893830e+00
2.432511734366893830e+00
2.286632282479323930e+00
2.286632282479323930e+00
2.271819330423901828e+00
2.271819330423901828e+00
2.247443586535233351e+00
2.247443586535233351e+00
2.217630176702169997e+00
2.217630176702169997e+00
2.243693472090823260e+00
2.243693472090823260e+00
2.335008758812219920e+00
2.335008758812219920e+00
2.337071321756645670e+00
2.256443861201819168e+00
2.256443861201819168e+00
2.210504959257789892e+00
2.210504959257789892e+00
2.210504959257789892e+00
2.207129856257820322e+00
2.207129856257820322e+00
2.077563402203436382e+00
2.077563402203436382e+00
1.976872829371013607e+00
1.976872829371013607e+00
2.340258919034394314e+00
2.340258919034394314e+00
2.289819879757073018e+00
2.289819879757073018e+00
2.275381939146092325e+00
2.275381939146092325e+00
2.353946836756492633e+00
2.353946836756492633e+00
2.361822077089755112e+00
2.361822077089755112e+00
2.373072420422986717e+00
2.373072420422986717e+00
2.373072420422986717e+00
2.384135258033997840e+00
2.384135258033997840e+00
2.495326151310770069e+00
2.495326151310770069e+00
2.358634479812006024e+00
2.358634479812006024e+00
2.290194891201513983e+00
2.290194891201513983e+00
2.250443678090761956e+00
2.250443678090761956e+00
2.269756767479476078e+00
2.269756767479476078e+00
2.150690633869442259e+00
2.150690633869442259e+00
2.150690633869442259e+00
2.150690633869442259e+00
2.150690633869442259e+00
2.458950041199987613e+00
2.458950041199987613e+00
2.290194891201513983e+00
2.290194891201513983e+00
2.259443952757347329e+00
2.259443952757347329e+00
2.263944090090640238e+00
2.263944090090640238e+00
2.248193609424115724e+00
2.248193609424115724e+00
2.262631550035096417e+00
2.262631550035096417e+00
2.263006561479537382e+00
2.263006561479537382e+00
2.370447340311899076e+00
2.370447340311899076e+00
2.370447340311899076e+00
2.221192785424360050e+00
2.221192785424360050e+00
2.217630176702169997e+00
2.217630176702169997e+00
2.210692464980010374e+00
2.210692464980010374e+00
2.211254982146671821e+00
2.211254982146671821e+00
2.105876766258735877e+00
2.105876766258735877e+00
2.290194891201513983e+00
2.290194891201513983e+00
2.480888210699789376e+00
2.480888210699789376e+00
2.341383953367717208e+00
2.341383953367717208e+00
2.341383953367717208e+00
2.325445966978973100e+00
2.325445966978973100e+00
2.300507705923642732e+00
2.300507705923642732e+00
2.283819696646015807e+00
2.283819696646015807e+00
2.278194524979400004e+00
2.278194524979400004e+00
2.320570818201239227e+00
2.320570818201239227e+00
2.344759056367687222e+00
2.344759056367687222e+00
2.198317087313455875e+00
2.198317087313455875e+00
2.162691000091555793e+00
2.162691000091555793e+00
2.180504043702505612e+00
2.180504043702505612e+00
2.149378093813898438e+00
2.149378093813898438e+00
2.149378093813898438e+00
2.086938688314462720e+00
2.086938688314462720e+00
2.364822168645283273e+00
2.364822168645283273e+00
2.416011230811487387e+00
2.416011230811487387e+00
2.307070406201360946e+00
2.307070406201360946e+00
2.305007843256935196e+00
2.305007843256935196e+00
2.328821069978942226e+00
2.328821069978942226e+00
2.312133060701315301e+00
2.312133060701315301e+00
2.292257454145939732e+00
2.292257454145939732e+00
2.292257454145939732e+00
2.392198004089480357e+00
2.392198004089480357e+00
2.283257179479354360e+00
2.283257179479354360e+00
2.186316721091342341e+00
2.186316721091342341e+00
2.158378368480483367e+00
2.158378368480483367e+00
2.165503585924863472e+00
2.165503585924863472e+00
2.092376354258858040e+00
2.092376354258858040e+00
2.064813013092440475e+00
2.064813013092440475e+00
2.438699423200171079e+00
2.438699423200171079e+00
2.438699423200171079e+00
2.322445875423444495e+00
2.322445875423444495e+00
2.278007019257179522e+00
2.278007019257179522e+00
2.320008301034577336e+00
2.320008301034577336e+00
2.323945921201208797e+00
2.323945921201208797e+00
2.319070772423474924e+00
2.319070772423474924e+00
2.319633289590136371e+00
2.319633289590136371e+00
2.420511368144779851e+00
2.420511368144779851e+00
2.280632099368266719e+00
2.280632099368266719e+00
2.280632099368266719e+00
2.262444044312875935e+00
2.262444044312875935e+00
2.288132328257088233e+00
2.288132328257088233e+00
2.310258003479110034e+00
2.310258003479110034e+00
2.155378276924954761e+00
2.155378276924954761e+00
2.195692007202368234e+00
2.195692007202368234e+00
2.428574114200262368e+00
2.428574114200262368e+00
2.243693472090823260e+00
2.243693472090823260e+00
2.183691640980254700e+00
2.183691640980254700e+00
2.183691640980254700e+00
2.175628894924771739e+00
2.175628894924771739e+00
2.184441663869136629e+00
2.184441663869136629e+00
2.202067201757865966e+00
2.202067201757865966e+00
2.225880428479872997e+00
2.225880428479872997e+00
2.312883083590197675e+00
2.312883083590197675e+00
2.246881069368571904e+00
2.246881069368571904e+00
2.262444044312875935e+00
2.262444044312875935e+00
2.214067567979979945e+00
2.214067567979979945e+00
2.214067567979979945e+00
2.086188665425580790e+00
2.086188665425580790e+00
2.280069582201605716e+00
2.280069582201605716e+00
2.402885830256050514e+00
2.402885830256050514e+00
2.287007293923764895e+00
2.287007293923764895e+00
2.303132786034730373e+00
2.303132786034730373e+00
2.341196447645496725e+00
2.341196447645496725e+00
2.349259193700979687e+00
2.349259193700979687e+00
2.329571092867824156e+00
2.329571092867824156e+00
2.329571092867824156e+00
2.388260383922848895e+00
2.388260383922848895e+00
2.364072145756401344e+00
2.364072145756401344e+00
2.249506149479659545e+00
2.249506149479659545e+00
2.243693472090823260e+00
2.243693472090823260e+00
2.278382030701620931e+00
2.278382030701620931e+00
2.212380016479995160e+00
2.212380016479995160e+00
2.122377269814142320e+00
2.122377269814142320e+00
2.409073519089327764e+00
2.409073519089327764e+00
2.409073519089327764e+00
2.369509811700796664e+00
2.369509811700796664e+00
2.297882625812555535e+00
2.297882625812555535e+00
2.308007934812463802e+00
2.308007934812463802e+00
2.325445966978973100e+00
2.325445966978973100e+00
2.297695120090334608e+00
2.297695120090334608e+00
2.263381572923978347e+00
2.263381572923978347e+00
2.355821893978697901e+00
2.355821893978697901e+00
2.262631550035096417e+00
2.262631550035096417e+00
2.262631550035096417e+00
2.214255073702200427e+00
2.214255073702200427e+00
2.152378185369426600e+00
2.152378185369426600e+00
2.129127475814081016e+00
2.129127475814081016e+00
2.055437726981414581e+00
2.055437726981414581e+00
2.059937864314706601e+00
2.059937864314706601e+00
2.359759514145329362e+00
2.359759514145329362e+00
2.185566698202459968e+00
2.185566698202459968e+00
2.129689992980742907e+00
2.129689992980742907e+00
2.129689992980742907e+00
2.147315530869472244e+00
2.147315530869472244e+00
2.153503219702749494e+00
2.153503219702749494e+00
2.217630176702169997e+00
2.217630176702169997e+00
2.283632190923795324e+00
2.283632190923795324e+00
2.447512192144535526e+00
2.447512192144535526e+00
2.350571733756523507e+00
2.350571733756523507e+00
2.393135532700583212e+00
2.393135532700583212e+00
2.435511825922421991e+00
2.435511825922421991e+00
2.434011780144657688e+00
2.434011780144657688e+00
2.272381847590563719e+00
2.272381847590563719e+00
2.363134617145298488e+00
2.363134617145298488e+00
2.546515213476973738e+00
2.546515213476973738e+00
2.546515213476973738e+00
2.345884090701010116e+00
2.345884090701010116e+00
2.289819879757073018e+00
2.289819879757073018e+00
2.293007477034821662e+00
2.293007477034821662e+00
2.281194616534928166e+00
2.281194616534928166e+00
2.271069307535019899e+00
2.271069307535019899e+00
2.328821069978942226e+00
2.328821069978942226e+00
2.341758964812158617e+00
2.341758964812158617e+00
2.170378734702597345e+00
2.170378734702597345e+00
2.170378734702597345e+00
2.111314432203131197e+00
2.111314432203131197e+00
2.122377269814142320e+00
2.122377269814142320e+00
2.099126560258797181e+00
2.099126560258797181e+00
2.020374156926175946e+00
2.020374156926175946e+00
2.270319284646137969e+00
2.270319284646137969e+00
2.343634022034363884e+00
2.343634022034363884e+00
2.271631824701681346e+00
2.271631824701681346e+00
2.303882808923612302e+00
2.303882808923612302e+00
2.303882808923612302e+00
2.302570268868068482e+00
2.302570268868068482e+00
2.264506607257301685e+00
2.264506607257301685e+00
2.283819696646015807e+00
2.283819696646015807e+00
2.389385418256172233e+00
2.389385418256172233e+00
2.309695486312448587e+00
2.309695486312448587e+00
2.203192236091189304e+00
2.203192236091189304e+00
2.174503860591448845e+00
2.174503860591448845e+00
2.191004364146854844e+00
2.191004364146854844e+00
2.191004364146854844e+00
2.121064729758598499e+00
2.121064729758598499e+00
2.107189306314279698e+00
2.107189306314279698e+00
2.458575029755546648e+00
2.458575029755546648e+00
2.333696218756676100e+00
2.333696218756676100e+00
2.295257545701467894e+00
2.295257545701467894e+00
2.329196081423383191e+00
2.329196081423383191e+00
2.333321207312235135e+00
2.333321207312235135e+00
2.352634296700948813e+00
2.352634296700948813e+00
2.352634296700948813e+00
2.321320841090121156e+00
2.321320841090121156e+00
2.359947019867549844e+00
2.359947019867549844e+00
2.161753471480452937e+00
2.161753471480452937e+00
2.116377086703085553e+00
2.086001159703360308e+00
2.086001159703360308e+00
2.131190038758506766e+00
2.131190038758506766e+00
2.033124546037171854e+00
2.033124546037171854e+00
2.110189397869807859e+00
2.110189397869807859e+00
2.110189397869807859e+00
2.428011597033600921e+00
2.428011597033600921e+00
2.296382580034791232e+00
2.296382580034791232e+00
2.298070131534776017e+00
2.298070131534776017e+00
2.331821161534470832e+00
2.331821161534470832e+00
2.323945921201208797e+00
2.323945921201208797e+00
2.315883175145725836e+00
2.315883175145725836e+00
2.340446424756614796e+00
2.340446424756614796e+00
2.388635395367290304e+00
2.388635395367290304e+00
2.388635395367290304e+00
2.253818781090731527e+00
2.253818781090731527e+00
2.390510452589495571e+00
2.390510452589495571e+00
2.380385143589587305e+00
2.380385143589587305e+00
2.292257454145939732e+00
2.292257454145939732e+00
2.194191961424603932e+00
2.194191961424603932e+00
2.401010773033844803e+00
2.401010773033844803e+00
2.480325693533127485e+00
2.480325693533127485e+00
2.308570451979125249e+00
2.308570451979125249e+00
2.308570451979125249e+00
2.293945005645924073e+00
2.293945005645924073e+00
2.256818872646260132e+00
2.256818872646260132e+00
2.231318094424268317e+00
2.231318094424268317e+00
2.239005829035309869e+00
2.239005829035309869e+00
2.325633472701193583e+00
2.325633472701193583e+00
2.340071413312173831e+00
2.340071413312173831e+00
2.264694112979522167e+00
2.264694112979522167e+00
2.245943540757469048e+00
2.245943540757469048e+00
2.245943540757469048e+00
2.207504867702261730e+00
2.207504867702261730e+00
2.137002716147343495e+00
2.137002716147343495e+00
2.060312875759148010e+00
2.060312875759148010e+00
2.342508987701040546e+00
2.342508987701040546e+00
2.288694845423749680e+00
2.288694845423749680e+00
2.200754661702322146e+00
2.200754661702322146e+00
2.164003540147099169e+00
2.164003540147099169e+00
2.105689260536515395e+00
2.105689260536515395e+00
2.105689260536515395e+00
2.087688711203345093e+00
2.087688711203345093e+00
2.083751091036713632e+00
2.083751091036713632e+00
2.197192052980132537e+00
2.197192052980132537e+00
2.152378185369426600e+00
2.152378185369426600e+00
2.203942258980071234e+00
2.203942258980071234e+00
2.254943815424054865e+00
2.254943815424054865e+00
2.307632923368022837e+00
2.307632923368022837e+00
2.222505325479903426e+00
2.222505325479903426e+00
2.250256172368541474e+00
2.250256172368541474e+00
2.605579515976439886e+00
2.605579515976439886e+00
2.605579515976439886e+00
2.456699972533341381e+00
2.456699972533341381e+00
2.428574114200262368e+00
2.428574114200262368e+00
2.421448896755882263e+00
2.421448896755882263e+00
2.353009308145390222e+00
2.353009308145390222e+00
2.335196264534440402e+00
2.335196264534440402e+00
2.278007019257179522e+00
2.278007019257179522e+00
2.348884182256538722e+00
2.348884182256538722e+00
2.225880428479872997e+00
2.225880428479872997e+00
2.225880428479872997e+00
2.221380291146580532e+00
2.221380291146580532e+00
2.098376537369914807e+00
2.098376537369914807e+00
1.968622577593310385e+00
1.968622577593310385e+00
1.808867702261421462e+00
1.808867702261421462e+00
1.925871272927030420e+00
1.925871272927030420e+00
2.200754661702322146e+00
2.200754661702322146e+00
2.116752098147526517e+00
2.116752098147526517e+00
2.153315713980529011e+00
2.153315713980529011e+00
2.153315713980529011e+00
2.229630542924283532e+00
2.229630542924283532e+00
2.366697225867488541e+00
2.366697225867488541e+00
2.410386059144871140e+00
2.410386059144871140e+00
2.457074983977782345e+00
2.457074983977782345e+00
2.589266518143253926e+00
2.589266518143253926e+00
2.541640064699239865e+00
2.541640064699239865e+00
2.508826563310647906e+00
2.508826563310647906e+00
2.461762627033295736e+00
2.461762627033295736e+00
2.461762627033295736e+00
2.363509628589739453e+00
2.363509628589739453e+00
2.244443494979705633e+00
2.244443494979705633e+00
2.382447706534013054e+00
2.382447706534013054e+00
2.406448438978240567e+00
2.406448438978240567e+00
2.241630909146397510e+00
2.241630909146397510e+00
2.170003723258155937e+00
2.170003723258155937e+00
2.202442213202307375e+00
2.202442213202307375e+00
2.244443494979705633e+00
2.244443494979705633e+00
2.244443494979705633e+00
2.304445326090273749e+00
2.304445326090273749e+00
2.390885464033936536e+00
2.390885464033936536e+00
2.320570818201239227e+00
2.320570818201239227e+00
2.018874111148411643e+00
2.018874111148411643e+00
1.999936033204138486e+00
1.999936033204138486e+00
1.981185460982085589e+00
1.981185460982085589e+00
1.981185460982085589e+00
1.989248207037568328e+00
1.989248207037568328e+00
2.347384136478774419e+00
2.347384136478774419e+00
2.305195348979155678e+00
2.305195348979155678e+00
2.296382580034791232e+00
2.296382580034791232e+00
2.262069032868434526e+00
2.262069032868434526e+00
2.263756584368419311e+00
2.263756584368419311e+00
2.318508255256813033e+00
2.318508255256813033e+00
2.392760521256141804e+00
2.392760521256141804e+00
2.392760521256141804e+00
2.568828394421216466e+00
2.568828394421216466e+00
2.414136173589282119e+00
2.414136173589282119e+00
2.359196996978667915e+00
2.359196996978667915e+00
2.356571916867580274e+00
2.356571916867580274e+00
2.344571550645466296e+00
2.344571550645466296e+00
2.182941618091372327e+00
2.182941618091372327e+00
2.201317178868984037e+00
2.201317178868984037e+00
2.379635120700704931e+00
2.379635120700704931e+00
2.379635120700704931e+00
2.114127018036439321e+00
2.114127018036439321e+00
2.051687612537003602e+00
2.051687612537003602e+00
2.083751091036713632e+00
2.083751091036713632e+00
2.054125186925870761e+00
2.054125186925870761e+00
2.071375713370158689e+00
2.071375713370158689e+00
2.128564958647419569e+00
2.128564958647419569e+00
2.241068391979735619e+00
2.241068391979735619e+00
2.093313882869960452e+00
2.093313882869960452e+00
2.093313882869960452e+00
2.142627887813959298e+00
2.142627887813959298e+00
2.308757957701345731e+00
2.308757957701345731e+00
2.374009949034089573e+00
2.374009949034089573e+00
2.185754203924680450e+00
2.185754203924680450e+00
2.277632007812738557e+00
2.277632007812738557e+00
2.384322763756218322e+00
2.384322763756218322e+00
2.252506241035188150e+00
2.252506241035188150e+00
2.291132419812616394e+00
2.291132419812616394e+00
2.291132419812616394e+00
2.348134159367656792e+00
2.348134159367656792e+00
2.376822534867396808e+00
2.376822534867396808e+00
2.370822351756340485e+00
2.370822351756340485e+00
2.406448438978240567e+00
2.406448438978240567e+00
2.416386242255928352e+00
2.416386242255928352e+00
2.352071779534287366e+00
2.352071779534287366e+00
2.320008301034577336e+00
2.320008301034577336e+00
2.325258461256752618e+00
2.325258461256752618e+00
2.301632740256966070e+00
2.301632740256966070e+00
2.196067018646809643e+00
2.196067018646809643e+00
2.476763084810937876e+00
2.476763084810937876e+00
2.476763084810937876e+00
2.362009582811975594e+00
2.362009582811975594e+00
2.215942625202185212e+00
2.215942625202185212e+00
2.215005096591082356e+00
2.215005096591082356e+00
2.161753471480452937e+00
2.161753471480452937e+00
2.142440382091738371e+00
2.142440382091738371e+00
2.254006286812952009e+00
2.254006286812952009e+00
2.548015259254738041e+00
2.548015259254738041e+00
2.564515762810144484e+00
2.564515762810144484e+00
2.564515762810144484e+00
2.392760521256141804e+00
2.392760521256141804e+00
2.153315713980529011e+00
2.153315713980529011e+00
2.009123813592944341e+00
2.009123813592944341e+00
1.860619281594287022e+00
1.860619281594287022e+00
1.982685506759849892e+00
1.982685506759849892e+00
2.376447523422955843e+00
2.376447523422955843e+00
2.191379375591296252e+00
2.191379375591296252e+00
2.334446241645558029e+00
2.334446241645558029e+00
2.334446241645558029e+00
2.423323953978087530e+00
2.423323953978087530e+00
2.455574938200018487e+00
2.455574938200018487e+00
2.470762901699881109e+00
2.470762901699881109e+00
2.352634296700948813e+00
2.352634296700948813e+00
2.379447614978484449e+00
2.379447614978484449e+00
2.244255989257484707e+00
2.244255989257484707e+00
2.195129490035706787e+00
2.195129490035706787e+00
2.207692373424482213e+00
2.207692373424482213e+00
2.207692373424482213e+00
2.231505600146489243e+00
2.231505600146489243e+00
2.110939420758690233e+00
2.110939420758690233e+00
2.222505325479903426e+00
2.222505325479903426e+00
2.450324777977843649e+00
2.450324777977843649e+00
2.326195989867855030e+00
2.326195989867855030e+00
2.272006836146122755e+00
2.272006836146122755e+00
2.309507980590228104e+00
2.309507980590228104e+00
2.321320841090121156e+00
2.321320841090121156e+00
2.321320841090121156e+00
2.230193060090945423e+00
2.230193060090945423e+00
2.287944822534867306e+00
2.287944822534867306e+00
2.418448805200354101e+00
2.418448805200354101e+00
2.227942991424298746e+00
2.227942991424298746e+00
2.287382305368205859e+00
2.419948850978118404e+00
2.419948850978118404e+00
2.308757957701345731e+00
2.308757957701345731e+00
2.095376445814386202e+00
2.095376445814386202e+00
2.228130497146519229e+00
2.228130497146519229e+00
2.258318918424023991e+00
2.258318918424023991e+00
2.110939420758690233e+00
2.110939420758690233e+00
2.096876491592150504e+00
2.096876491592150504e+00
2.126127384258552855e+00
2.126127384258552855e+00
2.126127384258552855e+00
2.178628986480300345e+00
2.178628986480300345e+00
2.208817407757805107e+00
2.208817407757805107e+00
2.274069399090548504e+00
2.274069399090548504e+00
2.256631366924039650e+00
2.256631366924039650e+00
2.185754203924680450e+00
2.185754203924680450e+00
2.230193060090945423e+00
2.230193060090945423e+00
2.318695760979033516e+00
2.318695760979033516e+00
2.200567155980101663e+00
2.200567155980101663e+00
2.200567155980101663e+00
2.138315256202887316e+00
2.138315256202887316e+00
2.565265785699026413e+00
2.565265785699026413e+00
2.662956266975920805e+00
2.662956266975920805e+00
2.573516037476729856e+00
2.573516037476729856e+00
2.458762535477767130e+00
2.458762535477767130e+00
2.245193517868587563e+00
2.245193517868587563e+00
2.095751457258827610e+00
2.095751457258827610e+00
2.095751457258827610e+00
1.971810174871059473e+00
1.971810174871059473e+00
2.027686880092776089e+00
2.027686880092776089e+00
1.968060060426648716e+00
1.968060060426648716e+00
1.891745231482894418e+00
1.891745231482894418e+00
1.840743675038911231e+00
1.840743675038911231e+00
1.964309945982238181e+00
1.964309945982238181e+00
2.022061708426160731e+00
2.022061708426160731e+00
2.194004455702383449e+00
2.194004455702383449e+00
2.194004455702383449e+00
2.575203588976714197e+00
2.575203588976714197e+00
2.475450544755394056e+00
2.475450544755394056e+00
2.491388531144139051e+00
2.491388531144139051e+00
2.609142124698629495e+00
2.609142124698629495e+00
2.665581347087008446e+00
2.665581347087008446e+00
2.710582720419934866e+00
2.710582720419934866e+00
2.733645924253059523e+00
2.733645924253059523e+00
2.621142490920743473e+00
2.621142490920743473e+00
2.344759056367687222e+00
2.344759056367687222e+00
2.273694387646107540e+00
2.273694387646107540e+00
2.217255165257729033e+00
2.217255165257729033e+00
2.217255165257729033e+00
2.187254249702444309e+00
2.187254249702444309e+00
2.069125644703512901e+00
2.069125644703512901e+00
2.200379650257881181e+00
2.200379650257881181e+00
2.388072878200628413e+00
2.388072878200628413e+00
2.387697866756187448e+00
2.387697866756187448e+00
2.339696401867732423e+00
2.339696401867732423e+00
2.206192327646717910e+00
2.206192327646717910e+00
2.276506973479415219e+00
2.276506973479415219e+00
2.276506973479415219e+00
2.162128482924894346e+00
2.162128482924894346e+00
2.051312601092562637e+00
2.051312601092562637e+00
1.931308938871425740e+00
1.931308938871425740e+00
1.802680013428144212e+00
1.802680013428144212e+00
1.930558915982543589e+00
1.930558915982543589e+00
2.050750083925901190e+00
2.050750083925901190e+00
2.001436078981902345e+00
2.001436078981902345e+00
2.017374065370647340e+00
2.017374065370647340e+00
2.017374065370647340e+00
2.251006195257423848e+00
2.251006195257423848e+00
2.320008301034577336e+00
2.320008301034577336e+00
2.279882076479384789e+00
2.279882076479384789e+00
2.160815942869350526e+00
2.160815942869350526e+00
2.042124820703756782e+00
2.042124820703756782e+00
1.889682668538468668e+00
1.889682668538468668e+00
1.936559099093600356e+00
1.936559099093600356e+00
2.328446058534500818e+00
2.328446058534500818e+00
2.328446058534500818e+00
2.449949766533402684e+00
2.449949766533402684e+00
2.370259834589678594e+00
2.370259834589678594e+00
2.217630176702169997e+00
2.217630176702169997e+00
2.309320474868007622e+00
2.309320474868007622e+00
2.479388164922025517e+00
2.479388164922025517e+00
2.551015350810266202e+00
2.551015350810266202e+00
2.949465010528885767e+00
2.949465010528885767e+00
2.852899563585314713e+00
2.852899563585314713e+00
2.852899563585314713e+00
2.730083315530869470e+00
2.730083315530869470e+00
2.534702352977080686e+00
2.534702352977080686e+00
2.444137089144566399e+00
2.444137089144566399e+00
2.435136814477980582e+00
2.435136814477980582e+00
2.450512283700064131e+00
2.450512283700064131e+00
2.523827021088290046e+00
2.523827021088290046e+00
2.356571916867580274e+00
2.356571916867580274e+00
2.366509720145268059e+00
2.366509720145268059e+00
2.496638691366313889e+00
2.496638691366313889e+00
2.729708304086428505e+00
2.729708304086428505e+00
2.551015350810266202e+00
2.551015350810266202e+00
2.139815301980651618e+00
2.139815301980651618e+00
1.811680288094729585e+00
1.811680288094729585e+00
1.406105410931730137e+00
1.406105410931730137e+00
1.537359416486098862e+00
1.537359416486098862e+00
1.747178319650868339e+00
1.747178319650868339e+00
1.747178319650868339e+00
1.925496261482589233e+00
1.925496261482589233e+00
2.080000976592303541e+00
2.080000976592303541e+00
2.169441206091494490e+00
2.169441206091494490e+00
2.243880977813043742e+00
2.243880977813043742e+00
2.214255073702200427e+00
2.214255073702200427e+00
2.423323953978087530e+00
2.423323953978087530e+00
2.554952970976897664e+00
2.554952970976897664e+00
2.359947019867549844e+00
2.359947019867549844e+00
2.359947019867549844e+00
2.261881527146214044e+00
2.261881527146214044e+00
2.469262855922116806e+00
2.469262855922116806e+00
2.367447248756370914e+00
2.367447248756370914e+00
2.209754936368907963e+00
2.209754936368907963e+00
2.321695852534562121e+00
2.321695852534562121e+00
2.172628803369243577e+00
2.172628803369243577e+00
2.194566972869045340e+00
2.194566972869045340e+00
2.459325052644428578e+00
2.459325052644428578e+00
2.459325052644428578e+00
2.724270638142033185e+00
2.724270638142033185e+00
2.691269631031220300e+00
2.691269631031220300e+00
2.533014801477095901e+00
2.533014801477095901e+00
2.494013611255226248e+00
2.494013611255226248e+00
2.432136722922452865e+00
2.432136722922452865e+00
2.231693105868709726e+00
2.231693105868709726e+00
2.062750450148014725e+00
2.062750450148014725e+00
2.442074526200140649e+00
2.442074526200140649e+00
2.442074526200140649e+00
2.451824823755607952e+00
2.451824823755607952e+00
2.203754753257850751e+00
2.203754753257850751e+00
2.109626880703146412e+00
2.109626880703146412e+00
2.180316537980285130e+00
2.180316537980285130e+00
2.069875667592394830e+00
2.069875667592394830e+00
1.950809533982360344e+00
1.950809533982360344e+00
1.955497177037873513e+00
1.955497177037873513e+00
1.951559556871242496e+00
1.951559556871242496e+00
2.104564226203192501e+00
2.104564226203192501e+00
2.210879970702230857e+00
2.210879970702230857e+00
2.320758323923459709e+00
2.320758323923459709e+00
2.256631366924039650e+00
2.256631366924039650e+00
2.256631366924039650e+00
2.280819605090487201e+00
2.280819605090487201e+00
2.743208716086306342e+00
2.743208716086306342e+00
2.578953703421124732e+00
2.578953703421124732e+00
2.616829859309671491e+00
2.616829859309671491e+00
2.686394482253486871e+00
2.686394482253486871e+00
2.701769951475569975e+00
2.701769951475569975e+00
2.558328073976867234e+00
2.558328073976867234e+00
2.387510361033966966e+00
2.387510361033966966e+00
2.387510361033966966e+00
2.437011871700186294e+00
2.437011871700186294e+00
2.135127658925138228e+00
2.135127658925138228e+00
2.067250587481307633e+00
2.067250587481307633e+00
1.899620471816156453e+00
1.899620471816156453e+00
1.837368572038941661e+00
1.837368572038941661e+00
1.871682119205298145e+00
1.871682119205298145e+00
2.207504867702261730e+00
2.207504867702261730e+00
2.207504867702261730e+00
2.556640522476882449e+00
2.556640522476882449e+00
2.275381939146092325e+00
2.275381939146092325e+00
2.159503402813806705e+00
2.159503402813806705e+00
1.925308755760368751e+00
1.925308755760368751e+00
1.921558641315958216e+00
1.921558641315958216e+00
2.033874568926053783e+00
2.033874568926053783e+00
2.326758507034516477e+00
2.326758507034516477e+00
2.398010681478316641e+00
2.398010681478316641e+00
2.398010681478316641e+00
2.076625873592333971e+00
2.076625873592333971e+00
2.053937681203650278e+00
2.053937681203650278e+00
2.120689718314157535e+00
2.120689718314157535e+00
2.016436536759544484e+00
2.016436536759544484e+00
2.009123813592944341e+00
2.009123813592944341e+00
2.338383861812189490e+00
2.338383861812189490e+00
2.457637501144443792e+00
2.457637501144443792e+00
2.571453474532304107e+00
2.571453474532304107e+00
2.571453474532304107e+00
2.717520432142094045e+00
2.717520432142094045e+00
2.649080843531602003e+00
2.649080843531602003e+00
2.499826288644062977e+00
2.499826288644062977e+00
2.516139286477248493e+00
2.516139286477248493e+00
2.688832056642353585e+00
2.688832056642353585e+00
2.466075258644368162e+00
2.466075258644368162e+00
2.010623859370708644e+00
2.010623859370708644e+00
1.871869624927518627e+00
1.860056764427625353e+00
1.860056764427625353e+00
1.828368297372356288e+00
1.828368297372356288e+00
1.828368297372356288e+00
1.896057863093966622e+00
1.896057863093966622e+00
2.397073152867214230e+00
2.397073152867214230e+00
2.382635212256233537e+00
2.382635212256233537e+00
2.433824274422437206e+00
2.433824274422437206e+00
2.673831598864711445e+00
2.673831598864711445e+00
2.796460341196936206e+00
2.796460341196936206e+00
2.659768669698171717e+00
2.659768669698171717e+00
2.509201574755088870e+00
2.509201574755088870e+00
2.509201574755088870e+00
2.443949583422345917e+00
2.443949583422345917e+00
2.137565233314004942e+00
2.137565233314004942e+00
2.207692373424482213e+00
2.207692373424482213e+00
2.286819788201544412e+00
2.286819788201544412e+00
2.096688985869930022e+00
2.096688985869930022e+00
1.743990722373119473e+00
1.743990722373119473e+00
1.913308389538254994e+00
1.913308389538254994e+00
2.441699514755699685e+00
2.441699514755699685e+00
2.441699514755699685e+00
2.373259926145207199e+00
2.373259926145207199e+00
2.385260292367321178e+00
2.385260292367321178e+00
2.558890591143528681e+00
2.558890591143528681e+00
2.620954985198522547e+00
2.620954985198522547e+00
2.561328165532395840e+00
2.561328165532395840e+00
2.404573381756035300e+00
2.404573381756035300e+00
2.369697317423017147e+00
2.369697317423017147e+00
2.154065736869411385e+00
2.154065736869411385e+00
2.154065736869411385e+00
2.130065004425183872e+00
2.130065004425183872e+00
2.161753471480452937e+00
2.161753471480452937e+00
2.148065553758354618e+00
2.148065553758354618e+00
2.054312692648091243e+00
2.054312692648091243e+00
2.424261482589190386e+00
2.424261482589190386e+00
2.687144505142368800e+00
2.687144505142368800e+00
2.440386974700155864e+00
2.440386974700155864e+00
2.310070497756889552e+00
2.310070497756889552e+00
2.310070497756889552e+00
2.257381389812921579e+00
2.257381389812921579e+00
2.053937681203650278e+00
2.053937681203650278e+00
1.833805963316751608e+00
1.833805963316751608e+00
1.900933011871700273e+00
1.900933011871700273e+00
2.053937681203650278e+00
2.053937681203650278e+00
2.148628070925016065e+00
2.148628070925016065e+00
2.358634479812006024e+00
2.358634479812006024e+00
2.506013977477339782e+00
2.506013977477339782e+00
2.576141117587817053e+00
2.576141117587817053e+00
2.476388073366496911e+00
2.476388073366496911e+00
2.543702627643666059e+00
2.543702627643666059e+00
2.543702627643666059e+00
2.289069856868190644e+00
2.289069856868190644e+00
2.019249122592852608e+00
2.019249122592852608e+00
1.946871913815729327e+00
1.946871913815729327e+00
1.817492965483565870e+00
1.817492965483565870e+00
1.695989257484664448e+00
1.695989257484664448e+00
1.569985412152470561e+00
1.569985412152470561e+00
1.649675344096194429e+00
1.649675344096194429e+00
1.763866328928495042e+00
1.763866328928495042e+00
1.763866328928495042e+00
2.055062715536973172e+00
2.055062715536973172e+00
2.247256080813012868e+00
2.247256080813012868e+00
2.484075807977538464e+00
2.484075807977538464e+00
2.740771141697439628e+00
2.740771141697439628e+00
3.018092104861598735e+00
3.018092104861598735e+00
3.386353343302713093e+00
3.386353343302713093e+00
3.086719199194311702e+00
3.086719199194311702e+00
2.900713522751549256e+00
2.900713522751549256e+00
2.900713522751549256e+00
2.687144505142368800e+00
2.687144505142368800e+00
2.467950315866573430e+00
2.467950315866573430e+00
2.357884456923124095e+00
2.357884456923124095e+00
2.332571184423352761e+00
2.332571184423352761e+00
2.351134250923184954e+00
2.351134250923184954e+00
2.128002441480758122e+00
2.128002441480758122e+00
2.171128757591479275e+00
2.171128757591479275e+00
2.152378185369426600e+00
2.152378185369426600e+00
2.152378185369426600e+00
2.152003173924985191e+00
2.152003173924985191e+00
2.066313058870204777e+00
2.066313058870204777e+00
2.161190954313791490e+00
2.161190954313791490e+00
2.377760063478499664e+00
2.377760063478499664e+00
2.233568163090914993e+00
2.233568163090914993e+00
2.258881435590685438e+00
2.258881435590685438e+00
2.345884090701010116e+00
2.345884090701010116e+00
2.201692190313425002e+00
2.201692190313425002e+00
2.201692190313425002e+00
2.046062440870388244e+00
2.046062440870388244e+00
2.077750907925656865e+00
2.077750907925656865e+00
2.189504318369090985e+00
2.189504318369090985e+00
2.246506057924130939e+00
2.246506057924130939e+00
2.312320566423536228e+00
2.312320566423536228e+00
2.210692464980010374e+00
2.110564409314249268e+00
2.110564409314249268e+00
1.963934934537797217e+00
1.963934934537797217e+00
2.502076357310709209e+00
2.502076357310709209e+00
2.627892696920682614e+00
2.627892696920682614e+00
2.273694387646107540e+00
2.273694387646107540e+00
2.209192419202246516e+00
2.209192419202246516e+00
2.201129673146763555e+00
2.201129673146763555e+00
2.122002258369701355e+00
2.122002258369701355e+00
2.122002258369701355e+00
2.137752739036225869e+00
2.137752739036225869e+00
2.308945463423566213e+00
2.308945463423566213e+00
2.246693563646351421e+00
2.246693563646351421e+00
2.096126468703268575e+00
2.096126468703268575e+00
2.164003540147099169e+00
2.164003540147099169e+00
2.223630359813226764e+00
2.223630359813226764e+00
2.133815118869594407e+00
2.133815118869594407e+00
2.122752281258583285e+00
2.122752281258583285e+00
2.122752281258583285e+00
2.537139927365947845e+00
2.537139927365947845e+00
2.490638508255257122e+00
2.490638508255257122e+00
2.461950132755516218e+00
2.461950132755516218e+00
2.447324686422315043e+00
2.447324686422315043e+00
2.235630726035340299e+00
2.235630726035340299e+00
2.099876583147679110e+00
2.099876583147679110e+00
2.293007477034821662e+00
2.293007477034821662e+00
2.492701071199682428e+00
2.492701071199682428e+00
2.492701071199682428e+00
2.327321024201178368e+00
2.327321024201178368e+00
2.265069124423963132e+00
2.265069124423963132e+00
2.290194891201513983e+00
2.290194891201513983e+00
2.340071413312173831e+00
2.340071413312173831e+00
2.224942899868770141e+00
2.224942899868770141e+00
2.275006927701650916e+00
2.275006927701650916e+00
2.542202581865901756e+00
2.542202581865901756e+00
2.362384594256416559e+00
2.362384594256416559e+00
2.362384594256416559e+00
2.364072145756401344e+00
2.364072145756401344e+00
2.404948393200476264e+00
2.404948393200476264e+00
2.325258461256752618e+00
2.325258461256752618e+00
2.271256813257240381e+00
2.271256813257240381e+00
2.275194433423871843e+00
2.275194433423871843e+00
2.356571916867580274e+00
2.356571916867580274e+00
2.224755394146549659e+00
2.224755394146549659e+00
2.277819513534959039e+00
2.277819513534959039e+00
2.120502212591937052e+00
2.120502212591937052e+00
1.861181798760948691e+00
1.861181798760948691e+00
1.709302163762321802e+00
1.709302163762321802e+00
1.972560197759941625e+00
1.972560197759941625e+00
1.972560197759941625e+00
2.140190313425092139e+00
2.140190313425092139e+00
2.066313058870204777e+00
2.066313058870204777e+00
2.137377727591784460e+00
2.137377727591784460e+00
2.175066377758110736e+00
2.175066377758110736e+00
2.166816125980407293e+00
2.166816125980407293e+00
2.095751457258827610e+00
2.095751457258827610e+00
2.204129764702292160e+00
2.204129764702292160e+00
2.462887661366619074e+00
2.462887661366619074e+00
2.462887661366619074e+00
2.674769127475814301e+00
2.674769127475814301e+00
2.735520981475264790e+00
2.735520981475264790e+00
2.835461531418805414e+00
2.835461531418805414e+00
2.767959471419415785e+00
2.767959471419415785e+00
2.553265419476912879e+00
2.553265419476912879e+00
2.698019837031159440e+00
2.698019837031159440e+00
2.500013794366283459e+00
2.500013794366283459e+00
2.283632190923795324e+00
2.283632190923795324e+00
2.283632190923795324e+00
2.255131321146275347e+00
2.255131321146275347e+00
2.272569353312784202e+00
2.272569353312784202e+00
2.279507065034943825e+00
2.279507065034943825e+00
2.263569078646198829e+00
2.263569078646198829e+00
2.284382213812677254e+00
2.284382213812677254e+00
2.012686422315133949e+00
2.012686422315133949e+00
1.889307657094027704e+00
1.889307657094027704e+00
1.952684591204565612e+00
1.952684591204565612e+00
1.952684591204565612e+00
2.089563768425550361e+00
2.089563768425550361e+00
2.001623584704122827e+00
2.001623584704122827e+00
1.987185644093142578e+00
1.987185644093142578e+00
2.486700888088625661e+00
2.486700888088625661e+00
2.460262581255531433e+00
2.460262581255531433e+00
2.409261024811548246e+00
2.409261024811548246e+00
2.303695303201391820e+00
2.303695303201391820e+00
2.228318002868740155e+00
2.228318002868740155e+00
2.228318002868740155e+00
2.264881618701742649e+00
2.264881618701742649e+00
2.337258827478866152e+00
2.337258827478866152e+00
2.510701620532853173e+00
2.510701620532853173e+00
2.362384594256416559e+00
2.362384594256416559e+00
2.285319742423780109e+00
2.285319742423780109e+00
2.168316171758171151e+00
2.179566515091402756e+00
2.179566515091402756e+00
2.040812280648213406e+00
2.040812280648213406e+00
2.119752189703054679e+00
2.119752189703054679e+00
2.301257728812525105e+00
2.301257728812525105e+00
2.190629352702413879e+00
2.190629352702413879e+00
2.233943174535355514e+00
2.233943174535355514e+00
2.261131504257332114e+00
2.261131504257332114e+00
2.260756492812891150e+00
2.260756492812891150e+00
2.262444044312875935e+00
2.262444044312875935e+00
2.262444044312875935e+00
2.292257454145939732e+00
2.292257454145939732e+00
2.278944547868282378e+00
2.278944547868282378e+00
2.147503036591693171e+00
2.147503036591693171e+00
2.146565507980590315e+00
2.146565507980590315e+00
2.171878780480361648e+00
2.171878780480361648e+00
2.167566148869289222e+00
2.167566148869289222e+00
2.200004638813440216e+00
2.200004638813440216e+00
2.643268166142765718e+00
2.643268166142765718e+00
2.643268166142765718e+00
2.775459700308236854e+00
2.775459700308236854e+00
2.549702810754722826e+00
2.549702810754722826e+00
2.419011322367015993e+00
2.419011322367015993e+00
2.433449262977995797e+00
2.433449262977995797e+00
2.454637409588916075e+00
2.454637409588916075e+00
2.483700796533097499e+00
2.483700796533097499e+00
2.488013428144169481e+00
2.488013428144169481e+00
2.364822168645283273e+00
2.364822168645283273e+00
2.364822168645283273e+00
2.188379284035767647e+00
2.188379284035767647e+00
2.147315530869472244e+00
2.147315530869472244e+00
2.167566148869289222e+00
2.167566148869289222e+00
2.081126010925626435e+00
2.081126010925626435e+00
2.024874294259468410e+00
2.024874294259468410e+00
2.330321115756706529e+00
2.330321115756706529e+00
2.169441206091494490e+00
2.169441206091494490e+00
2.068188116092410045e+00
2.068188116092410045e+00
2.068188116092410045e+00
2.080750999481185470e+00
2.080750999481185470e+00
2.083188573870052185e+00
2.083188573870052185e+00
2.092938871425519931e+00
2.092938871425519931e+00
2.134377636036255854e+00
2.134377636036255854e+00
2.325445966978973100e+00
2.325445966978973100e+00
2.295257545701467894e+00
2.295257545701467894e+00
2.364447157200842309e+00
2.364447157200842309e+00
2.350009216589862060e+00
2.350009216589862060e+00
2.419573839533677440e+00
2.419573839533677440e+00
2.267506698812830290e+00
2.267506698812830290e+00
2.245568529313028083e+00
2.245568529313028083e+00
2.529077181310464884e+00
2.529077181310464884e+00
2.529077181310464884e+00
2.392385509811700839e+00
2.392385509811700839e+00
2.397260658589434712e+00
2.397260658589434712e+00
2.333696218756676100e+00
2.333696218756676100e+00
2.223067842646564873e+00
2.223067842646564873e+00
2.180316537980285130e+00
2.180316537980285130e+00
2.203754753257850751e+00
2.203754753257850751e+00
2.362197088534196077e+00
2.362197088534196077e+00
2.215942625202185212e+00
2.215942625202185212e+00
2.215942625202185212e+00
2.233193151646474028e+00
2.233193151646474028e+00
2.192316904202398664e+00
2.192316904202398664e+00
2.166441114535965884e+00
2.166441114535965884e+00
2.004061159092989985e+00
2.004061159092989985e+00
2.113189489425336465e+00
2.113189489425336465e+00
2.290382396923734465e+00
2.290382396923734465e+00
2.164566057313760616e+00
2.164566057313760616e+00
2.201129673146763555e+00
2.201129673146763555e+00
2.201129673146763555e+00
2.275006927701650916e+00
2.275006927701650916e+00
2.305757866145817125e+00
2.305757866145817125e+00
2.270506790368358452e+00
2.270506790368358452e+00
2.298257637256996500e+00
2.298257637256996500e+00
2.250068666646320992e+00
2.250068666646320992e+00
2.125752372814111890e+00
2.125752372814111890e+00
2.138690267647328280e+00
2.138690267647328280e+00
2.277444502090518075e+00
2.277444502090518075e+00
2.277444502090518075e+00
2.386760338145085036e+00
2.386760338145085036e+00
2.434199285866878171e+00
2.434199285866878171e+00
2.728020752586443720e+00
2.728020752586443720e+00
2.679269264809107209e+00
2.679269264809107209e+00
2.525702078310495757e+00
2.525702078310495757e+00
2.510326609088412209e+00
2.510326609088412209e+00
2.444887112033448329e+00
2.444887112033448329e+00
2.301257728812525105e+00
2.301257728812525105e+00
2.301257728812525105e+00
2.245756035035248566e+00
2.245756035035248566e+00
2.323008392590105942e+00
2.323008392590105942e+00
2.238255806146427940e+00
2.238255806146427940e+00
2.158378368480483367e+00
2.158378368480483367e+00
2.093688894314401416e+00
2.093688894314401416e+00
2.075875850703451597e+00
1.971997680593279956e+00
1.971997680593279956e+00
1.949309488204596263e+00
1.949309488204596263e+00
2.363509628589739453e+00
2.363509628589739453e+00
2.363509628589739453e+00
2.217442670979949515e+00
2.217442670979949515e+00
2.198317087313455875e+00
2.198317087313455875e+00
2.247256080813012868e+00
2.247256080813012868e+00
2.353571825312051669e+00
2.353571825312051669e+00
2.455574938200018487e+00
2.455574938200018487e+00
2.421448896755882263e+00
2.421448896755882263e+00
2.372509903256325270e+00
2.372509903256325270e+00
2.089563768425550361e+00
2.089563768425550361e+00
2.089563768425550361e+00
2.066500564592425260e+00
2.066500564592425260e+00
2.120314706869716570e+00
2.120314706869716570e+00
2.261506515701773079e+00
2.261506515701773079e+00
2.211254982146671821e+00
2.211254982146671821e+00
2.370634846034120002e+00
2.370634846034120002e+00
2.655456038087100179e+00
2.655456038087100179e+00
2.444887112033448329e+00
2.444887112033448329e+00
2.444887112033448329e+00
2.353946836756492633e+00
2.353946836756492633e+00
2.324320932645649762e+00
2.324320932645649762e+00
2.274819421979430434e+00
2.274819421979430434e+00
2.247443586535233351e+00
2.247443586535233351e+00
2.226630451368755370e+00
2.226630451368755370e+00
2.226442945646534444e+00
2.226442945646534444e+00
2.080000976592303541e+00
2.080000976592303541e+00
2.127252418591876193e+00
2.127252418591876193e+00
2.127252418591876193e+00
2.162878505813776275e+00
2.162878505813776275e+00
2.131002533036286284e+00
2.131002533036286284e+00
2.056750267036957958e+00
2.056750267036957958e+00
2.321883358256782603e+00
2.321883358256782603e+00
2.488763451033051854e+00
2.488763451033051854e+00
2.356946928312021239e+00
2.356946928312021239e+00
2.303507797479171337e+00
2.303507797479171337e+00
2.282319650868251504e+00
2.282319650868251504e+00
2.282319650868251504e+00
2.288507339701529197e+00
2.288507339701529197e+00
2.286257271034882521e+00
2.286257271034882521e+00
2.320570818201239227e+00
2.320570818201239227e+00
2.236193243202001746e+00
2.236193243202001746e+00
2.080750999481185470e+00
2.080750999481185470e+00
2.037249671926022909e+00
2.037249671926022909e+00
2.015123996704001108e+00
2.015123996704001108e+00
1.965809991760002484e+00
1.965809991760002484e+00
2.043437360759300603e+00
2.043437360759300603e+00
2.043437360759300603e+00
2.557015533921323414e+00
2.557015533921323414e+00
2.667456404309213713e+00
2.667456404309213713e+00
2.705707571642200993e+00
2.705707571642200993e+00
2.675144138920255266e+00
2.675144138920255266e+00
2.578391186254463285e+00
2.578391186254463285e+00
2.439261940366832526e+00
2.439261940366832526e+00
2.394073061311685624e+00
2.394073061311685624e+00
2.462887661366619074e+00
2.462887661366619074e+00
2.462887661366619074e+00
2.290944914090395912e+00
2.290944914090395912e+00
2.233755668813135031e+00
2.233755668813135031e+00
2.215755119479964730e+00
2.215755119479964730e+00
2.218192693868831444e+00
2.218192693868831444e+00
2.066875576036866669e+00
2.066875576036866669e+00
2.098376537369914807e+00
2.098376537369914807e+00
2.414886196478164049e+00
2.414886196478164049e+00
2.231505600146489243e+00
2.231505600146489243e+00
2.231505600146489243e+00
2.182191595202490397e+00
2.182191595202490397e+00
2.167003631702627775e+00
2.167003631702627775e+00
2.122002258369701355e+00
2.122002258369701355e+00
2.100251594592120075e+00
2.100251594592120075e+00
2.127627430036317158e+00
2.127627430036317158e+00
2.256256355479598685e+00
2.256256355479598685e+00
2.162878505813776275e+00
2.162878505813776275e+00
2.178066469313638454e+00
2.178066469313638454e+00
2.178066469313638454e+00
2.212567522202215642e+00
2.212567522202215642e+00
2.279132053590502860e+00
2.279132053590502860e+00
2.249506149479659545e+00
2.249506149479659545e+00
2.435136814477980582e+00
2.435136814477980582e+00
2.554952970976897664e+00
2.554952970976897664e+00
2.362572099978637485e+00
2.362572099978637485e+00
2.275944456312753772e+00
2.275944456312753772e+00
2.231693105868709726e+00
2.231693105868709726e+00
2.231693105868709726e+00
2.213317545091097571e+00
2.213317545091097571e+00
2.208629902035584625e+00
2.208629902035584625e+00
2.227755485702078264e+00
2.227755485702078264e+00
2.191004364146854844e+00
2.191004364146854844e+00
2.092376354258858040e+00
2.092376354258858040e+00
2.152940702536088047e+00
2.152940702536088047e+00
2.190066835535752432e+00
2.190066835535752432e+00
2.218192693868831444e+00
2.255318826868495830e+00
2.255318826868495830e+00
2.591516586809900158e+00
2.591516586809900158e+00
2.597141758476516404e+00
2.597141758476516404e+00
2.431574205755790974e+00
2.431574205755790974e+00
2.367259743034150432e+00
2.367259743034150432e+00
2.367259743034150432e+00
2.347946653645436310e+00
2.347946653645436310e+00
2.296195074312570750e+00
2.296195074312570750e+00
2.248568620868556689e+00
2.248568620868556689e+00
2.277632007812738557e+00
2.277632007812738557e+00
2.185004181035798521e+00
2.185004181035798521e+00
2.102314157536546269e+00
2.102314157536546269e+00
2.070813196203497242e+00
2.070813196203497242e+00
2.078875942258980203e+00
2.078875942258980203e+00
2.078875942258980203e+00
1.997873470259712514e+00
1.997873470259712514e+00
1.970685140537736135e+00
1.970685140537736135e+00
2.413761162144840711e+00
2.413761162144840711e+00
2.435886837366862956e+00
2.435886837366862956e+00
2.429136631366924259e+00
2.429136631366924259e+00
2.454449903866695148e+00
2.454449903866695148e+00
2.406635944700461049e+00
2.406635944700461049e+00
2.358821985534226506e+00
2.358821985534226506e+00
2.358821985534226506e+00
2.349821710867641578e+00
2.349821710867641578e+00
2.442637043366802097e+00
2.442637043366802097e+00
2.303507797479171337e+00
2.303507797479171337e+00
2.276694479201635701e+00
2.276694479201635701e+00
2.242380932035279439e+00
2.242380932035279439e+00
2.240693380535294654e+00
2.240693380535294654e+00
2.052812646870326940e+00
2.052812646870326940e+00
2.048125003814813549e+00
2.048125003814813549e+00
2.296195074312570750e+00
2.296195074312570750e+00
2.296195074312570750e+00
2.163441022980437278e+00
2.163441022980437278e+00
2.139252784813989727e+00
2.139252784813989727e+00
2.141877864925076924e+00
2.141877864925076924e+00
2.139627796258431136e+00
2.139627796258431136e+00
2.175816400646992221e+00
2.175816400646992221e+00
2.289632374034852091e+00
2.289632374034852091e+00
2.510326609088412209e+00
2.510326609088412209e+00
2.439074434644612044e+00
2.439074434644612044e+00
2.439074434644612044e+00
2.406635944700461049e+00
2.406635944700461049e+00
2.402323313089388623e+00
2.402323313089388623e+00
2.362009582811975594e+00
2.362009582811975594e+00
2.241818414868617992e+00
2.241818414868617992e+00
2.409261024811548246e+00
2.409261024811548246e+00
2.489325968199713301e+00
2.489325968199713301e+00
2.278194524979400004e+00
2.278194524979400004e+00
2.165316080202642990e+00
2.165316080202642990e+00
2.089938779869991325e+00
2.089938779869991325e+00
2.070063173314615312e+00
2.070063173314615312e+00
2.120877224036378017e+00
2.120877224036378017e+00
2.120877224036378017e+00
2.218192693868831444e+00
2.218192693868831444e+00
2.264881618701742649e+00
2.264881618701742649e+00
2.265444135868404540e+00
2.265444135868404540e+00
2.309507980590228104e+00
2.309507980590228104e+00
2.341946470534379099e+00
2.341946470534379099e+00
2.257568895535142062e+00
2.257568895535142062e+00
2.169441206091494490e+00
2.169441206091494490e+00
2.521576952421643814e+00
2.521576952421643814e+00
2.481263222144230340e+00
2.481263222144230340e+00
2.481263222144230340e+00
2.375509994811853431e+00
2.375509994811853431e+00
2.337633838923307117e+00
2.337633838923307117e+00
2.307632923368022837e+00
2.307632923368022837e+00
2.302945280312509890e+00
2.302945280312509890e+00
2.301445234534745587e+00
2.301445234534745587e+00
2.384510269478438804e+00
2.384510269478438804e+00
2.265256630146183614e+00
2.265256630146183614e+00
2.213130039368877089e+00
2.213130039368877089e+00
2.213130039368877089e+00
2.219317728202154782e+00
2.219317728202154782e+00
2.236005737479781263e+00
2.236005737479781263e+00
2.095376445814386202e+00
2.095376445814386202e+00
2.123877315591906623e+00
2.123877315591906623e+00
2.461950132755516218e+00
2.461950132755516218e+00
2.289819879757073018e+00
2.289819879757073018e+00
2.259443952757347329e+00
2.259443952757347329e+00
2.259443952757347329e+00
2.282882168034912951e+00
2.282882168034912951e+00
2.286819788201544412e+00
2.286819788201544412e+00
2.260568987090670667e+00
2.260568987090670667e+00
2.246506057924130939e+00
2.246506057924130939e+00
2.337633838923307117e+00
2.337633838923307117e+00
2.171503769035920239e+00
2.171503769035920239e+00
2.164941068758201581e+00
2.164941068758201581e+00
2.128564958647419569e+00
2.128564958647419569e+00
2.128564958647419569e+00
2.100251594592120075e+00
1.994873378704184130e+00
2.140752830591753586e+00
2.140752830591753586e+00
2.394260567033906106e+00
2.394260567033906106e+00
2.285319742423780109e+00
2.285319742423780109e+00
2.279319559312723342e+00
2.279319559312723342e+00
2.334821253089998994e+00
2.334821253089998994e+00
2.342696493423261028e+00
2.342696493423261028e+00
2.342696493423261028e+00
2.354696859645375007e+00
2.354696859645375007e+00
2.434011780144657688e+00
2.434011780144657688e+00
2.479388164922025517e+00
2.479388164922025517e+00
2.338008850367748082e+00
2.338008850367748082e+00
2.288507339701529197e+00
2.288507339701529197e+00
2.249506149479659545e+00
2.249506149479659545e+00
2.187066743980223826e+00
2.187066743980223826e+00
2.098189031647694325e+00
2.098189031647694325e+00
2.098189031647694325e+00
2.323008392590105942e+00
2.323008392590105942e+00
2.366509720145268059e+00
2.366509720145268059e+00
2.271819330423901828e+00
2.271819330423901828e+00
2.262444044312875935e+00
2.262444044312875935e+00
2.253256263924070080e+00
2.253256263924070080e+00
2.252131229590746742e+00
2.252131229590746742e+00
2.263381572923978347e+00
2.263381572923978347e+00
2.335383770256660885e+00
2.335383770256660885e+00
2.295070039979247412e+00
2.295070039979247412e+00
2.295070039979247412e+00
2.251756218146305777e+00
2.251756218146305777e+00
2.272194341868343237e+00
2.272194341868343237e+00
2.322445875423444495e+00
2.322445875423444495e+00
2.206379833368938392e+00
2.206379833368938392e+00
2.088626239814447505e+00
2.088626239814447505e+00
2.387697866756187448e+00
2.387697866756187448e+00
2.288507339701529197e+00
2.288507339701529197e+00
2.229443037202063049e+00
2.229443037202063049e+00
2.229443037202063049e+00
2.272006836146122755e+00
2.272006836146122755e+00
2.292444959868159771e+00
2.292444959868159771e+00
2.304820337534714714e+00
2.304820337534714714e+00
2.337071321756645670e+00
2.337071321756645670e+00
2.466825281533250092e+00
2.466825281533250092e+00
2.317758232367931104e+00
2.317758232367931104e+00
2.248756126590777171e+00
2.248756126590777171e+00
2.222505325479903426e+00
2.222505325479903426e+00
2.222505325479903426e+00
2.216505142368846659e+00
2.216505142368846659e+00
2.069688161870173904e+00
2.069688161870173904e+00
2.101001617481002448e+00
2.101001617481002448e+00
2.375697500534073914e+00
2.375697500534073914e+00
2.221755302591021497e+00
2.221755302591021497e+00
2.184066652424695665e+00
2.184066652424695665e+00
2.223067842646564873e+00
2.223067842646564873e+00
2.218942716757713818e+00
2.218942716757713818e+00
2.214255073702200427e+00
2.214255073702200427e+00
2.214255073702200427e+00
2.276131962034974254e+00
2.276131962034974254e+00
2.400635761589403838e+00
2.400635761589403838e+00
2.249318643757439062e+00
2.249318643757439062e+00
2.238068300424207457e+00
2.238068300424207457e+00
2.263944090090640238e+00
2.263944090090640238e+00
2.285132236701559627e+00
2.285132236701559627e+00
2.253443769646290562e+00
2.253443769646290562e+00
2.253443769646290562e+00
2.442262031922361132e+00
2.442262031922361132e+00
2.551952879421369058e+00
2.551952879421369058e+00
2.376260017700735361e+00
2.376260017700735361e+00
2.305945371868038052e+00
2.305945371868038052e+00
2.270506790368358452e+00
2.270506790368358452e+00
2.239380840479750834e+00
2.239380840479750834e+00
2.212380016479995160e+00
2.212380016479995160e+00
2.252318735312967224e+00
2.252318735312967224e+00
2.252318735312967224e+00
2.236568254646443155e+00
2.236568254646443155e+00
2.102501663258766751e+00
2.102501663258766751e+00
2.017936582537308787e+00
2.017936582537308787e+00
1.999561021759697299e+00
1.999561021759697299e+00
1.962247383037812432e+00
1.962247383037812432e+00
1.965809991760002484e+00
1.965809991760002484e+00
2.330696127201147494e+00
2.330696127201147494e+00
2.388635395367290304e+00
2.388635395367290304e+00
2.388635395367290304e+00
2.386197820978423145e+00
2.386197820978423145e+00
2.500576311532944906e+00
2.500576311532944906e+00
2.576141117587817053e+00
2.576141117587817053e+00
2.574828577532273233e+00
2.574828577532273233e+00
2.544827661976988953e+00
2.544827661976988953e+00
2.591516586809900158e+00
2.591516586809900158e+00
2.434386791589098653e+00
2.434386791589098653e+00
2.305945371868038052e+00
2.305945371868038052e+00
2.305945371868038052e+00
2.203567247535630269e+00
2.203567247535630269e+00
2.148253059480575100e+00
2.148253059480575100e+00
2.008748802148503376e+00
1.987748161259804025e+00
1.987748161259804025e+00
2.331821161534470832e+00
2.331821161534470832e+00
2.220630268257698603e+00
2.220630268257698603e+00
2.197942075869014911e+00
2.197942075869014911e+00
2.268069215979491737e+00
2.268069215979491737e+00
2.297882625812555535e+00
2.297882625812555535e+00
2.306882900479140464e+00
2.306882900479140464e+00
2.288319833979308715e+00
2.288319833979308715e+00
2.288319833979308715e+00
2.407573473311563461e+00
2.407573473311563461e+00
2.274631916257209951e+00
2.274631916257209951e+00
2.250256172368541474e+00
2.250256172368541474e+00
2.189879329813531950e+00
2.189879329813531950e+00
2.142252876369517889e+00
2.142252876369517889e+00
2.019436628315073090e+00
2.019436628315073090e+00
2.154628254036072832e+00
2.154628254036072832e+00
2.397073152867214230e+00
2.397073152867214230e+00
2.397073152867214230e+00
2.268256721701712220e+00
2.268256721701712220e+00
2.283632190923795324e+00
2.283632190923795324e+00
2.307820429090243319e+00
2.307820429090243319e+00
2.346821619312112972e+00
2.346821619312112972e+00
2.421636402478102745e+00
2.421636402478102745e+00
2.480138187810907002e+00
2.480138187810907002e+00
2.499076265755180604e+00
2.499076265755180604e+00
2.361259559923093665e+00
2.361259559923093665e+00
2.361259559923093665e+00
2.317570726645710621e+00
2.317570726645710621e+00
2.259443952757347329e+00
2.259443952757347329e+00
2.175066377758110736e+00
2.175066377758110736e+00
2.083563585314493150e+00
2.083563585314493150e+00
2.303882808923612302e+00
2.303882808923612302e+00
2.382447706534013054e+00
2.382447706534013054e+00
2.273694387646107540e+00
2.273694387646107540e+00
2.260568987090670667e+00
2.260568987090670667e+00
2.260568987090670667e+00
2.243693472090823260e+00
2.243693472090823260e+00
2.223442854091006282e+00
2.223442854091006282e+00
2.232443128757591655e+00
2.232443128757591655e+00
2.329196081423383191e+00
2.329196081423383191e+00
2.296382580034791232e+00
2.296382580034791232e+00
2.231880611590930208e+00
2.231880611590930208e+00
2.216130130924405695e+00
2.216130130924405695e+00
2.218942716757713818e+00
2.218942716757713818e+00
2.113001983703115982e+00
2.113001983703115982e+00
2.113001983703115982e+00
2.028811914426099428e+00
2.028811914426099428e+00
2.344759056367687222e+00
2.344759056367687222e+00
2.248756126590777171e+00
2.248756126590777171e+00
2.178628986480300345e+00
2.178628986480300345e+00
2.177316446424756524e+00
2.177316446424756524e+00
2.173566331980346433e+00
2.173566331980346433e+00
2.213880062257759462e+00
2.213880062257759462e+00
2.263194067201757864e+00
2.263194067201757864e+00
2.263194067201757864e+00
2.421823908200323228e+00
2.421823908200323228e+00
2.349259193700979687e+00
2.349259193700979687e+00
2.334633747367778511e+00
2.334633747367778511e+00
2.302757774590289408e+00
2.302757774590289408e+00
2.312320566423536228e+00
2.312320566423536228e+00
2.177691457869197489e+00
2.177691457869197489e+00
2.200567155980101663e+00
2.200567155980101663e+00
2.496263679921872480e+00
2.496263679921872480e+00
2.496263679921872480e+00
2.359196996978667915e+00
2.359196996978667915e+00
2.351134250923184954e+00
2.351134250923184954e+00
2.343446516312143402e+00
2.343446516312143402e+00
2.287382305368205859e+00
2.287382305368205859e+00
2.201129673146763555e+00
2.201129673146763555e+00
2.166253608813745402e+00
2.166253608813745402e+00
2.248756126590777171e+00
2.248756126590777171e+00
2.120689718314157535e+00
2.120689718314157535e+00
2.153128208258308529e+00
2.153128208258308529e+00
2.153128208258308529e+00
2.193066927091281038e+00
2.193066927091281038e+00
2.240130863368633207e+00
2.240130863368633207e+00
2.217067659535508550e+00
2.217067659535508550e+00
2.412636127811517817e+00
2.412636127811517817e+00
2.585703909421063873e+00
2.585703909421063873e+00
2.423323953978087530e+00
2.423323953978087530e+00
2.351509262367625919e+00
2.351509262367625919e+00
2.351509262367625919e+00
2.317570726645710621e+00
2.317570726645710621e+00
2.299382671590319838e+00
2.299382671590319838e+00
2.292632465590380253e+00
2.292632465590380253e+00
2.355821893978697901e+00
2.355821893978697901e+00
2.354321848200934042e+00
2.354321848200934042e+00
2.227942991424298746e+00
2.227942991424298746e+00
2.177503952146977007e+00
2.177503952146977007e+00
2.145815485091708386e+00
2.145815485091708386e+00
2.145815485091708386e+00
2.092376354258858040e+00
2.038374706259346247e+00
2.312508072145756710e+00
2.312508072145756710e+00
2.306132877590258534e+00
2.306132877590258534e+00
2.245756035035248566e+00
2.245756035035248566e+00
2.315320657979064389e+00
2.315320657979064389e+00
2.354696859645375007e+00
2.354696859645375007e+00
2.360134525589770327e+00
2.360134525589770327e+00
2.349821710867641578e+00
2.349821710867641578e+00
2.450137272255623166e+00
2.450137272255623166e+00
2.450137272255623166e+00
2.352634296700948813e+00
2.352634296700948813e+00
2.261506515701773079e+00
2.261506515701773079e+00
2.239005829035309869e+00
2.239005829035309869e+00
2.245756035035248566e+00
2.245756035035248566e+00
2.129314981536301499e+00
2.129314981536301499e+00
2.089938779869991325e+00
2.089938779869991325e+00
2.416948759422589799e+00
2.416948759422589799e+00
2.269569261757255596e+00
2.269569261757255596e+00
2.269569261757255596e+00
2.224192876979888212e+00
2.224192876979888212e+00
2.226630451368755370e+00
2.226630451368755370e+00
2.237318277535325084e+00
2.237318277535325084e+00
2.271631824701681346e+00
2.271631824701681346e+00
2.294132511368144556e+00
2.294132511368144556e+00
2.435886837366862956e+00
2.435886837366862956e+00
2.312320566423536228e+00
2.312320566423536228e+00
2.261694021423993561e+00
2.261694021423993561e+00
2.261694021423993561e+00
2.221380291146580532e+00
2.221380291146580532e+00
2.206754844813379357e+00
2.206754844813379357e+00
2.059187841425824672e+00
2.059187841425824672e+00
2.140940336313974068e+00
2.140940336313974068e+00
2.374759971922971058e+00
2.374759971922971058e+00
2.227192968535416817e+00
2.227192968535416817e+00
2.198317087313455875e+00
2.198317087313455875e+00
2.218567705313272853e+00
2.218567705313272853e+00
2.218567705313272853e+00
2.226067934202093479e+00
2.226067934202093479e+00
2.217442670979949515e+00
2.217442670979949515e+00
2.278757042146061895e+00
2.278757042146061895e+00
2.387510361033966966e+00
2.387510361033966966e+00
2.302007751701407035e+00
2.302007751701407035e+00
2.313633106479079604e+00
2.313633106479079604e+00
2.325070955534531691e+00
2.325070955534531691e+00
2.328821069978942226e+00
2.328821069978942226e+00
2.239380840479750834e+00
2.239380840479750834e+00
2.427824091311380439e+00
2.427824091311380439e+00
2.427824091311380439e+00
2.470012878810998735e+00
2.470012878810998735e+00
2.314945646534623425e+00
2.314945646534623425e+00
2.298820154423657947e+00
2.298820154423657947e+00
2.294507522812585520e+00
2.294507522812585520e+00
2.287382305368205859e+00
2.287382305368205859e+00
2.276131962034974254e+00
2.276131962034974254e+00
2.323758415478988315e+00
2.323758415478988315e+00
2.259068941312906365e+00
2.259068941312906365e+00
2.259068941312906365e+00
2.177878963591417971e+00
2.177878963591417971e+00
2.169253700369274007e+00
2.169253700369274007e+00
2.173753837702566916e+00
2.173753837702566916e+00
2.080563493758964988e+00
2.080563493758964988e+00
2.022624225592822178e+00
2.022624225592822178e+00
2.356196905423139309e+00
2.356196905423139309e+00
2.298257637256996500e+00
2.298257637256996500e+00
2.249693655201880027e+00
2.249693655201880027e+00
2.249693655201880027e+00
2.287569811090426342e+00
2.287569811090426342e+00
2.317945738090151586e+00
2.317945738090151586e+00
2.328633564256721744e+00
2.328633564256721744e+00
2.397635670033875677e+00
2.397635670033875677e+00
2.465700247199926753e+00
2.465700247199926753e+00
2.343446516312143402e+00
2.343446516312143402e+00
2.300695211645863214e+00
2.300695211645863214e+00
2.272944364757225166e+00
2.272944364757225166e+00
2.272944364757225166e+00
2.273131870479445649e+00
2.273131870479445649e+00
2.151440656758324188e+00
2.151440656758324188e+00
2.166816125980407293e+00
2.166816125980407293e+00
2.461012604144413807e+00
2.461012604144413807e+00
2.278944547868282378e+00
2.278944547868282378e+00
2.235068208868678852e+00
2.235068208868678852e+00
2.248568620868556689e+00
2.248568620868556689e+00
2.248568620868556689e+00
2.234693197424237443e+00
2.234693197424237443e+00
2.251381206701864812e+00
2.251381206701864812e+00
2.286257271034882521e+00
2.286257271034882521e+00
2.389197912533951751e+00
2.389197912533951751e+00
2.244818506424146598e+00
2.244818506424146598e+00
2.240318369090853690e+00
2.240318369090853690e+00
2.229255531479842567e+00
2.229255531479842567e+00
2.207879879146702695e+00
2.207879879146702695e+00
2.207879879146702695e+00
2.083563585314493150e+00
2.214442579424420909e+00
2.214442579424420909e+00
2.409073519089327764e+00
2.409073519089327764e+00
2.266569170201727434e+00
2.266569170201727434e+00
2.265256630146183614e+00
2.265256630146183614e+00
2.285132236701559627e+00
2.285132236701559627e+00
2.270881801812799416e+00
2.270881801812799416e+00
2.265256630146183614e+00
2.265256630146183614e+00
2.333133701590014208e+00
2.333133701590014208e+00
2.349446699423200169e+00
2.349446699423200169e+00
2.274819421979430434e+00
2.274819421979430434e+00
2.274819421979430434e+00
2.276881984923856628e+00
2.276881984923856628e+00
2.248193609424115724e+00
2.248193609424115724e+00
2.183129123813593253e+00
2.183129123813593253e+00
2.107001800592058771e+00
2.107001800592058771e+00
2.375134983367412023e+00
2.375134983367412023e+00
2.384135258033997840e+00
2.384135258033997840e+00
2.290757408368175430e+00
2.290757408368175430e+00
2.275944456312753772e+00
2.275944456312753772e+00
2.275944456312753772e+00
2.272944364757225166e+00
2.272944364757225166e+00
2.281382122257148648e+00
2.281382122257148648e+00
2.291882442701498768e+00
2.291882442701498768e+00
2.376447523422955843e+00
2.376447523422955843e+00
2.290944914090395912e+00
2.290944914090395912e+00
2.232255623035371173e+00
2.232255623035371173e+00
2.230568071535386387e+00
2.230568071535386387e+00
2.243505966368602778e+00
2.243505966368602778e+00
2.243505966368602778e+00
2.140190313425092139e+00
2.140190313425092139e+00
2.085813653981139382e+00
2.085813653981139382e+00
2.414323679311502602e+00
2.414323679311502602e+00
2.293194982757042144e+00
2.293194982757042144e+00
2.244443494979705633e+00
2.244443494979705633e+00
2.247068575090792386e+00
2.247068575090792386e+00
2.257568895535142062e+00
2.257568895535142062e+00
2.257568895535142062e+00
2.270881801812799416e+00
2.270881801812799416e+00
2.294132511368144556e+00
2.294132511368144556e+00
2.435699331644642474e+00
2.435699331644642474e+00
2.288507339701529197e+00
2.288507339701529197e+00
2.253443769646290562e+00
2.253443769646290562e+00
2.232068117313150690e+00
2.232068117313150690e+00
2.244631000701926116e+00
2.244631000701926116e+00
2.125002349925229961e+00
2.125002349925229961e+00
2.205817316202276945e+00
2.205817316202276945e+00
2.459887569811090469e+00
2.459887569811090469e+00
2.313633106479079604e+00
2.313633106479079604e+00
2.290569902645954947e+00
2.290569902645954947e+00
2.290569902645954947e+00
2.289632374034852091e+00
2.289632374034852091e+00
2.273506881923887057e+00
2.273506881923887057e+00
2.281569627979369130e+00
2.281569627979369130e+00
2.310633014923550999e+00
2.310633014923550999e+00
2.379822626422925413e+00
2.379822626422925413e+00
2.253256263924070080e+00
2.253256263924070080e+00
2.239943357646412725e+00
2.239943357646412725e+00
2.218380199591051927e+00
2.218380199591051927e+00
2.218380199591051927e+00
2.177691457869197489e+00
2.177691457869197489e+00
2.089001251258888470e+00
2.089001251258888470e+00
2.287757316812646824e+00
2.287757316812646824e+00
2.400635761589403838e+00
2.400635761589403838e+00
2.276319467757194737e+00
2.276319467757194737e+00
2.281757133701590057e+00
2.281757133701590057e+00
2.287194799645985377e+00
2.287194799645985377e+00
2.278944547868282378e+00
2.278944547868282378e+00
2.278944547868282378e+00
2.297320108645893644e+00
2.297320108645893644e+00
2.377197546311838217e+00
2.377197546311838217e+00
2.360697042756431774e+00
2.360697042756431774e+00
2.277444502090518075e+00
2.277444502090518075e+00
2.234318185979796478e+00
2.234318185979796478e+00
2.239568346201971760e+00
2.239568346201971760e+00
2.156503311258278099e+00
2.156503311258278099e+00
2.089376262703329878e+00
2.089376262703329878e+00
2.398948210089419053e+00
2.398948210089419053e+00
2.398948210089419053e+00
2.341571459089938134e+00
2.341571459089938134e+00
2.262069032868434526e+00
2.262069032868434526e+00
2.261694021423993561e+00
2.261694021423993561e+00
2.264319101535081202e+00
2.264319101535081202e+00
2.260756492812891150e+00
2.260756492812891150e+00
2.281007110812707683e+00
2.281007110812707683e+00
2.384885280922879769e+00
2.384885280922879769e+00
2.289819879757073018e+00
2.289819879757073018e+00
2.289819879757073018e+00
2.262256538590655452e+00
2.262256538590655452e+00
2.234505691702016961e+00
2.234505691702016961e+00
2.242193426313058957e+00
2.242193426313058957e+00
2.122377269814142320e+00
2.122377269814142320e+00
2.122939786980803767e+00
2.449199743644520311e+00
2.449199743644520311e+00
2.303320291756950855e+00
2.303320291756950855e+00
2.281944639423810539e+00
2.281944639423810539e+00
2.295445051423688376e+00
2.295445051423688376e+00
2.295445051423688376e+00
2.284569719534897736e+00
2.284569719534897736e+00
2.284007202368236289e+00
2.284007202368236289e+00
2.290757408368175430e+00
2.290757408368175430e+00
2.404385876033814373e+00
2.404385876033814373e+00
2.257756401257362544e+00
2.257756401257362544e+00
2.237505783257545566e+00
2.237505783257545566e+00
2.216317636646626177e+00
2.216317636646626177e+00
2.228318002868740155e+00
2.228318002868740155e+00
2.228318002868740155e+00
2.084313608203375079e+00
2.084313608203375079e+00
2.207317361980041248e+00
2.207317361980041248e+00
2.404760887478255782e+00
2.404760887478255782e+00
2.247256080813012868e+00
2.247256080813012868e+00
2.236943266090884119e+00
2.236943266090884119e+00
2.245568529313028083e+00
2.245568529313028083e+00
2.263569078646198829e+00
2.263569078646198829e+00
2.292069948423719250e+00
2.292069948423719250e+00
2.292069948423719250e+00
2.369884823145237629e+00
2.369884823145237629e+00
2.386760338145085036e+00
2.386760338145085036e+00
2.275569444868312807e+00
2.275569444868312807e+00
2.261319009979552597e+00
2.261319009979552597e+00
2.253068758201849597e+00
2.253068758201849597e+00
2.192691915646840073e+00
2.192691915646840073e+00
2.114877040925321250e+00
2.114877040925321250e+00
2.366884731589709023e+00
2.366884731589709023e+00
2.366884731589709023e+00
2.400448255867183356e+00
2.400448255867183356e+00
2.301632740256966070e+00
2.301632740256966070e+00
2.289257362590411127e+00
2.289257362590411127e+00
2.278194524979400004e+00
2.278194524979400004e+00
2.273131870479445649e+00
2.273131870479445649e+00
2.271444318979460864e+00
2.271444318979460864e+00
2.358446974089785542e+00
2.358446974089785542e+00
2.313820612201300086e+00
2.313820612201300086e+00
2.313820612201300086e+00
2.250443678090761956e+00
2.250443678090761956e+00
2.226255439924313961e+00
2.226255439924313961e+00
2.238818323313089387e+00
2.238818323313089387e+00
2.161565965758232455e+00
2.161565965758232455e+00
2.111876949369793088e+00
2.111876949369793088e+00
2.451824823755607952e+00
2.451824823755607952e+00
2.338008850367748082e+00
2.338008850367748082e+00
2.278194524979400004e+00
2.278194524979400004e+00
2.284944730979339145e+00
2.284944730979339145e+00
2.281569627979369130e+00
2.281569627979369130e+00
2.271069307535019899e+00
2.271069307535019899e+00
2.278569536423841413e+00
2.278569536423841413e+00
2.278569536423841413e+00
2.401010773033844803e+00
2.401010773033844803e+00
2.275381939146092325e+00
2.275381939146092325e+00
2.247631092257453833e+00
2.247631092257453833e+00
2.226442945646534444e+00
2.226442945646534444e+00
2.229818048646504014e+00
2.229818048646504014e+00
2.107189306314279698e+00
2.107189306314279698e+00
2.167378643147068740e+00
2.167378643147068740e+00
2.446012146366771223e+00
2.446012146366771223e+00
2.446012146366771223e+00
2.293757499923703591e+00
2.293757499923703591e+00
2.268256721701712220e+00
2.268256721701712220e+00
2.282507156590471986e+00
2.282507156590471986e+00
2.293945005645924073e+00
2.293945005645924073e+00
2.303132786034730373e+00
2.303132786034730373e+00
2.316258186590166801e+00
2.316258186590166801e+00
2.399510727256080500e+00
2.399510727256080500e+00
2.272381847590563719e+00
2.272381847590563719e+00
2.272381847590563719e+00
2.251943723868526259e+00
2.251943723868526259e+00
2.233380657368694511e+00
2.233380657368694511e+00
2.210879970702230857e+00
2.210879970702230857e+00
2.111689443647572162e+00
2.111689443647572162e+00
2.276506973479415219e+00
2.276506973479415219e+00
2.390322946867275089e+00
2.390322946867275089e+00
2.276881984923856628e+00
2.276881984923856628e+00
2.282132145146031021e+00
2.282132145146031021e+00
2.271444318979460864e+00
2.271444318979460864e+00
2.271444318979460864e+00
2.262069032868434526e+00
2.262069032868434526e+00
2.260568987090670667e+00
2.260568987090670667e+00
2.334071230201117064e+00
2.334071230201117064e+00
2.342508987701040546e+00
2.342508987701040546e+00
2.258131412701803509e+00
2.258131412701803509e+00
2.237693288979766049e+00
2.237693288979766049e+00
2.236943266090884119e+00
