2.414698690755943566e+00
2.414698690755943566e+00
2.284382213812677254e+00
2.284382213812677254e+00
2.284382213812677254e+00
2.272569353312784202e+00
2.272569353312784202e+00
2.272569353312784202e+00
2.280444593646046680e+00
2.280444593646046680e+00
2.280444593646046680e+00
2.280444593646046680e+00
2.273131870479445649e+00
2.273131870479445649e+00
2.273131870479445649e+00
2.272381847590563719e+00
2.272381847590563719e+00
2.272381847590563719e+00
2.319258278145695407e+00
2.319258278145695407e+00
2.319258278145695407e+00
2.319258278145695407e+00
2.336508804589983779e+00
2.336508804589983779e+00
2.336508804589983779e+00
2.246693563646351421e+00
2.246693563646351421e+00
2.246693563646351421e+00
2.242380932035279439e+00
2.242380932035279439e+00
2.242380932035279439e+00
2.242380932035279439e+00
2.260756492812891150e+00
2.260756492812891150e+00
2.260756492812891150e+00
2.205629810480056463e+00
2.205629810480056463e+00
2.205629810480056463e+00
2.205629810480056463e+00
2.124627338480788552e+00
2.124627338480788552e+00
2.124627338480788552e+00
2.360322031311990809e+00
2.360322031311990809e+00
2.360322031311990809e+00
2.363697134311959935e+00
2.363697134311959935e+00
2.363697134311959935e+00
2.363697134311959935e+00
2.263944090090640238e+00
2.263944090090640238e+00
2.263944090090640238e+00
2.263756584368419311e+00
2.263756584368419311e+00
2.263756584368419311e+00
2.261881527146214044e+00
2.261881527146214044e+00
2.261881527146214044e+00
2.261881527146214044e+00
2.270506790368358452e+00
2.270506790368358452e+00
2.270506790368358452e+00
2.292632465590380253e+00
2.292632465590380253e+00
2.292632465590380253e+00
2.363509628589739453e+00
2.363509628589739453e+00
2.363509628589739453e+00
2.363509628589739453e+00
2.301445234534745587e+00
2.301445234534745587e+00
2.301445234534745587e+00
2.252881252479629115e+00
2.252881252479629115e+00
2.252881252479629115e+00
2.233005645924253102e+00
2.233005645924253102e+00
2.233005645924253102e+00
2.233005645924253102e+00
2.235818231757560781e+00
2.235818231757560781e+00
2.235818231757560781e+00
2.146002990813928868e+00
2.146002990813928868e+00
2.146002990813928868e+00
2.111876949369793088e+00
2.111876949369793088e+00
2.111876949369793088e+00
2.111876949369793088e+00
2.424261482589190386e+00
2.424261482589190386e+00
2.309882992034669069e+00
2.309882992034669069e+00
2.309882992034669069e+00
2.279507065034943825e+00
2.279507065034943825e+00
2.279507065034943825e+00
2.293007477034821662e+00
2.293007477034821662e+00
2.293007477034821662e+00
2.293007477034821662e+00
2.291319925534837321e+00
2.291319925534837321e+00
2.291319925534837321e+00
2.282694662312692468e+00
2.282694662312692468e+00
2.282694662312692468e+00
2.289257362590411127e+00
2.289257362590411127e+00
2.289257362590411127e+00
2.289257362590411127e+00
2.392385509811700839e+00
2.392385509811700839e+00
2.392385509811700839e+00
2.276694479201635701e+00
2.276694479201635701e+00
2.276694479201635701e+00
2.239380840479750834e+00
2.239380840479750834e+00
2.239380840479750834e+00
2.239380840479750834e+00
2.228693014313181120e+00
2.228693014313181120e+00
2.228693014313181120e+00
2.244818506424146598e+00
2.244818506424146598e+00
2.244818506424146598e+00
2.126689901425214746e+00
2.126689901425214746e+00
2.126689901425214746e+00
2.126689901425214746e+00
2.213130039368877089e+00
2.213130039368877089e+00
2.449762260811182202e+00
2.449762260811182202e+00
2.449762260811182202e+00
2.449762260811182202e+00
2.303320291756950855e+00
2.303320291756950855e+00
2.303320291756950855e+00
2.302757774590289408e+00
2.302757774590289408e+00
2.302757774590289408e+00
2.285319742423780109e+00
2.285319742423780109e+00
2.285319742423780109e+00
2.285319742423780109e+00
2.268819238868374111e+00
2.268819238868374111e+00
2.268819238868374111e+00
2.291507431257057803e+00
2.291507431257057803e+00
2.291507431257057803e+00
2.299570177312540320e+00
2.299570177312540320e+00
2.299570177312540320e+00
2.299570177312540320e+00
2.362572099978637485e+00
2.362572099978637485e+00
2.362572099978637485e+00
2.247256080813012868e+00
2.247256080813012868e+00
2.247256080813012868e+00
2.243505966368602778e+00
2.243505966368602778e+00
2.243505966368602778e+00
2.243505966368602778e+00
2.246693563646351421e+00
2.246693563646351421e+00
2.246693563646351421e+00
2.215942625202185212e+00
2.215942625202185212e+00
2.215942625202185212e+00
2.119939695425275605e+00
2.119939695425275605e+00
2.119939695425275605e+00
2.119939695425275605e+00
2.292257454145939732e+00
2.292257454145939732e+00
2.292257454145939732e+00
2.380572649311807787e+00
2.380572649311807787e+00
2.380572649311807787e+00
2.257568895535142062e+00
2.257568895535142062e+00
2.257568895535142062e+00
2.257568895535142062e+00
2.267319193090609808e+00
2.267319193090609808e+00
2.267319193090609808e+00
2.275194433423871843e+00
2.275194433423871843e+00
2.275194433423871843e+00
2.264506607257301685e+00
2.264506607257301685e+00
2.264506607257301685e+00
2.264506607257301685e+00
2.270694296090578934e+00
2.270694296090578934e+00
2.270694296090578934e+00
2.348509170812097757e+00
2.348509170812097757e+00
2.348509170812097757e+00
2.334821253089998994e+00
2.334821253089998994e+00
2.334821253089998994e+00
2.334821253089998994e+00
2.262256538590655452e+00
2.262256538590655452e+00
2.262256538590655452e+00
2.248568620868556689e+00
2.248568620868556689e+00
2.248568620868556689e+00
2.260568987090670667e+00
2.260568987090670667e+00
2.260568987090670667e+00
2.260568987090670667e+00
2.190441846980193397e+00
2.190441846980193397e+00
2.190441846980193397e+00
2.113189489425336465e+00
2.113189489425336465e+00
2.113189489425336465e+00
2.397823175756096159e+00
2.397823175756096159e+00
2.397823175756096159e+00
2.397823175756096159e+00
2.322445875423444495e+00
2.322445875423444495e+00
2.322445875423444495e+00
2.259068941312906365e+00
2.259068941312906365e+00
2.259068941312906365e+00
2.265069124423963132e+00
2.265069124423963132e+00
2.265069124423963132e+00
2.271444318979460864e+00
2.271444318979460864e+00
2.271444318979460864e+00
2.271444318979460864e+00
2.283632190923795324e+00
2.283632190923795324e+00
2.283632190923795324e+00
2.298070131534776017e+00
2.298070131534776017e+00
2.298070131534776017e+00
2.396698141422773265e+00
2.396698141422773265e+00
2.396698141422773265e+00
2.396698141422773265e+00
2.293945005645924073e+00
2.293945005645924073e+00
2.293945005645924073e+00
2.263381572923978347e+00
2.263381572923978347e+00
2.263381572923978347e+00
2.241818414868617992e+00
2.241818414868617992e+00
2.241818414868617992e+00
2.241818414868617992e+00
2.245756035035248566e+00
2.245756035035248566e+00
2.245756035035248566e+00
2.122939786980803767e+00
2.122939786980803767e+00
2.122939786980803767e+00
2.132690084536271069e+00
2.132690084536271069e+00
2.132690084536271069e+00
2.132690084536271069e+00
2.436824365977965812e+00
2.436824365977965812e+00
2.436824365977965812e+00
2.286819788201544412e+00
2.286819788201544412e+00
2.286819788201544412e+00
2.254381298257393418e+00
2.254381298257393418e+00
2.254381298257393418e+00
2.254381298257393418e+00
2.266194158757286470e+00
2.266194158757286470e+00
2.266194158757286470e+00
2.272194341868343237e+00
2.272194341868343237e+00
2.272194341868343237e+00
2.284382213812677254e+00
2.284382213812677254e+00
2.284382213812677254e+00
2.284382213812677254e+00
2.296945097201452679e+00
2.296945097201452679e+00
2.296945097201452679e+00
2.394448072756126589e+00
2.394448072756126589e+00
2.394448072756126589e+00
2.266944181646168399e+00
2.266944181646168399e+00
2.266944181646168399e+00
2.266944181646168399e+00
2.245943540757469048e+00
2.245943540757469048e+00
2.245943540757469048e+00
2.236943266090884119e+00
2.236943266090884119e+00
2.236943266090884119e+00
2.233193151646474028e+00
2.233193151646474028e+00
2.233193151646474028e+00
2.233193151646474028e+00
2.121064729758598499e+00
2.121064729758598499e+00
2.121064729758598499e+00
2.248006103701895242e+00
2.248006103701895242e+00
2.248006103701895242e+00
2.412448622089296890e+00
2.412448622089296890e+00
2.412448622089296890e+00
2.412448622089296890e+00
2.270131778923917043e+00
2.270131778923917043e+00
2.270131778923917043e+00
2.256631366924039650e+00
2.256631366924039650e+00
2.256631366924039650e+00
2.279507065034943825e+00
2.279507065034943825e+00
2.279507065034943825e+00
2.279507065034943825e+00
2.263756584368419311e+00
2.263756584368419311e+00
2.263756584368419311e+00
2.280257087923826198e+00
2.280257087923826198e+00
2.280257087923826198e+00
2.329571092867824156e+00
2.329571092867824156e+00
2.329571092867824156e+00
2.329571092867824156e+00
2.359009491256446989e+00
2.359009491256446989e+00
2.359009491256446989e+00
2.268069215979491737e+00
2.268069215979491737e+00
2.268069215979491737e+00
2.245756035035248566e+00
2.245756035035248566e+00
2.245756035035248566e+00
2.245756035035248566e+00
2.243505966368602778e+00
2.243505966368602778e+00
2.243505966368602778e+00
2.194754478591265823e+00
2.194754478591265823e+00
2.194754478591265823e+00
2.123127292703024249e+00
2.123127292703024249e+00
2.123127292703024249e+00
2.123127292703024249e+00
2.369322305978576182e+00
2.369322305978576182e+00
2.369322305978576182e+00
2.368572283089693808e+00
2.368572283089693808e+00
2.368572283089693808e+00
2.265256630146183614e+00
2.265256630146183614e+00
2.265256630146183614e+00
2.265256630146183614e+00
2.273694387646107540e+00
2.273694387646107540e+00
2.273694387646107540e+00
2.279882076479384789e+00
2.279882076479384789e+00
2.279882076479384789e+00
2.270131778923917043e+00
2.270131778923917043e+00
2.270131778923917043e+00
2.270131778923917043e+00
2.274631916257209951e+00
2.274631916257209951e+00
2.274631916257209951e+00
2.364634662923062791e+00
2.364634662923062791e+00
2.364634662923062791e+00
2.308382946256904766e+00
2.308382946256904766e+00
2.308382946256904766e+00
2.308382946256904766e+00
2.254943815424054865e+00
2.254943815424054865e+00
2.254943815424054865e+00
2.236568254646443155e+00
2.236568254646443155e+00
2.236568254646443155e+00
2.252693746757408633e+00
2.252693746757408633e+00
2.252693746757408633e+00
2.252693746757408633e+00
2.176753929258095077e+00
2.176753929258095077e+00
2.176753929258095077e+00
2.140940336313974068e+00
2.140940336313974068e+00
2.140940336313974068e+00
2.140940336313974068e+00
2.454824915311136557e+00
2.454824915311136557e+00
2.454824915311136557e+00
2.326008484145634547e+00
2.326008484145634547e+00
2.326008484145634547e+00
2.268444227423932702e+00
2.268444227423932702e+00
2.268444227423932702e+00
2.268069215979491737e+00
2.268069215979491737e+00
2.268069215979491737e+00
2.268069215979491737e+00
2.296945097201452679e+00
2.296945097201452679e+00
2.296945097201452679e+00
2.275194433423871843e+00
2.275194433423871843e+00
2.275194433423871843e+00
2.264506607257301685e+00
2.264506607257301685e+00
2.264506607257301685e+00
2.264506607257301685e+00
2.381322672200689716e+00
2.381322672200689716e+00
2.381322672200689716e+00
2.267319193090609808e+00
2.267319193090609808e+00
2.267319193090609808e+00
2.243693472090823260e+00
2.243693472090823260e+00
2.243693472090823260e+00
2.243693472090823260e+00
2.226630451368755370e+00
2.226630451368755370e+00
2.226630451368755370e+00
2.237880794701986531e+00
2.237880794701986531e+00
2.237880794701986531e+00
2.111126926480910715e+00
2.111126926480910715e+00
2.111126926480910715e+00
2.111126926480910715e+00
2.186129215369121415e+00
2.186129215369121415e+00
2.186129215369121415e+00
2.427824091311380439e+00
2.427824091311380439e+00
2.427824091311380439e+00
2.282507156590471986e+00
2.282507156590471986e+00
2.282507156590471986e+00
2.282507156590471986e+00
2.266381664479506952e+00
2.266381664479506952e+00
2.266381664479506952e+00
2.280819605090487201e+00
2.280819605090487201e+00
2.280819605090487201e+00
2.281382122257148648e+00
2.281382122257148648e+00
2.281382122257148648e+00
2.281382122257148648e+00
2.287757316812646824e+00
2.287757316812646824e+00
2.287757316812646824e+00
2.322070863979003530e+00
2.322070863979003530e+00
2.322070863979003530e+00
2.390135441145054607e+00
2.390135441145054607e+00
2.390135441145054607e+00
2.390135441145054607e+00
2.277632007812738557e+00
2.277632007812738557e+00
2.277632007812738557e+00
2.254756309701834383e+00
2.254756309701834383e+00
2.254756309701834383e+00
2.254756309701834383e+00
2.255506332590716312e+00
2.255506332590716312e+00
2.255506332590716312e+00
2.218192693868831444e+00
2.218192693868831444e+00
2.218192693868831444e+00
2.104564226203192501e+00
2.104564226203192501e+00
2.104564226203192501e+00
2.104564226203192501e+00
2.272569353312784202e+00
2.272569353312784202e+00
2.272569353312784202e+00
2.376447523422955843e+00
2.376447523422955843e+00
2.376447523422955843e+00
2.262631550035096417e+00
2.262631550035096417e+00
2.262631550035096417e+00
2.262631550035096417e+00
2.259256447035126847e+00
2.259256447035126847e+00
2.259256447035126847e+00
2.260943998535111632e+00
2.260943998535111632e+00
2.260943998535111632e+00
2.261319009979552597e+00
2.261319009979552597e+00
2.261319009979552597e+00
2.277632007812738557e+00
2.277632007812738557e+00
2.277632007812738557e+00
2.277632007812738557e+00
2.344946562089907705e+00
2.344946562089907705e+00
2.344946562089907705e+00
2.331821161534470832e+00
2.331821161534470832e+00
2.331821161534470832e+00
2.260193975646229259e+00
2.260193975646229259e+00
2.260193975646229259e+00
2.260193975646229259e+00
2.252881252479629115e+00
2.252881252479629115e+00
2.252881252479629115e+00
2.263194067201757864e+00
2.263194067201757864e+00
2.263194067201757864e+00
2.180691549424726094e+00
2.180691549424726094e+00
2.180691549424726094e+00
2.180691549424726094e+00
2.118814661091952267e+00
2.118814661091952267e+00
2.118814661091952267e+00
2.411136082033753514e+00
2.411136082033753514e+00
2.411136082033753514e+00
2.344759056367687222e+00
2.344759056367687222e+00
2.344759056367687222e+00
2.344759056367687222e+00
2.279882076479384789e+00
2.279882076479384789e+00
2.279882076479384789e+00
2.281194616534928166e+00
2.281194616534928166e+00
2.281194616534928166e+00
2.275381939146092325e+00
2.275381939146092325e+00
2.275381939146092325e+00
2.275381939146092325e+00
2.273881893368328022e+00
2.273881893368328022e+00
2.273881893368328022e+00
2.268444227423932702e+00
2.268444227423932702e+00
2.268444227423932702e+00
2.268444227423932702e+00
2.366509720145268059e+00
2.366509720145268059e+00
2.366509720145268059e+00
2.280632099368266719e+00
2.280632099368266719e+00
2.280632099368266719e+00
2.252131229590746742e+00
2.252131229590746742e+00
2.252131229590746742e+00
2.252131229590746742e+00
2.229818048646504014e+00
2.229818048646504014e+00
2.229818048646504014e+00
2.244255989257484707e+00
2.244255989257484707e+00
2.244255989257484707e+00
2.149378093813898438e+00
2.149378093813898438e+00
2.149378093813898438e+00
2.149378093813898438e+00
2.160815942869350526e+00
2.160815942869350526e+00
2.160815942869350526e+00
2.450137272255623166e+00
2.450137272255623166e+00
2.450137272255623166e+00
2.308757957701345731e+00
2.308757957701345731e+00
2.308757957701345731e+00
2.308757957701345731e+00
2.273881893368328022e+00
2.273881893368328022e+00
2.273881893368328022e+00
2.278382030701620931e+00
2.278382030701620931e+00
2.278382030701620931e+00
2.271256813257240381e+00
2.271256813257240381e+00
2.271256813257240381e+00
2.271256813257240381e+00
2.282319650868251504e+00
2.282319650868251504e+00
2.282319650868251504e+00
2.301445234534745587e+00
2.301445234534745587e+00
2.301445234534745587e+00
2.393885555589465142e+00
2.393885555589465142e+00
2.393885555589465142e+00
2.393885555589465142e+00
2.261881527146214044e+00
2.261881527146214044e+00
2.261881527146214044e+00
2.243318460646382295e+00
2.243318460646382295e+00
2.243318460646382295e+00
2.240130863368633207e+00
2.240130863368633207e+00
2.240130863368633207e+00
2.240130863368633207e+00
2.237130771813104602e+00
2.237130771813104602e+00
2.237130771813104602e+00
2.123127292703024249e+00
2.123127292703024249e+00
2.123127292703024249e+00
2.259068941312906365e+00
2.259068941312906365e+00
2.259068941312906365e+00
2.259068941312906365e+00
2.426136539811395654e+00
2.426136539811395654e+00
2.426136539811395654e+00
2.280257087923826198e+00
2.280257087923826198e+00
2.280257087923826198e+00
2.260568987090670667e+00
2.260568987090670667e+00
2.260568987090670667e+00
2.260568987090670667e+00
2.259818964201788294e+00
2.259818964201788294e+00
2.259818964201788294e+00
2.263006561479537382e+00
2.263006561479537382e+00
2.263006561479537382e+00
2.276319467757194737e+00
2.276319467757194737e+00
2.276319467757194737e+00
2.276319467757194737e+00
2.328633564256721744e+00
2.328633564256721744e+00
2.328633564256721744e+00
2.352821802423169739e+00
2.352821802423169739e+00
2.352821802423169739e+00
2.251006195257423848e+00
2.251006195257423848e+00
2.251006195257423848e+00
2.251006195257423848e+00
2.234130680257575996e+00
2.234130680257575996e+00
2.234130680257575996e+00
2.244631000701926116e+00
2.244631000701926116e+00
2.244631000701926116e+00
2.244631000701926116e+00
2.193441938535722002e+00
2.193441938535722002e+00
2.193441938535722002e+00
2.114502029480880285e+00
2.114502029480880285e+00
2.114502029480880285e+00
2.345696584978789634e+00
2.345696584978789634e+00
2.345696584978789634e+00
2.363134617145298488e+00
2.363134617145298488e+00
2.363134617145298488e+00
2.363134617145298488e+00
2.271069307535019899e+00
2.271069307535019899e+00
2.271069307535019899e+00
2.284382213812677254e+00
2.284382213812677254e+00
2.284382213812677254e+00
2.274631916257209951e+00
2.274631916257209951e+00
2.274631916257209951e+00
2.274631916257209951e+00
2.274256904812768987e+00
2.274256904812768987e+00
2.274256904812768987e+00
2.307632923368022837e+00
2.307632923368022837e+00
2.307632923368022837e+00
2.393135532700583212e+00
2.393135532700583212e+00
2.393135532700583212e+00
2.393135532700583212e+00
2.295257545701467894e+00
2.295257545701467894e+00
2.295257545701467894e+00
2.247256080813012868e+00
2.247256080813012868e+00
2.247256080813012868e+00
2.227005462813196335e+00
2.227005462813196335e+00
2.227005462813196335e+00
2.227005462813196335e+00
2.245943540757469048e+00
2.245943540757469048e+00
2.245943540757469048e+00
2.164378551591540134e+00
2.164378551591540134e+00
2.164378551591540134e+00
2.129689992980742907e+00
2.129689992980742907e+00
2.129689992980742907e+00
2.129689992980742907e+00
2.442824549089022579e+00
2.442824549089022579e+00
2.442824549089022579e+00
2.311008026367992407e+00
2.311008026367992407e+00
2.311008026367992407e+00
2.262256538590655452e+00
2.262256538590655452e+00
2.262256538590655452e+00
2.262256538590655452e+00
2.273694387646107540e+00
2.273694387646107540e+00
2.273694387646107540e+00
2.273319376201666131e+00
2.273319376201666131e+00
2.273319376201666131e+00
2.276319467757194737e+00
2.276319467757194737e+00
2.276319467757194737e+00
2.276319467757194737e+00
2.285694753868221074e+00
2.285694753868221074e+00
2.285694753868221074e+00
2.394823084200567997e+00
2.394823084200567997e+00
2.394823084200567997e+00
2.274256904812768987e+00
2.274256904812768987e+00
2.274256904812768987e+00
2.274256904812768987e+00
2.257568895535142062e+00
2.257568895535142062e+00
2.257568895535142062e+00
2.240318369090853690e+00
2.240318369090853690e+00
2.240318369090853690e+00
2.254193792535172935e+00
2.254193792535172935e+00
2.254193792535172935e+00
2.254193792535172935e+00
2.131377544480727693e+00
2.131377544480727693e+00
2.131377544480727693e+00
2.186129215369121415e+00
2.186129215369121415e+00
2.186129215369121415e+00
2.418636310922574584e+00
2.418636310922574584e+00
2.418636310922574584e+00
2.418636310922574584e+00
2.271631824701681346e+00
2.271631824701681346e+00
2.271631824701681346e+00
2.254006286812952009e+00
2.254006286812952009e+00
2.254006286812952009e+00
2.261131504257332114e+00
2.261131504257332114e+00
2.261131504257332114e+00
2.261131504257332114e+00
2.257381389812921579e+00
2.257381389812921579e+00
2.257381389812921579e+00
2.271256813257240381e+00
2.271256813257240381e+00
2.271256813257240381e+00
2.302757774590289408e+00
2.302757774590289408e+00
2.302757774590289408e+00
2.376635029145176325e+00
2.376635029145176325e+00
2.376635029145176325e+00
2.376635029145176325e+00
2.258318918424023991e+00
2.258318918424023991e+00
2.258318918424023991e+00
2.239755851924192243e+00
2.239755851924192243e+00
2.239755851924192243e+00
2.240130863368633207e+00
2.240130863368633207e+00
2.240130863368633207e+00
2.240130863368633207e+00
2.213692556535538980e+00
2.213692556535538980e+00
2.213692556535538980e+00
2.116377086703085553e+00
2.116377086703085553e+00
2.116377086703085553e+00
2.295257545701467894e+00
2.295257545701467894e+00
2.295257545701467894e+00
2.295257545701467894e+00
2.398760704367198571e+00
2.398760704367198571e+00
2.398760704367198571e+00
2.276319467757194737e+00
2.276319467757194737e+00
2.276319467757194737e+00
2.276319467757194737e+00
2.276319467757194737e+00
2.276319467757194737e+00
2.276319467757194737e+00
2.280444593646046680e+00
2.280444593646046680e+00
2.280444593646046680e+00
2.279507065034943825e+00
2.279507065034943825e+00
2.279507065034943825e+00
2.288507339701529197e+00
2.288507339701529197e+00
2.288507339701529197e+00
2.288507339701529197e+00
2.358071962645344577e+00
2.358071962645344577e+00
2.358071962645344577e+00
2.341383953367717208e+00
2.341383953367717208e+00
2.341383953367717208e+00
2.263381572923978347e+00
2.263381572923978347e+00
2.263381572923978347e+00
2.263381572923978347e+00
2.245006012146367080e+00
2.245006012146367080e+00
2.245006012146367080e+00
2.249131138035218136e+00
2.249131138035218136e+00
2.249131138035218136e+00
2.197379558702353020e+00
2.197379558702353020e+00
2.197379558702353020e+00
2.197379558702353020e+00
2.138502761925107798e+00
2.138502761925107798e+00
2.138502761925107798e+00
2.416573747978148834e+00
2.416573747978148834e+00
2.416573747978148834e+00
2.346259102145451525e+00
2.346259102145451525e+00
2.346259102145451525e+00
2.346259102145451525e+00
2.264131595812860720e+00
2.264131595812860720e+00
2.264131595812860720e+00
2.267131687368389326e+00
2.267131687368389326e+00
2.267131687368389326e+00
2.286819788201544412e+00
2.286819788201544412e+00
2.286819788201544412e+00
2.286819788201544412e+00
2.274819421979430434e+00
2.274819421979430434e+00
2.274819421979430434e+00
2.290194891201513983e+00
2.290194891201513983e+00
2.290194891201513983e+00
2.392760521256141804e+00
2.392760521256141804e+00
2.392760521256141804e+00
2.392760521256141804e+00
2.305007843256935196e+00
2.305007843256935196e+00
2.305007843256935196e+00
2.264131595812860720e+00
2.264131595812860720e+00
2.264131595812860720e+00
2.225317911313211550e+00
2.225317911313211550e+00
2.225317911313211550e+00
2.225317911313211550e+00
2.246318552201910457e+00
2.246318552201910457e+00
2.246318552201910457e+00
2.134002624591814889e+00
2.134002624591814889e+00
2.134002624591814889e+00
2.139065279091769245e+00
2.139065279091769245e+00
2.139065279091769245e+00
2.139065279091769245e+00
2.445637134922330258e+00
2.445637134922330258e+00
2.445637134922330258e+00
2.297320108645893644e+00
2.297320108645893644e+00
2.297320108645893644e+00
2.255693838312936794e+00
2.255693838312936794e+00
2.255693838312936794e+00
2.255693838312936794e+00
2.261694021423993561e+00
2.261694021423993561e+00
2.261694021423993561e+00
2.254943815424054865e+00
2.254943815424054865e+00
2.254943815424054865e+00
2.259443952757347329e+00
2.259443952757347329e+00
2.259443952757347329e+00
2.259443952757347329e+00
2.283069673757133433e+00
2.283069673757133433e+00
2.283069673757133433e+00
2.398760704367198571e+00
2.398760704367198571e+00
2.398760704367198571e+00
2.270694296090578934e+00
2.270694296090578934e+00
2.270694296090578934e+00
2.270694296090578934e+00
2.257381389812921579e+00
2.257381389812921579e+00
2.257381389812921579e+00
2.249131138035218136e+00
2.249131138035218136e+00
2.249131138035218136e+00
2.242943449201941331e+00
2.242943449201941331e+00
2.242943449201941331e+00
2.242943449201941331e+00
2.129502487258521981e+00
2.129502487258521981e+00
2.129502487258521981e+00
2.258506424146244473e+00
2.258506424146244473e+00
2.258506424146244473e+00
2.425574022644734207e+00
2.425574022644734207e+00
2.425574022644734207e+00
2.425574022644734207e+00
2.263944090090640238e+00
2.263944090090640238e+00
2.263944090090640238e+00
2.249693655201880027e+00
2.249693655201880027e+00
2.249693655201880027e+00
2.257943906979583026e+00
2.257943906979583026e+00
2.257943906979583026e+00
2.257943906979583026e+00
2.258318918424023991e+00
2.258318918424023991e+00
2.258318918424023991e+00
2.258131412701803509e+00
2.258131412701803509e+00
2.258131412701803509e+00
2.292444959868159771e+00
2.292444959868159771e+00
2.292444959868159771e+00
2.292444959868159771e+00
2.341196447645496725e+00
2.341196447645496725e+00
2.341196447645496725e+00
2.292632465590380253e+00
2.292632465590380253e+00
2.292632465590380253e+00
2.254943815424054865e+00
2.254943815424054865e+00
2.254943815424054865e+00
2.254943815424054865e+00
2.249506149479659545e+00
2.249506149479659545e+00
2.249506149479659545e+00
2.198317087313455875e+00
2.198317087313455875e+00
2.198317087313455875e+00
2.120877224036378017e+00
2.120877224036378017e+00
2.120877224036378017e+00
2.120877224036378017e+00
2.351134250923184954e+00
2.351134250923184954e+00
2.351134250923184954e+00
2.379822626422925413e+00
2.379822626422925413e+00
2.379822626422925413e+00
2.285882259590441556e+00
2.285882259590441556e+00
2.285882259590441556e+00
2.285882259590441556e+00
2.284944730979339145e+00
2.284944730979339145e+00
2.284944730979339145e+00
2.281382122257148648e+00
2.281382122257148648e+00
2.281382122257148648e+00
2.273319376201666131e+00
2.273319376201666131e+00
2.273319376201666131e+00
2.273319376201666131e+00
2.278194524979400004e+00
2.278194524979400004e+00
2.278194524979400004e+00
2.354884365367595489e+00
2.354884365367595489e+00
2.354884365367595489e+00
2.300320200201422249e+00
2.300320200201422249e+00
2.300320200201422249e+00
2.300320200201422249e+00
2.241630909146397510e+00
2.241630909146397510e+00
2.241630909146397510e+00
2.221380291146580532e+00
2.221380291146580532e+00
2.221380291146580532e+00
2.227942991424298746e+00
2.227942991424298746e+00
2.227942991424298746e+00
2.227942991424298746e+00
2.146753013702810797e+00
2.146753013702810797e+00
2.146753013702810797e+00
2.122564775536362802e+00
2.122564775536362802e+00
2.122564775536362802e+00
2.445449629200109776e+00
2.445449629200109776e+00
2.445449629200109776e+00
2.445449629200109776e+00
2.325820978423414065e+00
2.325820978423414065e+00
2.325820978423414065e+00
2.264881618701742649e+00
2.264881618701742649e+00
2.264881618701742649e+00
2.269194250312814631e+00
2.269194250312814631e+00
2.269194250312814631e+00
2.269194250312814631e+00
2.271631824701681346e+00
2.271631824701681346e+00
2.271631824701681346e+00
2.286069765312662039e+00
2.286069765312662039e+00
2.286069765312662039e+00
2.289632374034852091e+00
2.289632374034852091e+00
2.289632374034852091e+00
2.289632374034852091e+00
2.400823267311624321e+00
2.400823267311624321e+00
2.400823267311624321e+00
2.281757133701590057e+00
2.281757133701590057e+00
2.281757133701590057e+00
2.258506424146244473e+00
2.258506424146244473e+00
2.258506424146244473e+00
2.258506424146244473e+00
2.228130497146519229e+00
2.228130497146519229e+00
2.228130497146519229e+00
2.237318277535325084e+00
2.237318277535325084e+00
2.237318277535325084e+00
2.118064638203069894e+00
2.118064638203069894e+00
2.118064638203069894e+00
2.118064638203069894e+00
2.194754478591265823e+00
2.194754478591265823e+00
2.194754478591265823e+00
2.447699697866756008e+00
2.447699697866756008e+00
2.447699697866756008e+00
2.293569994201483109e+00
2.293569994201483109e+00
2.293569994201483109e+00
2.293569994201483109e+00
2.259068941312906365e+00
2.259068941312906365e+00
2.259068941312906365e+00
2.266381664479506952e+00
2.266381664479506952e+00
2.266381664479506952e+00
2.253068758201849597e+00
2.253068758201849597e+00
2.253068758201849597e+00
2.253068758201849597e+00
2.262819055757316900e+00
2.262819055757316900e+00
2.262819055757316900e+00
2.300695211645863214e+00
2.300695211645863214e+00
2.300695211645863214e+00
2.383197729422894984e+00
2.383197729422894984e+00
2.383197729422894984e+00
2.383197729422894984e+00
2.256631366924039650e+00
2.256631366924039650e+00
2.256631366924039650e+00
2.240318369090853690e+00
2.240318369090853690e+00
2.240318369090853690e+00
2.239380840479750834e+00
2.239380840479750834e+00
2.239380840479750834e+00
2.239380840479750834e+00
2.217817682424390480e+00
2.217817682424390480e+00
2.217817682424390480e+00
2.136815210425123013e+00
2.136815210425123013e+00
2.136815210425123013e+00
2.322820886867885459e+00
2.322820886867885459e+00
2.322820886867885459e+00
2.322820886867885459e+00
2.419198828089236475e+00
2.419198828089236475e+00
2.419198828089236475e+00
2.294507522812585520e+00
2.294507522812585520e+00
2.294507522812585520e+00
2.288694845423749680e+00
2.288694845423749680e+00
2.288694845423749680e+00
2.288694845423749680e+00
2.284944730979339145e+00
2.284944730979339145e+00
2.284944730979339145e+00
2.270881801812799416e+00
2.270881801812799416e+00
2.270881801812799416e+00
2.273319376201666131e+00
2.273319376201666131e+00
2.273319376201666131e+00
2.273319376201666131e+00
2.342696493423261028e+00
2.342696493423261028e+00
2.342696493423261028e+00
2.325820978423414065e+00
2.325820978423414065e+00
2.325820978423414065e+00
2.240130863368633207e+00
2.240130863368633207e+00
2.240130863368633207e+00
2.240130863368633207e+00
2.223630359813226764e+00
2.223630359813226764e+00
2.223630359813226764e+00
2.229443037202063049e+00
2.229443037202063049e+00
2.229443037202063049e+00
2.169628711813714972e+00
2.169628711813714972e+00
2.169628711813714972e+00
2.169628711813714972e+00
2.110189397869807859e+00
2.110189397869807859e+00
2.110189397869807859e+00
2.409448530533769173e+00
2.409448530533769173e+00
2.409448530533769173e+00
2.348321665089877275e+00
2.348321665089877275e+00
2.348321665089877275e+00
2.348321665089877275e+00
2.274631916257209951e+00
2.274631916257209951e+00
2.274631916257209951e+00
2.282507156590471986e+00
2.282507156590471986e+00
2.282507156590471986e+00
2.276506973479415219e+00
2.276506973479415219e+00
2.276506973479415219e+00
2.276506973479415219e+00
2.272569353312784202e+00
2.272569353312784202e+00
2.272569353312784202e+00
2.284007202368236289e+00
2.284007202368236289e+00
2.284007202368236289e+00
2.377385052034058699e+00
2.377385052034058699e+00
2.377385052034058699e+00
2.377385052034058699e+00
2.289632374034852091e+00
2.289632374034852091e+00
2.289632374034852091e+00
2.256443861201819168e+00
2.256443861201819168e+00
2.256443861201819168e+00
2.230380565813165905e+00
2.230380565813165905e+00
2.230380565813165905e+00
2.230380565813165905e+00
2.240880886257515137e+00
2.240880886257515137e+00
2.240880886257515137e+00
2.134752647480697263e+00
2.134752647480697263e+00
2.134752647480697263e+00
2.134752647480697263e+00
2.154253242591631867e+00
2.154253242591631867e+00
2.154253242591631867e+00
2.456512466811120898e+00
2.456512466811120898e+00
2.456512466811120898e+00
2.312883083590197675e+00
2.312883083590197675e+00
2.312883083590197675e+00
2.267131687368389326e+00
2.267131687368389326e+00
2.267131687368389326e+00
2.267131687368389326e+00
2.268819238868374111e+00
2.268819238868374111e+00
2.268819238868374111e+00
2.260381481368449741e+00
2.260381481368449741e+00
2.260381481368449741e+00
2.271819330423901828e+00
2.271819330423901828e+00
2.271819330423901828e+00
2.271819330423901828e+00
2.301632740256966070e+00
2.301632740256966070e+00
2.301632740256966070e+00
2.400260750144962874e+00
2.400260750144962874e+00
2.400260750144962874e+00
2.267881710257271255e+00
2.267881710257271255e+00
2.267881710257271255e+00
2.267881710257271255e+00
2.257381389812921579e+00
2.257381389812921579e+00
2.257381389812921579e+00
2.269006744590594149e+00
2.269006744590594149e+00
2.269006744590594149e+00
2.234130680257575996e+00
2.234130680257575996e+00
2.234130680257575996e+00
2.234130680257575996e+00
2.103251686147648680e+00
2.103251686147648680e+00
2.103251686147648680e+00
2.241818414868617992e+00
2.241818414868617992e+00
2.241818414868617992e+00
2.241818414868617992e+00
2.418448805200354101e+00
2.418448805200354101e+00
2.418448805200354101e+00
2.282507156590471986e+00
2.282507156590471986e+00
2.282507156590471986e+00
2.267319193090609808e+00
2.267319193090609808e+00
2.267319193090609808e+00
2.280257087923826198e+00
2.280257087923826198e+00
2.280257087923826198e+00
2.280257087923826198e+00
2.280257087923826198e+00
2.280257087923826198e+00
2.280257087923826198e+00
2.282507156590471986e+00
2.282507156590471986e+00
2.282507156590471986e+00
2.323383404034546906e+00
2.323383404034546906e+00
2.323383404034546906e+00
2.323383404034546906e+00
2.357884456923124095e+00
2.357884456923124095e+00
2.357884456923124095e+00
2.248381115146336207e+00
2.248381115146336207e+00
2.248381115146336207e+00
2.226255439924313961e+00
2.226255439924313961e+00
2.226255439924313961e+00
2.226255439924313961e+00
2.217442670979949515e+00
2.217442670979949515e+00
2.217442670979949515e+00
2.170378734702597345e+00
2.170378734702597345e+00
2.170378734702597345e+00
2.170378734702597345e+00
2.115627063814203623e+00
2.115627063814203623e+00
2.115627063814203623e+00
2.353384319589831186e+00
2.353384319589831186e+00
2.353384319589831186e+00
2.371947386089663379e+00
2.371947386089663379e+00
2.371947386089663379e+00
2.371947386089663379e+00
2.278757042146061895e+00
2.278757042146061895e+00
2.278757042146061895e+00
2.270506790368358452e+00
2.270506790368358452e+00
2.270506790368358452e+00
2.270131778923917043e+00
2.270131778923917043e+00
2.270131778923917043e+00
2.266569170201727434e+00
2.266569170201727434e+00
2.266569170201727434e+00
2.266569170201727434e+00
2.282882168034912951e+00
2.282882168034912951e+00
2.282882168034912951e+00
2.365759697256386129e+00
2.365759697256386129e+00
2.365759697256386129e+00
2.311945554979094819e+00
2.311945554979094819e+00
2.311945554979094819e+00
2.311945554979094819e+00
2.257006378368480615e+00
2.257006378368480615e+00
2.257006378368480615e+00
2.235443220313119816e+00
2.235443220313119816e+00
2.235443220313119816e+00
2.245756035035248566e+00
2.245756035035248566e+00
2.245756035035248566e+00
2.245756035035248566e+00
2.161940977202673420e+00
2.161940977202673420e+00
2.161940977202673420e+00
2.128377452925199087e+00
2.128377452925199087e+00
2.128377452925199087e+00
2.445262123477889293e+00
2.445262123477889293e+00
2.445262123477889293e+00
2.445262123477889293e+00
2.325633472701193583e+00
2.325633472701193583e+00
2.325633472701193583e+00
2.271069307535019899e+00
2.271069307535019899e+00
2.271069307535019899e+00
2.276131962034974254e+00
2.276131962034974254e+00
2.276131962034974254e+00
2.276131962034974254e+00
2.278757042146061895e+00
2.278757042146061895e+00
2.278757042146061895e+00
2.280069582201605716e+00
2.280069582201605716e+00
2.280069582201605716e+00
2.291132419812616394e+00
2.291132419812616394e+00
2.291132419812616394e+00
2.291132419812616394e+00
2.395760612811670409e+00
2.395760612811670409e+00
2.395760612811670409e+00
2.277444502090518075e+00
2.277444502090518075e+00
2.277444502090518075e+00
2.257568895535142062e+00
2.257568895535142062e+00
2.257568895535142062e+00
2.257568895535142062e+00
2.242005920590838475e+00
2.242005920590838475e+00
2.242005920590838475e+00
2.236943266090884119e+00
2.236943266090884119e+00
2.236943266090884119e+00
2.109626880703146412e+00
2.109626880703146412e+00
2.109626880703146412e+00
2.109626880703146412e+00
2.179754020813623683e+00
2.179754020813623683e+00
2.179754020813623683e+00
2.426699056978057101e+00
2.426699056978057101e+00
2.426699056978057101e+00
2.286632282479323930e+00
2.286632282479323930e+00
2.286632282479323930e+00
2.286632282479323930e+00
2.262069032868434526e+00
2.262069032868434526e+00
2.262069032868434526e+00
2.261694021423993561e+00
2.261694021423993561e+00
2.261694021423993561e+00
2.265444135868404540e+00
2.265444135868404540e+00
2.265444135868404540e+00
2.265444135868404540e+00
2.286444776757103448e+00
2.286444776757103448e+00
2.286444776757103448e+00
2.321320841090121156e+00
2.321320841090121156e+00
2.321320841090121156e+00
2.390510452589495571e+00
2.390510452589495571e+00
2.390510452589495571e+00
2.390510452589495571e+00
2.273319376201666131e+00
2.273319376201666131e+00
2.273319376201666131e+00
2.265256630146183614e+00
2.265256630146183614e+00
2.265256630146183614e+00
2.254006286812952009e+00
2.254006286812952009e+00
2.254006286812952009e+00
2.254006286812952009e+00
2.223630359813226764e+00
2.223630359813226764e+00
2.223630359813226764e+00
2.120314706869716570e+00
2.120314706869716570e+00
2.120314706869716570e+00
2.293757499923703591e+00
2.293757499923703591e+00
2.293757499923703591e+00
2.293757499923703591e+00
2.390322946867275089e+00
2.390322946867275089e+00
2.390322946867275089e+00
2.266194158757286470e+00
2.266194158757286470e+00
2.266194158757286470e+00
2.268819238868374111e+00
2.268819238868374111e+00
2.268819238868374111e+00
2.268819238868374111e+00
2.268819238868374111e+00
2.268819238868374111e+00
2.268819238868374111e+00
2.270506790368358452e+00
2.270506790368358452e+00
2.270506790368358452e+00
2.264694112979522167e+00
2.264694112979522167e+00
2.264694112979522167e+00
2.264694112979522167e+00
2.337821344645527599e+00
2.337821344645527599e+00
2.337821344645527599e+00
2.345884090701010116e+00
2.345884090701010116e+00
2.345884090701010116e+00
2.265256630146183614e+00
2.265256630146183614e+00
2.265256630146183614e+00
2.265256630146183614e+00
2.239005829035309869e+00
2.239005829035309869e+00
2.239005829035309869e+00
2.239005829035309869e+00
2.239005829035309869e+00
2.239005829035309869e+00
2.179941526535844165e+00
2.179941526535844165e+00
2.179941526535844165e+00
2.179941526535844165e+00
2.115064546647541732e+00
2.115064546647541732e+00
2.115064546647541732e+00
2.407760979033784388e+00
2.407760979033784388e+00
2.407760979033784388e+00
2.347571642200994901e+00
2.347571642200994901e+00
2.347571642200994901e+00
2.347571642200994901e+00
2.264694112979522167e+00
2.264694112979522167e+00
2.264694112979522167e+00
2.270506790368358452e+00
2.270506790368358452e+00
2.270506790368358452e+00
2.267319193090609808e+00
2.267319193090609808e+00
2.267319193090609808e+00
2.267319193090609808e+00
2.263006561479537382e+00
2.263006561479537382e+00
2.263006561479537382e+00
2.280069582201605716e+00
2.280069582201605716e+00
2.280069582201605716e+00
2.383197729422894984e+00
2.383197729422894984e+00
2.383197729422894984e+00
2.383197729422894984e+00
2.293194982757042144e+00
2.293194982757042144e+00
2.293194982757042144e+00
2.258506424146244473e+00
2.258506424146244473e+00
2.258506424146244473e+00
2.232630634479812137e+00
2.232630634479812137e+00
2.232630634479812137e+00
2.232630634479812137e+00
2.239568346201971760e+00
2.239568346201971760e+00
2.239568346201971760e+00
2.167003631702627775e+00
2.167003631702627775e+00
2.167003631702627775e+00
2.177128940702536042e+00
2.177128940702536042e+00
2.177128940702536042e+00
2.177128940702536042e+00
2.443574571977904952e+00
2.443574571977904952e+00
2.443574571977904952e+00
2.299570177312540320e+00
2.299570177312540320e+00
2.299570177312540320e+00
2.257756401257362544e+00
2.257756401257362544e+00
2.257756401257362544e+00
2.257756401257362544e+00
2.269569261757255596e+00
2.269569261757255596e+00
2.269569261757255596e+00
2.271069307535019899e+00
2.271069307535019899e+00
2.271069307535019899e+00
2.278007019257179522e+00
2.278007019257179522e+00
2.278007019257179522e+00
2.278007019257179522e+00
2.291507431257057803e+00
2.291507431257057803e+00
2.291507431257057803e+00
2.399885738700521909e+00
2.399885738700521909e+00
2.399885738700521909e+00
2.260943998535111632e+00
2.260943998535111632e+00
2.260943998535111632e+00
2.260943998535111632e+00
2.245943540757469048e+00
2.245943540757469048e+00
2.245943540757469048e+00
2.229255531479842567e+00
2.229255531479842567e+00
2.229255531479842567e+00
2.242193426313058957e+00
2.242193426313058957e+00
2.242193426313058957e+00
2.242193426313058957e+00
2.128377452925199087e+00
2.128377452925199087e+00
2.128377452925199087e+00
2.248381115146336207e+00
2.248381115146336207e+00
2.248381115146336207e+00
2.429511642811365224e+00
2.429511642811365224e+00
2.429511642811365224e+00
2.429511642811365224e+00
2.281382122257148648e+00
2.281382122257148648e+00
2.281382122257148648e+00
2.264694112979522167e+00
2.264694112979522167e+00
2.264694112979522167e+00
2.275756950590533290e+00
2.275756950590533290e+00
2.275756950590533290e+00
2.274256904812768987e+00
2.274256904812768987e+00
2.274256904812768987e+00
2.274256904812768987e+00
2.284569719534897736e+00
2.284569719534897736e+00
2.284569719534897736e+00
2.334071230201117064e+00
2.334071230201117064e+00
2.362384594256416559e+00
2.362384594256416559e+00
2.246693563646351421e+00
2.246693563646351421e+00
2.225692922757652514e+00
2.225692922757652514e+00
2.209379924924466998e+00
2.209379924924466998e+00
2.209379924924466998e+00
2.165128574480422063e+00
2.165128574480422063e+00
2.096126468703268575e+00
2.096126468703268575e+00
2.333883724478896582e+00
2.333883724478896582e+00
2.374384960478530537e+00
2.374384960478530537e+00
2.290007385479293500e+00
2.290007385479293500e+00
2.290944914090395912e+00
2.290944914090395912e+00
2.278569536423841413e+00
2.278569536423841413e+00
2.280819605090487201e+00
2.280819605090487201e+00
2.287194799645985377e+00
2.287194799645985377e+00
2.370634846034120002e+00
2.370634846034120002e+00
2.318695760979033516e+00
2.318695760979033516e+00
2.318695760979033516e+00
2.260943998535111632e+00
2.260943998535111632e+00
2.248568620868556689e+00
2.248568620868556689e+00
2.251943723868526259e+00
2.251943723868526259e+00
2.280632099368266719e+00
2.280632099368266719e+00
2.189129306924649576e+00
2.189129306924649576e+00
2.513326700643940814e+00
2.513326700643940814e+00
2.349071687978759204e+00
2.349071687978759204e+00
2.314758140812402942e+00
2.314758140812402942e+00
2.199067110202337361e+00
2.199067110202337361e+00
2.199067110202337361e+00
2.211817499313333268e+00
2.211817499313333268e+00
2.207317361980041248e+00
2.207317361980041248e+00
2.229818048646504014e+00
2.229818048646504014e+00
2.356571916867580274e+00
2.356571916867580274e+00
2.254006286812952009e+00
2.254006286812952009e+00
2.244631000701926116e+00
2.244631000701926116e+00
2.235068208868678852e+00
2.235068208868678852e+00
2.237130771813104602e+00
2.237130771813104602e+00
2.237130771813104602e+00
2.105126743369853504e+00
2.105126743369853504e+00
2.174316354869228363e+00
2.174316354869228363e+00
2.426324045533616136e+00
2.426324045533616136e+00
2.280444593646046680e+00
2.280444593646046680e+00
2.267694204535050773e+00
2.267694204535050773e+00
2.280819605090487201e+00
2.280819605090487201e+00
2.267506698812830290e+00
2.267506698812830290e+00
2.263756584368419311e+00
2.263756584368419311e+00
2.303132786034730373e+00
2.303132786034730373e+00
2.303132786034730373e+00
2.387885372478407930e+00
2.387885372478407930e+00
2.262069032868434526e+00
2.262069032868434526e+00
2.258506424146244473e+00
2.258506424146244473e+00
2.251006195257423848e+00
2.251006195257423848e+00
2.223630359813226764e+00
2.223630359813226764e+00
2.117877132480849411e+00
2.117877132480849411e+00
2.276881984923856628e+00
2.276881984923856628e+00
2.372884914700766235e+00
2.372884914700766235e+00
2.262819055757316900e+00
2.262819055757316900e+00
2.263569078646198829e+00
2.263569078646198829e+00
2.280257087923826198e+00
2.280257087923826198e+00
2.280257087923826198e+00
2.287007293923764895e+00
2.287007293923764895e+00
2.308945463423566213e+00
2.308945463423566213e+00
2.366884731589709023e+00
2.366884731589709023e+00
2.343634022034363884e+00
2.343634022034363884e+00
2.264506607257301685e+00
2.264506607257301685e+00
2.239755851924192243e+00
2.239755851924192243e+00
2.233193151646474028e+00
2.233193151646474028e+00
2.175441389202551257e+00
2.175441389202551257e+00
2.175441389202551257e+00
2.116564592425305591e+00
2.116564592425305591e+00
2.427261574144718992e+00
2.427261574144718992e+00
2.379822626422925413e+00
2.379822626422925413e+00
2.254943815424054865e+00
2.254943815424054865e+00
2.256631366924039650e+00
2.256631366924039650e+00
2.254006286812952009e+00
2.254006286812952009e+00
2.256256355479598685e+00
2.256256355479598685e+00
2.274819421979430434e+00
2.274819421979430434e+00
2.367822260200811879e+00
2.367822260200811879e+00
2.367822260200811879e+00
2.274819421979430434e+00
2.274819421979430434e+00
2.243880977813043742e+00
2.243880977813043742e+00
2.237693288979766049e+00
2.237693288979766049e+00
2.235255714590899334e+00
2.235255714590899334e+00
2.125939878536332373e+00
2.125939878536332373e+00
2.134002624591814889e+00
2.134002624591814889e+00
2.448449720755638381e+00
2.448449720755638381e+00
2.312695577867977192e+00
2.312695577867977192e+00
2.312695577867977192e+00
2.283069673757133433e+00
2.283069673757133433e+00
2.294320017090365038e+00
2.294320017090365038e+00
2.292257454145939732e+00
2.292257454145939732e+00
2.285132236701559627e+00
2.285132236701559627e+00
2.282132145146031021e+00
2.282132145146031021e+00
2.371759880367442896e+00
2.371759880367442896e+00
2.236755760368663637e+00
2.236755760368663637e+00
2.245381023590808045e+00
2.245381023590808045e+00
2.251568712424085295e+00
2.251568712424085295e+00
2.247818597979674760e+00
2.247818597979674760e+00
2.126877407147435228e+00
2.126877407147435228e+00
2.126877407147435228e+00
2.248006103701895242e+00
2.248006103701895242e+00
2.439449446089053009e+00
2.439449446089053009e+00
2.301632740256966070e+00
2.301632740256966070e+00
2.285694753868221074e+00
2.285694753868221074e+00
2.281194616534928166e+00
2.281194616534928166e+00
2.271631824701681346e+00
2.271631824701681346e+00
2.269194250312814631e+00
2.269194250312814631e+00
2.309320474868007622e+00
2.309320474868007622e+00
2.349821710867641578e+00
2.349821710867641578e+00
2.259068941312906365e+00
2.259068941312906365e+00
2.233755668813135031e+00
2.233755668813135031e+00
2.233755668813135031e+00
2.228880520035401602e+00
2.228880520035401602e+00
2.188754295480208611e+00
2.188754295480208611e+00
2.108689352092044000e+00
2.108689352092044000e+00
2.335196264534440402e+00
2.335196264534440402e+00
2.368759788811914291e+00
2.368759788811914291e+00
2.283257179479354360e+00
2.283257179479354360e+00
2.296570085757011714e+00
2.296570085757011714e+00
2.289069856868190644e+00
2.289069856868190644e+00
2.259443952757347329e+00
2.259443952757347329e+00
2.259443952757347329e+00
2.238818323313089387e+00
2.238818323313089387e+00
2.308757957701345731e+00
2.308757957701345731e+00
2.267881710257271255e+00
2.267881710257271255e+00
2.237880794701986531e+00
2.237880794701986531e+00
2.258693929868464956e+00
2.258693929868464956e+00
2.290944914090395912e+00
2.290944914090395912e+00
2.220442762535478121e+00
2.220442762535478121e+00
2.191004364146854844e+00
2.191004364146854844e+00
2.191004364146854844e+00
2.497201208532975336e+00
2.497201208532975336e+00
2.356384411145359792e+00
2.356384411145359792e+00
2.230568071535386387e+00
2.230568071535386387e+00
2.201879696035645484e+00
2.201879696035645484e+00
2.194379467146824858e+00
2.194379467146824858e+00
2.191379375591296252e+00
2.191379375591296252e+00
2.226630451368755370e+00
2.226630451368755370e+00
2.388635395367290304e+00
2.388635395367290304e+00
2.297320108645893644e+00
2.297320108645893644e+00
2.297320108645893644e+00
2.261881527146214044e+00
2.261881527146214044e+00
2.246318552201910457e+00
2.246318552201910457e+00
2.232630634479812137e+00
2.232630634479812137e+00
2.103064180425428198e+00
2.103064180425428198e+00
2.160253425702688634e+00
2.160253425702688634e+00
2.425386516922513280e+00
2.425386516922513280e+00
2.311008026367992407e+00
2.311008026367992407e+00
2.276319467757194737e+00
2.276319467757194737e+00
2.276319467757194737e+00
2.268444227423932702e+00
2.268444227423932702e+00
2.262256538590655452e+00
2.262256538590655452e+00
2.259443952757347329e+00
2.259443952757347329e+00
2.255318826868495830e+00
2.255318826868495830e+00
2.323945921201208797e+00
2.323945921201208797e+00
2.223630359813226764e+00
2.223630359813226764e+00
2.207879879146702695e+00
2.207879879146702695e+00
2.213692556535538980e+00
2.213692556535538980e+00
2.153128208258308529e+00
2.153128208258308529e+00
2.153128208258308529e+00
2.031061983092746104e+00
2.031061983092746104e+00
2.179003997924741309e+00
2.179003997924741309e+00
2.302195257423627517e+00
2.302195257423627517e+00
2.195692007202368234e+00
2.195692007202368234e+00
2.247443586535233351e+00
2.247443586535233351e+00
2.280632099368266719e+00
2.280632099368266719e+00
2.306132877590258534e+00
2.306132877590258534e+00
2.311195532090212890e+00
2.311195532090212890e+00
2.311195532090212890e+00
2.382822717978454019e+00
2.382822717978454019e+00
2.416948759422589799e+00
2.416948759422589799e+00
2.384885280922879769e+00
2.384885280922879769e+00
2.429886654255806189e+00
2.429886654255806189e+00
2.446387157811212187e+00
2.446387157811212187e+00
2.384510269478438804e+00
2.384510269478438804e+00
2.288132328257088233e+00
2.288132328257088233e+00
2.516514297921689458e+00
2.516514297921689458e+00
2.410573564867091623e+00
2.410573564867091623e+00
2.410573564867091623e+00
2.264131595812860720e+00
2.264131595812860720e+00
2.250068666646320992e+00
2.250068666646320992e+00
2.259818964201788294e+00
2.259818964201788294e+00
2.259256447035126847e+00
2.259256447035126847e+00
2.263194067201757864e+00
2.263194067201757864e+00
2.374572466200750576e+00
2.374572466200750576e+00
2.298257637256996500e+00
2.298257637256996500e+00
2.251943723868526259e+00
2.251943723868526259e+00
2.233568163090914993e+00
2.233568163090914993e+00
2.233568163090914993e+00
2.236568254646443155e+00
2.236568254646443155e+00
2.119377178258613714e+00
2.119377178258613714e+00
2.119939695425275605e+00
2.119939695425275605e+00
2.398385692922757606e+00
2.398385692922757606e+00
2.201317178868984037e+00
2.201317178868984037e+00
2.168316171758171151e+00
2.168316171758171151e+00
2.200567155980101663e+00
2.200567155980101663e+00
2.234505691702016961e+00
2.234505691702016961e+00
2.278007019257179522e+00
2.278007019257179522e+00
2.278007019257179522e+00
2.313820612201300086e+00
2.313820612201300086e+00
2.409073519089327764e+00
2.409073519089327764e+00
2.253443769646290562e+00
2.253443769646290562e+00
2.217067659535508550e+00
2.217067659535508550e+00
2.208067384868923178e+00
2.208067384868923178e+00
2.189879329813531950e+00
2.189879329813531950e+00
2.067250587481307633e+00
2.067250587481307633e+00
2.196067018646809643e+00
2.196067018646809643e+00
2.196067018646809643e+00
2.386947843867305519e+00
2.386947843867305519e+00
2.269006744590594149e+00
2.269006744590594149e+00
2.260381481368449741e+00
2.260381481368449741e+00
2.282882168034912951e+00
2.282882168034912951e+00
2.321508346812341639e+00
2.321508346812341639e+00
2.358259468367565059e+00
2.358259468367565059e+00
2.414511185033723084e+00
2.414511185033723084e+00
2.392573015533921321e+00
2.392573015533921321e+00
2.392573015533921321e+00
2.260381481368449741e+00
2.260381481368449741e+00
2.279507065034943825e+00
2.279507065034943825e+00
2.296757591479232197e+00
2.296757591479232197e+00
2.239943357646412725e+00
2.239943357646412725e+00
2.146190496536149350e+00
2.146190496536149350e+00
2.381135166478469234e+00
2.381135166478469234e+00
2.431386700033570492e+00
2.431386700033570492e+00
2.340633930478835278e+00
2.340633930478835278e+00
2.376635029145176325e+00
2.376635029145176325e+00
2.376635029145176325e+00
2.387322855311746483e+00
2.387322855311746483e+00
2.349634205145421095e+00
2.349634205145421095e+00
2.285882259590441556e+00
2.285882259590441556e+00
2.331446150090029423e+00
2.331446150090029423e+00
2.260006469924008776e+00
2.260006469924008776e+00
2.176753929258095077e+00
2.176753929258095077e+00
2.149940610980559885e+00
2.149940610980559885e+00
2.153503219702749494e+00
2.153503219702749494e+00
2.153503219702749494e+00
2.085251136814477935e+00
2.085251136814477935e+00
2.081876033814508364e+00
2.081876033814508364e+00
2.426699056978057101e+00
2.426699056978057101e+00
2.317570726645710621e+00
2.317570726645710621e+00
2.258693929868464956e+00
2.258693929868464956e+00
2.307820429090243319e+00
2.307820429090243319e+00
2.384135258033997840e+00
2.384135258033997840e+00
2.383572740867336393e+00
2.383572740867336393e+00
2.352821802423169739e+00
2.352821802423169739e+00
2.424823999755851833e+00
2.424823999755851833e+00
2.424823999755851833e+00
2.280632099368266719e+00
2.280632099368266719e+00
2.231880611590930208e+00
2.231880611590930208e+00
2.215942625202185212e+00
2.215942625202185212e+00
2.226630451368755370e+00
2.226630451368755370e+00
2.114689535203100768e+00
2.114689535203100768e+00
2.159878414258247670e+00
2.159878414258247670e+00
2.390135441145054607e+00
2.390135441145054607e+00
2.245193517868587563e+00
2.245193517868587563e+00
2.226630451368755370e+00
2.226630451368755370e+00
2.226630451368755370e+00
2.257756401257362544e+00
2.257756401257362544e+00
2.296382580034791232e+00
2.296382580034791232e+00
2.303320291756950855e+00
2.303320291756950855e+00
2.329758598590044638e+00
2.329758598590044638e+00
2.427824091311380439e+00
2.427824091311380439e+00
2.307445417645802355e+00
2.307445417645802355e+00
2.258881435590685438e+00
2.258881435590685438e+00
2.210129947813348927e+00
2.210129947813348927e+00
2.210129947813348927e+00
2.193066927091281038e+00
2.193066927091281038e+00
2.110001892147587377e+00
2.110001892147587377e+00
2.267881710257271255e+00
2.267881710257271255e+00
2.337446333201086635e+00
2.337446333201086635e+00
2.206942350535599839e+00
2.206942350535599839e+00
2.234693197424237443e+00
2.234693197424237443e+00
2.263944090090640238e+00
2.263944090090640238e+00
2.277819513534959039e+00
2.277819513534959039e+00
2.292069948423719250e+00
2.292069948423719250e+00
2.292069948423719250e+00
2.365572191534165203e+00
2.365572191534165203e+00
2.367634754478591397e+00
2.367634754478591397e+00
2.279507065034943825e+00
2.279507065034943825e+00
2.254756309701834383e+00
2.254756309701834383e+00
2.248756126590777171e+00
2.248756126590777171e+00
2.181816583758049433e+00
2.181816583758049433e+00
2.135315164647358710e+00
2.135315164647358710e+00
2.430261665700247153e+00
2.430261665700247153e+00
2.382447706534013054e+00
2.382447706534013054e+00
2.382447706534013054e+00
2.311195532090212890e+00
2.330133610034486047e+00
2.330133610034486047e+00
2.330133610034486047e+00
2.325258461256752618e+00
2.325258461256752618e+00
2.286632282479323930e+00
2.286632282479323930e+00
2.276131962034974254e+00
2.276131962034974254e+00
2.361072054200873183e+00
2.361072054200873183e+00
2.258506424146244473e+00
2.258506424146244473e+00
2.187066743980223826e+00
2.187066743980223826e+00
2.148253059480575100e+00
2.148253059480575100e+00
2.160065919980468152e+00
2.160065919980468152e+00
2.091251319925535146e+00
2.091251319925535146e+00
2.091251319925535146e+00
2.107189306314279698e+00
2.107189306314279698e+00
2.395198095645008962e+00
2.395198095645008962e+00
2.219880245368816230e+00
2.219880245368816230e+00
2.149190588091677956e+00
2.149190588091677956e+00
2.190441846980193397e+00
2.190441846980193397e+00
2.230005554368724940e+00
2.230005554368724940e+00
2.220817773979919085e+00
2.220817773979919085e+00
2.257193884090700653e+00
2.257193884090700653e+00
2.406823450422681532e+00
2.406823450422681532e+00
2.406823450422681532e+00
2.305007843256935196e+00
2.305007843256935196e+00
2.320945829645680192e+00
2.320945829645680192e+00
2.317383220923490139e+00
2.317383220923490139e+00
2.308757957701345731e+00
2.308757957701345731e+00
2.217067659535508550e+00
2.217067659535508550e+00
2.371009857478560967e+00
2.371009857478560967e+00
2.560015625476852019e+00
2.560015625476852019e+00
2.400073244422742391e+00
2.400073244422742391e+00
2.400073244422742391e+00
2.348884182256538722e+00
2.348884182256538722e+00
2.358259468367565059e+00
2.358259468367565059e+00
2.365197180089724238e+00
2.365197180089724238e+00
2.319445783867915889e+00
2.319445783867915889e+00
2.260756492812891150e+00
2.260756492812891150e+00
2.269381756035035114e+00
2.269381756035035114e+00
2.149940610980559885e+00
2.149940610980559885e+00
2.128377452925199087e+00
2.128377452925199087e+00
2.148440565202795582e+00
2.148440565202795582e+00
2.148440565202795582e+00
2.139252784813989727e+00
2.139252784813989727e+00
2.085063631092257452e+00
2.085063631092257452e+00
2.319633289590136371e+00
2.319633289590136371e+00
2.327883541367839371e+00
2.327883541367839371e+00
2.169253700369274007e+00
2.169253700369274007e+00
2.211629993591112786e+00
2.211629993591112786e+00
2.254568803979613900e+00
2.254568803979613900e+00
2.238068300424207457e+00
2.238068300424207457e+00
2.263756584368419311e+00
2.263756584368419311e+00
2.384322763756218322e+00
2.384322763756218322e+00
2.353946836756492633e+00
2.353946836756492633e+00
2.353946836756492633e+00
2.301820245979186552e+00
2.301820245979186552e+00
2.291882442701498768e+00
2.291882442701498768e+00
2.331633655812249906e+00
2.331633655812249906e+00
2.271444318979460864e+00
2.271444318979460864e+00
2.238818323313089387e+00
2.238818323313089387e+00
2.500763817255165389e+00
2.500763817255165389e+00
2.286444776757103448e+00
2.286444776757103448e+00
2.169628711813714972e+00
2.169628711813714972e+00
2.169628711813714972e+00
2.142815393536179780e+00
2.142815393536179780e+00
2.131940061647389140e+00
2.131940061647389140e+00
2.177878963591417971e+00
2.177878963591417971e+00
2.259631458479567812e+00
2.259631458479567812e+00
2.404948393200476264e+00
2.404948393200476264e+00
2.282507156590471986e+00
2.282507156590471986e+00
2.322258369701224012e+00
2.322258369701224012e+00
2.348696676534318240e+00
2.348696676534318240e+00
2.354509353923154524e+00
2.354509353923154524e+00
2.354509353923154524e+00
2.222692831202123909e+00
2.222692831202123909e+00
2.227567979979857782e+00
2.227567979979857782e+00
2.432699240089114312e+00
2.432699240089114312e+00
2.236943266090884119e+00
2.236943266090884119e+00
2.208817407757805107e+00
2.208817407757805107e+00
2.213505050813318054e+00
2.213505050813318054e+00
2.216692648091067142e+00
2.216692648091067142e+00
2.202067201757865966e+00
2.202067201757865966e+00
2.254193792535172935e+00
2.254193792535172935e+00
2.254193792535172935e+00
2.385635303811762142e+00
2.385635303811762142e+00
2.238818323313089387e+00
2.238818323313089387e+00
2.209754936368907963e+00
2.209754936368907963e+00
2.171128757591479275e+00
2.171128757591479275e+00
2.109814386425366894e+00
2.109814386425366894e+00
2.031061983092746104e+00
2.031061983092746104e+00
2.244068483535264225e+00
2.244068483535264225e+00
2.396135624256111374e+00
2.396135624256111374e+00
2.277444502090518075e+00
2.277444502090518075e+00
2.277444502090518075e+00
2.210317453535568966e+00
2.210317453535568966e+00
2.187066743980223826e+00
2.187066743980223826e+00
2.200942167424543072e+00
2.200942167424543072e+00
2.278194524979400004e+00
2.278194524979400004e+00
2.414136173589282119e+00
2.414136173589282119e+00
2.446574663533433114e+00
2.446574663533433114e+00
2.344571550645466296e+00
2.344571550645466296e+00
2.254381298257393418e+00
2.254381298257393418e+00
2.254381298257393418e+00
2.256443861201819168e+00
2.256443861201819168e+00
2.194566972869045340e+00
2.194566972869045340e+00
2.232818140202032620e+00
2.232818140202032620e+00
2.509389080477309353e+00
2.509389080477309353e+00
2.470200384533219218e+00
2.470200384533219218e+00
2.396135624256111374e+00
2.396135624256111374e+00
2.289632374034852091e+00
2.289632374034852091e+00
2.215192602313302839e+00
2.215192602313302839e+00
2.215192602313302839e+00
2.194941984313486305e+00
2.194941984313486305e+00
2.199067110202337361e+00
2.199067110202337361e+00
2.326195989867855030e+00
2.326195989867855030e+00
2.291507431257057803e+00
2.291507431257057803e+00
2.247818597979674760e+00
2.247818597979674760e+00
2.198504593035676358e+00
2.198504593035676358e+00
2.219505233924375265e+00
2.219505233924375265e+00
2.191941892757957699e+00
2.191941892757957699e+00
2.212755027924436124e+00
2.212755027924436124e+00
2.212755027924436124e+00
2.529264687032685366e+00
2.529264687032685366e+00
2.422386425366985119e+00
2.422386425366985119e+00
2.342321481978820064e+00
2.342321481978820064e+00
2.291694936979278285e+00
2.291694936979278285e+00
2.255693838312936794e+00
2.255693838312936794e+00
2.229818048646504014e+00
2.229818048646504014e+00
2.296945097201452679e+00
2.296945097201452679e+00
2.450512283700064131e+00
2.450512283700064131e+00
2.450512283700064131e+00
2.368947294534135217e+00
2.368947294534135217e+00
2.390135441145054607e+00
2.390135441145054607e+00
2.351696768089846401e+00
2.351696768089846401e+00
2.279507065034943825e+00
2.279507065034943825e+00
2.081313516647846917e+00
2.081313516647846917e+00
2.158003357036042402e+00
2.158003357036042402e+00
2.342696493423261028e+00
2.342696493423261028e+00
2.175628894924771739e+00
2.175628894924771739e+00
2.175628894924771739e+00
2.179379009369182274e+00
2.179379009369182274e+00
2.210879970702230857e+00
2.210879970702230857e+00
2.197379558702353020e+00
2.197379558702353020e+00
2.167191137424848257e+00
2.167191137424848257e+00
2.261131504257332114e+00
2.261131504257332114e+00
2.439261940366832526e+00
2.439261940366832526e+00
2.440011963255714900e+00
2.440011963255714900e+00
2.413386150700399746e+00
2.413386150700399746e+00
2.300882717368083696e+00
2.300882717368083696e+00
2.300882717368083696e+00
2.120689718314157535e+00
2.120689718314157535e+00
1.908808252204962308e+00
1.908808252204962308e+00
2.169066194647053525e+00
2.169066194647053525e+00
2.338008850367748082e+00
2.338008850367748082e+00
2.329008575701162709e+00
2.329008575701162709e+00
2.345884090701010116e+00
2.345884090701010116e+00
2.319633289590136371e+00
2.319633289590136371e+00
2.289069856868190644e+00
2.289069856868190644e+00
2.284757225257118218e+00
2.284757225257118218e+00
2.284757225257118218e+00
2.431574205755790974e+00
2.431574205755790974e+00
2.494763634144108178e+00
2.494763634144108178e+00
2.470575395977660182e+00
2.470575395977660182e+00
2.377760063478499664e+00
2.377760063478499664e+00
2.329196081423383191e+00
2.329196081423383191e+00
2.158003357036042402e+00
2.158003357036042402e+00
1.981747978148747258e+00
1.981747978148747258e+00
2.251568712424085295e+00
2.251568712424085295e+00
2.176566423535874595e+00
2.176566423535874595e+00
2.176566423535874595e+00
2.142627887813959298e+00
2.142627887813959298e+00
2.169628711813714972e+00
2.169628711813714972e+00
2.198129581591235393e+00
2.198129581591235393e+00
2.287194799645985377e+00
2.287194799645985377e+00
2.370634846034120002e+00
2.370634846034120002e+00
2.544452650532547988e+00
2.544452650532547988e+00
2.457825006866664719e+00
2.457825006866664719e+00
2.278382030701620931e+00
2.278382030701620931e+00
2.088438734092227023e+00
2.088438734092227023e+00
2.046812463759269729e+00
2.046812463759269729e+00
2.046812463759269729e+00
1.938434156315805401e+00
1.938434156315805401e+00
2.030311960203863730e+00
2.030311960203863730e+00
2.311945554979094819e+00
2.311945554979094819e+00
2.178816492202520827e+00
2.178816492202520827e+00
2.203379741813409787e+00
2.203379741813409787e+00
2.280069582201605716e+00
2.280069582201605716e+00
2.359572008423108880e+00
2.359572008423108880e+00
2.485950865199743731e+00
2.485950865199743731e+00
2.515389263588366120e+00
2.515389263588366120e+00
2.481450727866450823e+00
2.481450727866450823e+00
2.481450727866450823e+00
2.278944547868282378e+00
2.278944547868282378e+00
2.170941251869258792e+00
2.170941251869258792e+00
2.139815301980651618e+00
2.139815301980651618e+00
2.198879604480116878e+00
2.198879604480116878e+00
2.115064546647541732e+00
2.115064546647541732e+00
2.259818964201788294e+00
2.259818964201788294e+00
2.354696859645375007e+00
2.354696859645375007e+00
2.201879696035645484e+00
2.201879696035645484e+00
2.201879696035645484e+00
2.250256172368541474e+00
2.250256172368541474e+00
2.342133976256599581e+00
2.342133976256599581e+00
2.412073610644855925e+00
2.412073610644855925e+00
2.373822443311869090e+00
2.373822443311869090e+00
2.356571916867580274e+00
2.356571916867580274e+00
2.254006286812952009e+00
2.254006286812952009e+00
2.054125186925870761e+00
2.054125186925870761e+00
1.969747611926633502e+00
1.969747611926633502e+00
1.969747611926633502e+00
1.998435987426374183e+00
1.998435987426374183e+00
2.028249397259437981e+00
2.028249397259437981e+00
2.053187658314767905e+00
2.053187658314767905e+00
2.367634754478591397e+00
2.367634754478591397e+00
2.374384960478530537e+00
2.374384960478530537e+00
2.358446974089785542e+00
2.358446974089785542e+00
2.401385784478286212e+00
2.401385784478286212e+00
2.439449446089053009e+00
2.439449446089053009e+00
2.439449446089053009e+00
2.474700521866512126e+00
2.474700521866512126e+00
2.424636494033631351e+00
2.424636494033631351e+00
2.388635395367290304e+00
2.388635395367290304e+00
2.133252601702932960e+00
2.133252601702932960e+00
2.014748985259559699e+00
2.014748985259559699e+00
1.997498458815271549e+00
1.997498458815271549e+00
2.050937589648121673e+00
2.050937589648121673e+00
1.988685689870906881e+00
1.988685689870906881e+00
2.098939054536576698e+00
2.098939054536576698e+00
2.098939054536576698e+00
2.345134067812128187e+00
2.345134067812128187e+00
2.212755027924436124e+00
2.212755027924436124e+00
2.354884365367595489e+00
2.354884365367595489e+00
2.616829859309671491e+00
2.616829859309671491e+00
2.662768761253700323e+00
2.662768761253700323e+00
2.581203772087771409e+00
2.581203772087771409e+00
2.482388256477553679e+00
2.482388256477553679e+00
2.461387615588854771e+00
2.461387615588854771e+00
2.224192876979888212e+00
2.224192876979888212e+00
2.242380932035279439e+00
2.242380932035279439e+00
2.317570726645710621e+00
2.317570726645710621e+00
2.317570726645710621e+00
2.412823633533738299e+00
2.412823633533738299e+00
2.266944181646168399e+00
2.266944181646168399e+00
2.362009582811975594e+00
2.362009582811975594e+00
2.423136448255867048e+00
2.423136448255867048e+00
2.100626606036561483e+00
2.100626606036561483e+00
2.107376812036500180e+00
2.107376812036500180e+00
2.139627796258431136e+00
2.139627796258431136e+00
2.062000427259132795e+00
2.062000427259132795e+00
2.062000427259132795e+00
1.927371318704794501e+00
1.927371318704794501e+00
2.001623584704122827e+00
2.001623584704122827e+00
2.146940519425031280e+00
2.146940519425031280e+00
2.125189855647450443e+00
2.125189855647450443e+00
2.060312875759148010e+00
2.060312875759148010e+00
2.094251411481063307e+00
2.094251411481063307e+00
2.143002899258400262e+00
2.143002899258400262e+00
2.212942533646656607e+00
2.212942533646656607e+00
2.410198553422650658e+00
2.410198553422650658e+00
2.410198553422650658e+00
2.477513107699820250e+00
2.477513107699820250e+00
2.511076631977294138e+00
2.511076631977294138e+00
2.611954710531937618e+00
2.611954710531937618e+00
2.503013885921811621e+00
2.503013885921811621e+00
2.356009399700918827e+00
2.356009399700918827e+00
2.356571916867580274e+00
2.356571916867580274e+00
2.529077181310464884e+00
2.529077181310464884e+00
2.593766655476546834e+00
2.593766655476546834e+00
2.700269905697806117e+00
2.700269905697806117e+00
2.620579973754082026e+00
2.620579973754082026e+00
2.620579973754082026e+00
2.339696401867732423e+00
2.339696401867732423e+00
2.107376812036500180e+00
2.107376812036500180e+00
1.970122623371074688e+00
1.970122623371074688e+00
2.197567064424573946e+00
2.197567064424573946e+00
1.955872188482314478e+00
1.955872188482314478e+00
1.874869716483047011e+00
1.874869716483047011e+00
1.973685232093264519e+00
1.973685232093264519e+00
2.145440473647266977e+00
2.145440473647266977e+00
2.335571275978881367e+00
2.335571275978881367e+00
2.558515579699087716e+00
2.558515579699087716e+00
2.765146885586108105e+00
2.765146885586108105e+00
2.765146885586108105e+00
2.602016907254249833e+00
2.602016907254249833e+00
2.420886379589221260e+00
2.420886379589221260e+00
2.063500473036897098e+00
2.063500473036897098e+00
1.803055024872585177e+00
1.803055024872585177e+00
1.821805597094637852e+00
1.821805597094637852e+00
1.931308938871425740e+00
1.931308938871425740e+00
2.169816217535935454e+00
2.169816217535935454e+00
2.058625324259163225e+00
2.058625324259163225e+00
2.060875392925809457e+00
2.060875392925809457e+00
2.060875392925809457e+00
2.177316446424756524e+00
2.177316446424756524e+00
2.355446882534256936e+00
2.355446882534256936e+00
2.561890682699057287e+00
2.561890682699057287e+00
2.652080935087130609e+00
2.652080935087130609e+00
2.665581347087008446e+00
2.665581347087008446e+00
2.286257271034882521e+00
2.286257271034882521e+00
2.197379558702353020e+00
2.197379558702353020e+00
2.350196722312082542e+00
2.350196722312082542e+00
2.350196722312082542e+00
2.441699514755699685e+00
2.441699514755699685e+00
2.385635303811762142e+00
2.385635303811762142e+00
2.459700064088869986e+00
2.459700064088869986e+00
2.604454481643116548e+00
2.604454481643116548e+00
2.459512558366649504e+00
2.459512558366649504e+00
2.238443311868648422e+00
2.238443311868648422e+00
2.080750999481185470e+00
2.080750999481185470e+00
2.120689718314157535e+00
2.120689718314157535e+00
2.143940427869502674e+00
2.143940427869502674e+00
2.143940427869502674e+00
2.214442579424420909e+00
2.214442579424420909e+00
2.222317819757682944e+00
2.222317819757682944e+00
2.080188482314524023e+00
2.080188482314524023e+00
2.001998596148564236e+00
2.001998596148564236e+00
1.946684408093508845e+00
1.946684408093508845e+00
1.953059602649006798e+00
1.953059602649006798e+00
2.022811731315042216e+00
2.022811731315042216e+00
2.170191228980376863e+00
2.170191228980376863e+00
2.170191228980376863e+00
2.088438734092227023e+00
2.088438734092227023e+00
2.193066927091281038e+00
2.193066927091281038e+00
2.636517960142826578e+00
2.636517960142826578e+00
3.052780663472396405e+00
3.052780663472396405e+00
3.097594531083101899e+00
3.097594531083101899e+00
2.555702993865779593e+00
2.555702993865779593e+00
2.068375621814630971e+00
2.068375621814630971e+00
2.020374156926175946e+00
2.020374156926175946e+00
2.246693563646351421e+00
2.246693563646351421e+00
2.246693563646351421e+00
2.296757591479232197e+00
2.296757591479232197e+00
2.277632007812738557e+00
2.277632007812738557e+00
2.155940794091616652e+00
2.155940794091616652e+00
2.148253059480575100e+00
2.148253059480575100e+00
2.503951414532914033e+00
2.503951414532914033e+00
2.373634937589648164e+00
2.373634937589648164e+00
2.421823908200323228e+00
2.421823908200323228e+00
2.551952879421369058e+00
2.551952879421369058e+00
2.562453199865718290e+00
2.562453199865718290e+00
2.562453199865718290e+00
2.366697225867488541e+00
2.366697225867488541e+00
2.141502853480635959e+00
2.141502853480635959e+00
2.011186376537369647e+00
2.011186376537369647e+00
1.643112643818475993e+00
1.643112643818475993e+00
1.669175939207129034e+00
1.669175939207129034e+00
1.762553788872951444e+00
1.762553788872951444e+00
1.827805780205694841e+00
1.827805780205694841e+00
1.825930722983489574e+00
1.825930722983489574e+00
2.168316171758171151e+00
2.168316171758171151e+00
2.168316171758171151e+00
2.554390453810235773e+00
2.554390453810235773e+00
2.546702719199194664e+00
2.546702719199194664e+00
2.601641895809808869e+00
2.601641895809808869e+00
2.501138828699606353e+00
2.501138828699606353e+00
2.410386059144871140e+00
2.410386059144871140e+00
2.419011322367015993e+00
2.419011322367015993e+00
2.564890774254585448e+00
2.564890774254585448e+00
2.469450361644337288e+00
2.469450361644337288e+00
2.105689260536515395e+00
2.105689260536515395e+00
2.105689260536515395e+00
1.969560106204413019e+00
1.969560106204413019e+00
2.106439283425397324e+00
2.106439283425397324e+00
2.050562578203680708e+00
2.050562578203680708e+00
2.077563402203436382e+00
2.077563402203436382e+00
2.340446424756614796e+00
2.340446424756614796e+00
2.365947202978606612e+00
2.365947202978606612e+00
2.601641895809808869e+00
2.601641895809808869e+00
2.915901486251411434e+00
2.915901486251411434e+00
2.607642078920865636e+00
2.607642078920865636e+00
2.294695028534806447e+00
2.294695028534806447e+00
2.294695028534806447e+00
2.182941618091372327e+00
2.182941618091372327e+00
2.322258369701224012e+00
2.322258369701224012e+00
2.520076906643879511e+00
2.520076906643879511e+00
2.475825556199835464e+00
2.475825556199835464e+00
2.413573656422620228e+00
2.413573656422620228e+00
2.448449720755638381e+00
2.448449720755638381e+00
2.265819147312845505e+00
2.265819147312845505e+00
2.057312784203619849e+00
2.057312784203619849e+00
2.057312784203619849e+00
2.368197271645252844e+00
2.368197271645252844e+00
2.273506881923887057e+00
2.273506881923887057e+00
2.262631550035096417e+00
2.262631550035096417e+00
2.185379192480239485e+00
2.185379192480239485e+00
1.872619647816400779e+00
1.872619647816400779e+00
1.792929715872676688e+00
1.792929715872676688e+00
1.863056855983153737e+00
1.863056855983153737e+00
2.025811822870570822e+00
2.025811822870570822e+00
2.065750541703543330e+00
2.065750541703543330e+00
2.065750541703543330e+00
2.254006286812952009e+00
2.254006286812952009e+00
2.253256263924070080e+00
2.253256263924070080e+00
2.066500564592425260e+00
2.066500564592425260e+00
1.635237403485213736e+00
1.635237403485213736e+00
1.727302713095492326e+00
1.727302713095492326e+00
2.411698599200414961e+00
2.411698599200414961e+00
2.537889950254829774e+00
2.537889950254829774e+00
2.503013885921811621e+00
2.503013885921811621e+00
2.503013885921811621e+00
2.474700521866512126e+00
2.474700521866512126e+00
2.523076998199408116e+00
2.523076998199408116e+00
2.544452650532547988e+00
2.544452650532547988e+00
2.622642536698507332e+00
2.622642536698507332e+00
2.821773613696707095e+00
2.821773613696707095e+00
2.773959654530472552e+00
2.773959654530472552e+00
2.632767845698416043e+00
2.632767845698416043e+00
2.417511276589251690e+00
2.417511276589251690e+00
2.417511276589251690e+00
2.248568620868556689e+00
2.248568620868556689e+00
2.139065279091769245e+00
2.139065279091769245e+00
2.363884640034180418e+00
2.363884640034180418e+00
2.592266609698782531e+00
2.592266609698782531e+00
2.449012237922299828e+00
2.449012237922299828e+00
2.131752555925168657e+00
2.131752555925168657e+00
1.631674794763023906e+00
1.631674794763023906e+00
1.463669667653431761e+00
1.463669667653431761e+00
1.613111728263191713e+00
1.613111728263191713e+00
1.613111728263191713e+00
1.725052644428846094e+00
1.725052644428846094e+00
2.036687154759361462e+00
2.036687154759361462e+00
2.304445326090273749e+00
2.304445326090273749e+00
2.406073427533799602e+00
2.406073427533799602e+00
2.421636402478102745e+00
2.421636402478102745e+00
2.324883449812311209e+00
2.324883449812311209e+00
2.348321665089877275e+00
2.348321665089877275e+00
2.765709402752769552e+00
2.765709402752769552e+00
2.735708487197485272e+00
2.735708487197485272e+00
2.735708487197485272e+00
2.710207708975493901e+00
2.710207708975493901e+00
2.614017273476363368e+00
2.614017273476363368e+00
2.684894436475722568e+00
2.684894436475722568e+00
2.642893154698324754e+00
2.642893154698324754e+00
2.588141483809930588e+00
2.588141483809930588e+00
2.548390270699179450e+00
2.548390270699179450e+00
2.263006561479537382e+00
2.263006561479537382e+00
2.175066377758110736e+00
2.175066377758110736e+00
2.168691183202612560e+00
2.168691183202612560e+00
2.168691183202612560e+00
2.101189123203222930e+00
2.101189123203222930e+00
1.961684865871150762e+00
1.961684865871150762e+00
2.060875392925809457e+00
2.060875392925809457e+00
2.341383953367717208e+00
2.341383953367717208e+00
2.120502212591937052e+00
2.120502212591937052e+00
1.991123264259773595e+00
1.991123264259773595e+00
1.905433149204992960e+00
1.905433149204992960e+00
1.868494521927549057e+00
1.868494521927549057e+00
1.868494521927549057e+00
2.046624958037049247e+00
2.046624958037049247e+00
2.099689077425458628e+00
2.099689077425458628e+00
2.416573747978148834e+00
2.416573747978148834e+00
2.330321115756706529e+00
2.330321115756706529e+00
2.275006927701650916e+00
2.275006927701650916e+00
2.007623767815180038e+00
2.007623767815180038e+00
1.757303628650776606e+00
1.757303628650776606e+00
1.611611682485427410e+00
1.611611682485427410e+00
1.780366832483901485e+00
1.780366832483901485e+00
2.108314340647602592e+00
2.108314340647602592e+00
2.108314340647602592e+00
2.129877498702963390e+00
2.129877498702963390e+00
2.332571184423352761e+00
2.332571184423352761e+00
2.565265785699026413e+00
2.565265785699026413e+00
2.765896908474990035e+00
2.765896908474990035e+00
2.896400891140476830e+00
2.896400891140476830e+00
3.102282174138614845e+00
3.102282174138614845e+00
3.317726248970000569e+00
3.317726248970000569e+00
3.076406384472182509e+00
3.076406384472182509e+00
2.795897824030274759e+00
2.795897824030274759e+00
2.795897824030274759e+00
2.583828852198858606e+00
2.583828852198858606e+00
2.344571550645466296e+00
2.344571550645466296e+00
2.132502578814050587e+00
2.132502578814050587e+00
2.149753105258339403e+00
2.149753105258339403e+00
2.098939054536576698e+00
2.098939054536576698e+00
1.992810815759758380e+00
1.992810815759758380e+00
1.946121890926847176e+00
1.946121890926847176e+00
1.907683217871639192e+00
1.907683217871639192e+00
1.874307199316385342e+00
1.874307199316385342e+00
1.874307199316385342e+00
1.974060243537705706e+00
1.974060243537705706e+00
2.146378002258369833e+00
2.146378002258369833e+00
2.137377727591784460e+00
2.137377727591784460e+00
2.050187566759239299e+00
2.050187566759239299e+00
2.261131504257332114e+00
2.261131504257332114e+00
2.532827295754875419e+00
2.532827295754875419e+00
2.433449262977995797e+00
2.433449262977995797e+00
2.265444135868404540e+00
2.265444135868404540e+00
2.265444135868404540e+00
2.503013885921811621e+00
2.503013885921811621e+00
2.293569994201483109e+00
2.293569994201483109e+00
2.181816583758049433e+00
2.181816583758049433e+00
2.201129673146763555e+00
2.201129673146763555e+00
2.194191961424603932e+00
2.194191961424603932e+00
2.176378917813653668e+00
2.176378917813653668e+00
2.138315256202887316e+00
2.138315256202887316e+00
2.248193609424115724e+00
2.248193609424115724e+00
2.248193609424115724e+00
2.129502487258521981e+00
2.129502487258521981e+00
2.191754387035737217e+00
2.191754387035737217e+00
2.244068483535264225e+00
2.244068483535264225e+00
2.338383861812189490e+00
2.338383861812189490e+00
2.253818781090731527e+00
2.253818781090731527e+00
2.567703360087893572e+00
2.567703360087893572e+00
2.633330362865077490e+00
2.633330362865077490e+00
2.233380657368694511e+00
2.233380657368694511e+00
2.233380657368694511e+00
2.157628345591601438e+00
2.157628345591601438e+00
2.219505233924375265e+00
2.219505233924375265e+00
2.228318002868740155e+00
2.228318002868740155e+00
2.279694570757164307e+00
2.279694570757164307e+00
2.280069582201605716e+00
2.280069582201605716e+00
2.407385967589342979e+00
2.407385967589342979e+00
2.420511368144779851e+00
2.420511368144779851e+00
2.564703268532364966e+00
2.564703268532364966e+00
2.488388439588610446e+00
2.488388439588610446e+00
2.357696951200903612e+00
2.357696951200903612e+00
2.357696951200903612e+00
2.181816583758049433e+00
2.181816583758049433e+00
2.136815210425123013e+00
2.136815210425123013e+00
2.149753105258339403e+00
2.149753105258339403e+00
1.978560380870998392e+00
1.978560380870998392e+00
1.933183996093630785e+00
1.933183996093630785e+00
1.942559282204657345e+00
1.942559282204657345e+00
2.006873744926298109e+00
2.006873744926298109e+00
2.281944639423810539e+00
2.281944639423810539e+00
2.667456404309213713e+00
2.667456404309213713e+00
2.667456404309213713e+00
2.785960020752586530e+00
2.785960020752586530e+00
2.597141758476516404e+00
2.597141758476516404e+00
2.359947019867549844e+00
2.359947019867549844e+00
2.097251503036591469e+00
2.097251503036591469e+00
1.853869075594348104e+00
1.853869075594348104e+00
1.785429486983855618e+00
1.785429486983855618e+00
2.085063631092257452e+00
2.085063631092257452e+00
2.084501113925596005e+00
2.084501113925596005e+00
2.116377086703085553e+00
2.116377086703085553e+00
2.116377086703085553e+00
2.315883175145725836e+00
2.315883175145725836e+00
2.585141392254402426e+00
2.585141392254402426e+00
2.733083407086398076e+00
2.733083407086398076e+00
2.693144688253425567e+00
2.693144688253425567e+00
2.738333567308572469e+00
2.738333567308572469e+00
2.637455488753929433e+00
2.637455488753929433e+00
2.489888485366374749e+00
2.489888485366374749e+00
2.289257362590411127e+00
2.289257362590411127e+00
2.174503860591448845e+00
2.174503860591448845e+00
2.003311136204107612e+00
2.003311136204107612e+00
1.938434156315805401e+00
1.938434156315805401e+00
2.264506607257301685e+00
2.264506607257301685e+00
2.264506607257301685e+00
2.155003265480513797e+00
2.155003265480513797e+00
2.084688619647816488e+00
2.084688619647816488e+00
2.112626972258675018e+00
2.112626972258675018e+00
2.182941618091372327e+00
2.182941618091372327e+00
2.185754203924680450e+00
2.185754203924680450e+00
2.218942716757713818e+00
2.218942716757713818e+00
2.447887203588976490e+00
2.447887203588976490e+00
2.435136814477980582e+00
2.435136814477980582e+00
2.482575762199774161e+00
2.482575762199774161e+00
2.393885555589465142e+00
2.393885555589465142e+00
2.372509903256325270e+00
2.372509903256325270e+00
2.372509903256325270e+00
2.208629902035584625e+00
2.208629902035584625e+00
2.233568163090914993e+00
2.233568163090914993e+00
2.425761528366954689e+00
2.425761528366954689e+00
2.266381664479506952e+00
2.266381664479506952e+00
2.203379741813409787e+00
2.203379741813409787e+00
2.182941618091372327e+00
2.182941618091372327e+00
2.173566331980346433e+00
2.173566331980346433e+00
2.158565874202703849e+00
2.158565874202703849e+00
2.154628254036072832e+00
2.154628254036072832e+00
2.154628254036072832e+00
2.156128299813837135e+00
2.156128299813837135e+00
2.117127109591967482e+00
2.117127109591967482e+00
2.251568712424085295e+00
2.251568712424085295e+00
2.441324503311258276e+00
2.441324503311258276e+00
2.397448164311655194e+00
2.397448164311655194e+00
2.364072145756401344e+00
2.364072145756401344e+00
2.600141850032044566e+00
2.600141850032044566e+00
2.638393017365031845e+00
2.638393017365031845e+00
2.638393017365031845e+00
2.429511642811365224e+00
2.429511642811365224e+00
2.314195623645741495e+00
2.314195623645741495e+00
2.278194524979400004e+00
2.278194524979400004e+00
2.183129123813593253e+00
2.183129123813593253e+00
2.142627887813959298e+00
2.142627887813959298e+00
2.171503769035920239e+00
2.171503769035920239e+00
2.177316446424756524e+00
2.177316446424756524e+00
2.128564958647419569e+00
2.128564958647419569e+00
2.128564958647419569e+00
2.080563493758964988e+00
2.080563493758964988e+00
2.108876857814264483e+00
2.108876857814264483e+00
2.166441114535965884e+00
2.166441114535965884e+00
2.201317178868984037e+00
2.201317178868984037e+00
2.493451094088564801e+00
2.493451094088564801e+00
2.434574297311319135e+00
2.434574297311319135e+00
2.278382030701620931e+00
2.278382030701620931e+00
2.510139103366191726e+00
2.510139103366191726e+00
2.623955076754051152e+00
2.623955076754051152e+00
2.344946562089907705e+00
2.344946562089907705e+00
2.116564592425305591e+00
2.116564592425305591e+00
2.165691091647083955e+00
2.165691091647083955e+00
2.165691091647083955e+00
2.247631092257453833e+00
2.247631092257453833e+00
2.333696218756676100e+00
2.333696218756676100e+00
2.251568712424085295e+00
2.251568712424085295e+00
2.203004730368968822e+00
2.203004730368968822e+00
2.039687246314890068e+00
2.039687246314890068e+00
1.947434430982390996e+00
1.947434430982390996e+00
2.207692373424482213e+00
2.207692373424482213e+00
1.975747795037690491e+00
1.975747795037690491e+00
1.975747795037690491e+00
1.931308938871425740e+00
1.931308938871425740e+00
2.034437086092715230e+00
2.034437086092715230e+00
2.166441114535965884e+00
2.166441114535965884e+00
2.292069948423719250e+00
2.292069948423719250e+00
2.445449629200109776e+00
2.445449629200109776e+00
2.689394573809015476e+00
2.689394573809015476e+00
2.680019287697988695e+00
2.680019287697988695e+00
2.705895077364421475e+00
2.705895077364421475e+00
2.705895077364421475e+00
2.634267891476180345e+00
2.634267891476180345e+00
2.484075807977538464e+00
2.484075807977538464e+00
2.255318826868495830e+00
2.255318826868495830e+00
2.252693746757408633e+00
2.252693746757408633e+00
2.373634937589648164e+00
2.373634937589648164e+00
2.097439008758812395e+00
2.097439008758812395e+00
1.986248115482039944e+00
1.986248115482039944e+00
2.002186101870784718e+00
2.002186101870784718e+00
2.108689352092044000e+00
2.108689352092044000e+00
2.108689352092044000e+00
2.219130222479934300e+00
2.219130222479934300e+00
2.319070772423474924e+00
2.319070772423474924e+00
2.397448164311655194e+00
2.397448164311655194e+00
2.437761894589068223e+00
2.437761894589068223e+00
2.476763084810937876e+00
2.476763084810937876e+00
2.473575487533188788e+00
2.473575487533188788e+00
2.341196447645496725e+00
2.341196447645496725e+00
2.036687154759361462e+00
2.036687154759361462e+00
2.175066377758110736e+00
2.175066377758110736e+00
2.175066377758110736e+00
2.168878688924833043e+00
2.168878688924833043e+00
2.029936948759422766e+00
2.029936948759422766e+00
2.003498641926328094e+00
2.003498641926328094e+00
2.083188573870052185e+00
2.083188573870052185e+00
2.245756035035248566e+00
2.245756035035248566e+00
2.364822168645283273e+00
2.364822168645283273e+00
2.511076631977294138e+00
2.511076631977294138e+00
2.479950682088686964e+00
2.479950682088686964e+00
2.468512833033234433e+00
2.468512833033234433e+00
2.468512833033234433e+00
2.413761162144840711e+00
2.413761162144840711e+00
2.385447798089541660e+00
2.385447798089541660e+00
2.253631275368511044e+00
2.253631275368511044e+00
2.223630359813226764e+00
2.223630359813226764e+00
2.539014984588152668e+00
2.539014984588152668e+00
2.385822809533982625e+00
2.385822809533982625e+00
2.268819238868374111e+00
2.268819238868374111e+00
2.168128666035950669e+00
2.168128666035950669e+00
2.168128666035950669e+00
1.993373332926419828e+00
1.993373332926419828e+00
1.900182988982818122e+00
1.900182988982818122e+00
1.926058778649250680e+00
1.926058778649250680e+00
2.101376628925443413e+00
2.101376628925443413e+00
2.090688802758873255e+00
2.090688802758873255e+00
2.179754020813623683e+00
2.179754020813623683e+00
2.339321390423291458e+00
2.339321390423291458e+00
2.574641071810052750e+00
2.574641071810052750e+00
2.574641071810052750e+00
2.452949858088931290e+00
2.452949858088931290e+00
2.479763176366466482e+00
2.479763176366466482e+00
2.625267616809594973e+00
2.625267616809594973e+00
2.463450178533280521e+00
2.463450178533280521e+00
2.409636036255989211e+00
2.409636036255989211e+00
2.383010223700674501e+00
2.383010223700674501e+00
2.314758140812402942e+00
2.314758140812402942e+00
2.298632648701437464e+00
2.298632648701437464e+00
2.362197088534196077e+00
2.362197088534196077e+00
2.362197088534196077e+00
2.427261574144718992e+00
2.427261574144718992e+00
2.231880611590930208e+00
2.231880611590930208e+00
2.110001892147587377e+00
2.110001892147587377e+00
2.057687795648060813e+00
2.057687795648060813e+00
2.053375164036988387e+00
2.053375164036988387e+00
2.020749168370616911e+00
2.020749168370616911e+00
2.273694387646107540e+00
2.273694387646107540e+00
2.398385692922757606e+00
2.398385692922757606e+00
2.398385692922757606e+00
2.331258644367808941e+00
2.331258644367808941e+00
2.348696676534318240e+00
2.348696676534318240e+00
2.345134067812128187e+00
2.345134067812128187e+00
2.236943266090884119e+00
2.236943266090884119e+00
2.125752372814111890e+00
2.125752372814111890e+00
2.157253334147160473e+00
2.157253334147160473e+00
2.108876857814264483e+00
2.108876857814264483e+00
2.015874019592883037e+00
2.015874019592883037e+00
1.997310953093050845e+00
1.997310953093050845e+00
2.106439283425397324e+00
2.106439283425397324e+00
2.106439283425397324e+00
2.134565141758476781e+00
2.134565141758476781e+00
2.118252143925290376e+00
2.118252143925290376e+00
2.548015259254738041e+00
2.548015259254738041e+00
2.561703176976836804e+00
2.561703176976836804e+00
2.506576494644001674e+00
2.506576494644001674e+00
2.505826471755119300e+00
2.505826471755119300e+00
2.481638233588671305e+00
2.481638233588671305e+00
2.437574388866847741e+00
2.437574388866847741e+00
2.437574388866847741e+00
2.384135258033997840e+00
2.384135258033997840e+00
2.429511642811365224e+00
2.429511642811365224e+00
2.268069215979491737e+00
2.268069215979491737e+00
2.196254524369030126e+00
2.196254524369030126e+00
2.130815027314065802e+00
2.130815027314065802e+00
2.137002716147343495e+00
2.137002716147343495e+00
2.086938688314462720e+00
2.086938688314462720e+00
2.164191045869319652e+00
2.164191045869319652e+00
2.482763267921994643e+00
2.482763267921994643e+00
2.350384228034303025e+00
2.350384228034303025e+00
2.292257454145939732e+00
2.292257454145939732e+00
2.282319650868251504e+00
2.282319650868251504e+00
2.284007202368236289e+00
2.284007202368236289e+00
2.299382671590319838e+00
2.299382671590319838e+00
2.337821344645527599e+00
2.337821344645527599e+00
2.462325144199957183e+00
2.462325144199957183e+00
2.462325144199957183e+00
2.299945188756981285e+00
2.299945188756981285e+00
2.317195715201269657e+00
2.317195715201269657e+00
2.261881527146214044e+00
2.261881527146214044e+00
2.214817590868861874e+00
2.214817590868861874e+00
2.098751548814355772e+00
2.098751548814355772e+00
2.239193334757530351e+00
2.239193334757530351e+00
2.362947111423078006e+00
2.186129215369121415e+00
2.186129215369121415e+00
2.133627613147373925e+00
2.144502945036164565e+00
2.144502945036164565e+00
2.147878048036134135e+00
2.156315805536057617e+00
2.156315805536057617e+00
2.214255073702200427e+00
2.258131412701803509e+00
2.258131412701803509e+00
2.197567064424573946e+00
2.242380932035279439e+00
2.242380932035279439e+00
2.277819513534959039e+00
2.212567522202215642e+00
2.212567522202215642e+00
2.175441389202551257e+00
2.474888027588732609e+00
2.474888027588732609e+00
2.476013061922055947e+00
2.338196356089969008e+00
2.338196356089969008e+00
2.288694845423749680e+00
2.251006195257423848e+00
2.251006195257423848e+00
2.256256355479598685e+00
2.321133335367900674e+00
2.321133335367900674e+00
2.397260658589434712e+00
2.256443861201819168e+00
2.256443861201819168e+00
2.172253791924802613e+00
2.224755394146549659e+00
2.224755394146549659e+00
2.278194524979400004e+00
2.203567247535630269e+00
2.203567247535630269e+00
2.204317270424512643e+00
2.509576586199530279e+00
2.509576586199530279e+00
2.368009765923032361e+00
2.360509537034211291e+00
2.360509537034211291e+00
2.339883907589953349e+00
2.339883907589953349e+00
2.304820337534714714e+00
2.312508072145756710e+00
2.312508072145756710e+00
2.313258095034638639e+00
2.411136082033753514e+00
2.411136082033753514e+00
2.296757591479232197e+00
2.266381664479506952e+00
2.266381664479506952e+00
2.236755760368663637e+00
2.246881069368571904e+00
2.246881069368571904e+00
2.141127842036194995e+00
2.260943998535111632e+00
2.260943998535111632e+00
2.447324686422315043e+00
2.211817499313333268e+00
2.211817499313333268e+00
2.129689992980742907e+00
2.146565507980590315e+00
2.146565507980590315e+00
2.170003723258155937e+00
2.145252967925046494e+00
2.145252967925046494e+00
2.164566057313760616e+00
2.253443769646290562e+00
2.253443769646290562e+00
2.163253517258217240e+00
2.190629352702413879e+00
2.190629352702413879e+00
2.215005096591082356e+00
2.224942899868770141e+00
2.224942899868770141e+00
2.193629444257942485e+00
2.392573015533921321e+00
2.392573015533921321e+00
2.474700521866512126e+00
2.339133884701071420e+00
2.339133884701071420e+00
2.290757408368175430e+00
2.290007385479293500e+00
2.290007385479293500e+00
2.287194799645985377e+00
2.317570726645710621e+00
2.317570726645710621e+00
2.366322214423047576e+00
2.253256263924070080e+00
2.253256263924070080e+00
2.150128116702780368e+00
2.155378276924954761e+00
2.155378276924954761e+00
2.212192510757774677e+00
2.210879970702230857e+00
2.210879970702230857e+00
2.200192144535660699e+00
2.515764275032807085e+00
2.515764275032807085e+00
2.454074892422254184e+00
2.440761986144596829e+00
2.440761986144596829e+00
2.356946928312021239e+00
2.233380657368694511e+00
2.233380657368694511e+00
2.177878963591417971e+00
2.184254158146916147e+00
2.184254158146916147e+00
2.274256904812768987e+00
2.142065370647297406e+00
2.142065370647297406e+00
2.138877773369548763e+00
2.163253517258217240e+00
2.163253517258217240e+00
2.251381206701864812e+00
2.191379375591296252e+00
2.191379375591296252e+00
2.237130771813104602e+00
2.509389080477309353e+00
2.509389080477309353e+00
2.362384594256416559e+00
2.356384411145359792e+00
2.356384411145359792e+00
2.366884731589709023e+00
2.366884731589709023e+00
2.311758049256874337e+00
2.311758049256874337e+00
2.311758049256874337e+00
2.281569627979369130e+00
2.281569627979369130e+00
2.272006836146122755e+00
2.272006836146122755e+00
2.362572099978637485e+00
2.362572099978637485e+00
2.279694570757164307e+00
2.279694570757164307e+00
2.297320108645893644e+00
2.297320108645893644e+00
2.299570177312540320e+00
2.299570177312540320e+00
2.292632465590380253e+00
2.292632465590380253e+00
2.166628620258186366e+00
2.166628620258186366e+00
2.296007568590349823e+00
2.296007568590349823e+00
2.296007568590349823e+00
2.450137272255623166e+00
2.450137272255623166e+00
2.294882534257026929e+00
2.294882534257026929e+00
2.262256538590655452e+00
2.262256538590655452e+00
2.245193517868587563e+00
2.245193517868587563e+00
2.238068300424207457e+00
2.238068300424207457e+00
2.251193700979644330e+00
2.251193700979644330e+00
2.287944822534867306e+00
2.287944822534867306e+00
2.319258278145695407e+00
2.319258278145695407e+00
2.240130863368633207e+00
2.240130863368633207e+00
2.240130863368633207e+00
2.245943540757469048e+00
2.245943540757469048e+00
2.251756218146305777e+00
2.251756218146305777e+00
2.203004730368968822e+00
2.203004730368968822e+00
2.113001983703115982e+00
2.113001983703115982e+00
2.358259468367565059e+00
2.358259468367565059e+00
2.340633930478835278e+00
2.340633930478835278e+00
2.224942899868770141e+00
2.224942899868770141e+00
2.245381023590808045e+00
2.245381023590808045e+00
2.245381023590808045e+00
2.238255806146427940e+00
2.238255806146427940e+00
2.240505874813074172e+00
2.240505874813074172e+00
2.296007568590349823e+00
2.296007568590349823e+00
2.421636402478102745e+00
2.421636402478102745e+00
2.359009491256446989e+00
2.359009491256446989e+00
2.314945646534623425e+00
2.314945646534623425e+00
2.297507614368114126e+00
2.297507614368114126e+00
2.299382671590319838e+00
2.299382671590319838e+00
2.206754844813379357e+00
2.206754844813379357e+00
2.206754844813379357e+00
2.135690176091799675e+00
2.135690176091799675e+00
2.409636036255989211e+00
2.409636036255989211e+00
2.297132602923673161e+00
2.297132602923673161e+00
2.266756675923947917e+00
2.266756675923947917e+00
2.294882534257026929e+00
2.294882534257026929e+00
2.281007110812707683e+00
2.281007110812707683e+00
2.265819147312845505e+00
2.265819147312845505e+00
2.268256721701712220e+00
2.268256721701712220e+00
2.268256721701712220e+00
2.377572557756279181e+00
2.377572557756279181e+00
2.261319009979552597e+00
2.261319009979552597e+00
2.212380016479995160e+00
2.212380016479995160e+00
2.194566972869045340e+00
2.194566972869045340e+00
2.213130039368877089e+00
2.213130039368877089e+00
2.116377086703085553e+00
2.116377086703085553e+00
2.190254341257972914e+00
2.190254341257972914e+00
2.419198828089236475e+00
2.419198828089236475e+00
2.288132328257088233e+00
2.288132328257088233e+00
2.285319742423780109e+00
2.285319742423780109e+00
2.285319742423780109e+00
2.289069856868190644e+00
2.289069856868190644e+00
2.269756767479476078e+00
2.269756767479476078e+00
2.291694936979278285e+00
2.291694936979278285e+00
2.311383037812433372e+00
2.311383037812433372e+00
2.355446882534256936e+00
2.355446882534256936e+00
2.178628986480300345e+00
2.178628986480300345e+00
2.129877498702963390e+00
2.129877498702963390e+00
2.106439283425397324e+00
2.106439283425397324e+00
2.106439283425397324e+00
2.082438550981169811e+00
2.082438550981169811e+00
2.037624683370464318e+00
2.037624683370464318e+00
2.293382488479262626e+00
2.293382488479262626e+00
2.455199926755577522e+00
2.455199926755577522e+00
2.358259468367565059e+00
2.358259468367565059e+00
2.348509170812097757e+00
2.348509170812097757e+00
2.338571367534409973e+00
2.338571367534409973e+00
2.280257087923826198e+00
2.280257087923826198e+00
2.288882351145970162e+00
2.288882351145970162e+00
2.288882351145970162e+00
2.372322397534104788e+00
2.372322397534104788e+00
2.406823450422681532e+00
2.406823450422681532e+00
2.319820795312356854e+00
2.319820795312356854e+00
2.236755760368663637e+00
2.236755760368663637e+00
2.198692098757896396e+00
2.198692098757896396e+00
2.131752555925168657e+00
2.131752555925168657e+00
2.107001800592058771e+00
2.107001800592058771e+00
2.430261665700247153e+00
2.430261665700247153e+00
2.404198370311593891e+00
2.404198370311593891e+00
2.404198370311593891e+00
2.351696768089846401e+00
2.351696768089846401e+00
2.338383861812189490e+00
2.338383861812189490e+00
2.260568987090670667e+00
2.260568987090670667e+00
2.200754661702322146e+00
2.200754661702322146e+00
2.164566057313760616e+00
2.164566057313760616e+00
2.246693563646351421e+00
2.246693563646351421e+00
2.168316171758171151e+00
2.168316171758171151e+00
2.135877681814020157e+00
2.135877681814020157e+00
2.134190130314035372e+00
2.134190130314035372e+00
2.134190130314035372e+00
2.214255073702200427e+00
2.214255073702200427e+00
2.216317636646626177e+00
2.216317636646626177e+00
2.283444685201574842e+00
2.283444685201574842e+00
2.594329172643208281e+00
2.594329172643208281e+00
2.458387524033326166e+00
2.458387524033326166e+00
2.389197912533951751e+00
2.389197912533951751e+00
2.366509720145268059e+00
2.366509720145268059e+00
2.326383495590075512e+00
2.326383495590075512e+00
2.326383495590075512e+00
2.294507522812585520e+00
2.294507522812585520e+00
2.279507065034943825e+00
2.279507065034943825e+00
2.394823084200567997e+00
2.394823084200567997e+00
2.278007019257179522e+00
2.278007019257179522e+00
2.205067293313394572e+00
2.205067293313394572e+00
2.149378093813898438e+00
2.149378093813898438e+00
2.162128482924894346e+00
2.162128482924894346e+00
2.050375072481459782e+00
2.050375072481459782e+00
2.050375072481459782e+00
2.193816949980162967e+00
2.193816949980162967e+00
2.367822260200811879e+00
2.367822260200811879e+00
2.256443861201819168e+00
2.256443861201819168e+00
2.281007110812707683e+00
2.281007110812707683e+00
2.305757866145817125e+00
2.305757866145817125e+00
2.319445783867915889e+00
2.319445783867915889e+00
2.335758781701101849e+00
2.335758781701101849e+00
2.383760246589556875e+00
2.383760246589556875e+00
2.415823725089266905e+00
2.415823725089266905e+00
2.415823725089266905e+00
2.337446333201086635e+00
2.337446333201086635e+00
2.318883266701254442e+00
2.318883266701254442e+00
2.278382030701620931e+00
2.278382030701620931e+00
2.197942075869014911e+00
2.197942075869014911e+00
2.113752006591998356e+00
2.113752006591998356e+00
2.308382946256904766e+00
2.308382946256904766e+00
2.326008484145634547e+00
2.326008484145634547e+00
2.267131687368389326e+00
2.267131687368389326e+00
2.267131687368389326e+00
2.296945097201452679e+00
2.296945097201452679e+00
2.286819788201544412e+00
2.286819788201544412e+00
2.277256996368297592e+00
2.277256996368297592e+00
2.253068758201849597e+00
2.253068758201849597e+00
2.319820795312356854e+00
2.319820795312356854e+00
2.282694662312692468e+00
2.282694662312692468e+00
2.242568437757499922e+00
2.242568437757499922e+00
2.215755119479964730e+00
2.215755119479964730e+00
2.227755485702078264e+00
2.227755485702078264e+00
2.157253334147160473e+00
2.157253334147160473e+00
2.157253334147160473e+00
2.138127750480666833e+00
2.138127750480666833e+00
2.454449903866695148e+00
2.454449903866695148e+00
2.347759147923215384e+00
2.347759147923215384e+00
2.256443861201819168e+00
2.256443861201819168e+00
2.251568712424085295e+00
2.251568712424085295e+00
2.259631458479567812e+00
2.259631458479567812e+00
2.290944914090395912e+00
2.290944914090395912e+00
2.298820154423657947e+00
2.298820154423657947e+00
2.427074068422498510e+00
2.427074068422498510e+00
2.427074068422498510e+00
2.315320657979064389e+00
2.315320657979064389e+00
2.261506515701773079e+00
2.261506515701773079e+00
2.223067842646564873e+00
2.223067842646564873e+00
2.217817682424390480e+00
2.217817682424390480e+00
2.079063447981200685e+00
2.079063447981200685e+00
2.134752647480697263e+00
2.134752647480697263e+00
2.384322763756218322e+00
2.384322763756218322e+00
2.261319009979552597e+00
2.261319009979552597e+00
2.264881618701742649e+00
2.264881618701742649e+00
2.264881618701742649e+00
2.293007477034821662e+00
2.293007477034821662e+00
2.293945005645924073e+00
2.293945005645924073e+00
2.289632374034852091e+00
2.289632374034852091e+00
2.284944730979339145e+00
2.284944730979339145e+00
2.367072237311929506e+00
2.367072237311929506e+00
2.250068666646320992e+00
2.250068666646320992e+00
2.233005645924253102e+00
2.233005645924253102e+00
2.215567613757744247e+00
2.215567613757744247e+00
2.183129123813593253e+00
2.183129123813593253e+00
2.183129123813593253e+00
2.116377086703085553e+00
2.116377086703085553e+00
2.290007385479293500e+00
2.290007385479293500e+00
2.362197088534196077e+00
2.362197088534196077e+00
2.248568620868556689e+00
2.248568620868556689e+00
2.264131595812860720e+00
2.264131595812860720e+00
2.261131504257332114e+00
2.261131504257332114e+00
2.280069582201605716e+00
2.280069582201605716e+00
2.313820612201300086e+00
2.313820612201300086e+00
2.406823450422681532e+00
2.406823450422681532e+00
2.406823450422681532e+00
2.403635853144932444e+00
2.403635853144932444e+00
2.326571001312295994e+00
2.326571001312295994e+00
2.284569719534897736e+00
2.284569719534897736e+00
2.287757316812646824e+00
2.287757316812646824e+00
2.225130405590991067e+00
2.225130405590991067e+00
2.144502945036164565e+00
2.144502945036164565e+00
2.391822992645039392e+00
2.391822992645039392e+00
2.298070131534776017e+00
2.298070131534776017e+00
2.298070131534776017e+00
2.215005096591082356e+00
2.215005096591082356e+00
2.224755394146549659e+00
2.224755394146549659e+00
2.267506698812830290e+00
2.267506698812830290e+00
2.298257637256996500e+00
2.298257637256996500e+00
2.309320474868007622e+00
2.309320474868007622e+00
2.417886288033692654e+00
2.417886288033692654e+00
2.328446058534500818e+00
2.328446058534500818e+00
2.260756492812891150e+00
2.260756492812891150e+00
2.260756492812891150e+00
2.212755027924436124e+00
2.212755027924436124e+00
2.227567979979857782e+00
2.227567979979857782e+00
2.138690267647328280e+00
2.138690267647328280e+00
2.149940610980559885e+00
2.149940610980559885e+00
2.438324411755729670e+00
2.438324411755729670e+00
2.271819330423901828e+00
2.271819330423901828e+00
2.248756126590777171e+00
2.248756126590777171e+00
2.278194524979400004e+00
2.278194524979400004e+00
2.279507065034943825e+00
2.279507065034943825e+00
2.279507065034943825e+00
2.266194158757286470e+00
2.266194158757286470e+00
2.276319467757194737e+00
2.276319467757194737e+00
2.382072695089572090e+00
2.382072695089572090e+00
2.278382030701620931e+00
2.278382030701620931e+00
2.267319193090609808e+00
2.267319193090609808e+00
2.213692556535538980e+00
2.213692556535538980e+00
2.191566881313516735e+00
2.191566881313516735e+00
2.060500381481368493e+00
2.060500381481368493e+00
2.060500381481368493e+00
2.191191869869075770e+00
2.191191869869075770e+00
2.379447614978484449e+00
2.379447614978484449e+00
2.242943449201941331e+00
2.242943449201941331e+00
2.261694021423993561e+00
2.261694021423993561e+00
2.284007202368236289e+00
2.284007202368236289e+00
2.287569811090426342e+00
2.287569811090426342e+00
2.302007751701407035e+00
2.302007751701407035e+00
2.342696493423261028e+00
2.342696493423261028e+00
2.381510177922910199e+00
2.381510177922910199e+00
2.381510177922910199e+00
2.272381847590563719e+00
2.272381847590563719e+00
2.246693563646351421e+00
2.246693563646351421e+00
2.239568346201971760e+00
2.239568346201971760e+00
2.192504409924619146e+00
2.192504409924619146e+00
2.115814569536424106e+00
2.115814569536424106e+00
2.346634113589892490e+00
2.346634113589892490e+00
2.383572740867336393e+00
2.383572740867336393e+00
2.277069490646077110e+00
2.277069490646077110e+00
2.249881160924100509e+00
2.249881160924100509e+00
2.249881160924100509e+00
2.234505691702016961e+00
2.234505691702016961e+00
2.239193334757530351e+00
2.239193334757530351e+00
2.257756401257362544e+00
2.257756401257362544e+00
2.350946745200964472e+00
2.350946745200964472e+00
2.314195623645741495e+00
2.314195623645741495e+00
2.262256538590655452e+00
2.262256538590655452e+00
2.264131595812860720e+00
2.264131595812860720e+00
2.301445234534745587e+00
2.301445234534745587e+00
2.301445234534745587e+00
2.215005096591082356e+00
2.215005096591082356e+00
2.157065828424939546e+00
2.157065828424939546e+00
2.450512283700064131e+00
2.450512283700064131e+00
2.320945829645680192e+00
2.320945829645680192e+00
2.236380748924222672e+00
2.236380748924222672e+00
2.232443128757591655e+00
2.232443128757591655e+00
2.229255531479842567e+00
2.229255531479842567e+00
2.237130771813104602e+00
2.237130771813104602e+00
2.276694479201635701e+00
2.276694479201635701e+00
2.276694479201635701e+00
2.402510818811609106e+00
2.402510818811609106e+00
2.310070497756889552e+00
2.310070497756889552e+00
2.276506973479415219e+00
2.276506973479415219e+00
2.248006103701895242e+00
2.248006103701895242e+00
2.251381206701864812e+00
2.251381206701864812e+00
2.122377269814142320e+00
2.122377269814142320e+00
2.177316446424756524e+00
2.177316446424756524e+00
2.455199926755577522e+00
2.455199926755577522e+00
2.310445509201330516e+00
2.310445509201330516e+00
2.244443494979705633e+00
2.244443494979705633e+00
2.233568163090914993e+00
2.233568163090914993e+00
2.250068666646320992e+00
2.250068666646320992e+00
2.263006561479537382e+00
2.263006561479537382e+00
2.279507065034943825e+00
2.279507065034943825e+00
2.345884090701010116e+00
2.345884090701010116e+00
2.345884090701010116e+00
2.226630451368755370e+00
2.226630451368755370e+00
2.228318002868740155e+00
2.228318002868740155e+00
2.247631092257453833e+00
2.247631092257453833e+00
2.254943815424054865e+00
2.254943815424054865e+00
2.166253608813745402e+00
2.166253608813745402e+00
2.303132786034730373e+00
2.303132786034730373e+00
2.405323404644917229e+00
2.405323404644917229e+00
2.266569170201727434e+00
2.266569170201727434e+00
2.227192968535416817e+00
2.227192968535416817e+00
2.227192968535416817e+00
2.204692281868953607e+00
2.204692281868953607e+00
2.225692922757652514e+00
2.225692922757652514e+00
2.273319376201666131e+00
2.273319376201666131e+00
2.355821893978697901e+00
2.355821893978697901e+00
2.371759880367442896e+00
2.371759880367442896e+00
2.302007751701407035e+00
2.302007751701407035e+00
2.284569719534897736e+00
2.284569719534897736e+00
2.302195257423627517e+00
2.302195257423627517e+00
2.240318369090853690e+00
2.240318369090853690e+00
2.164378551591540134e+00
2.164378551591540134e+00
2.164378551591540134e+00
2.431761711478011456e+00
2.431761711478011456e+00
2.367634754478591397e+00
2.367634754478591397e+00
2.248756126590777171e+00
2.248756126590777171e+00
2.222880336924344391e+00
2.222880336924344391e+00
2.209567430646687480e+00
2.209567430646687480e+00
2.204317270424512643e+00
2.204317270424512643e+00
2.247818597979674760e+00
2.247818597979674760e+00
2.363509628589739453e+00
2.363509628589739453e+00
2.363509628589739453e+00
2.293569994201483109e+00
2.293569994201483109e+00
2.254568803979613900e+00
2.254568803979613900e+00
2.237318277535325084e+00
2.237318277535325084e+00
2.254381298257393418e+00
2.254381298257393418e+00
2.146378002258369833e+00
2.146378002258369833e+00
2.140377819147312621e+00
2.140377819147312621e+00
2.449387249366740793e+00
2.449387249366740793e+00
2.307820429090243319e+00
2.307820429090243319e+00
2.307820429090243319e+00
2.278194524979400004e+00
2.278194524979400004e+00
2.279694570757164307e+00
2.279694570757164307e+00
2.259068941312906365e+00
2.259068941312906365e+00
2.261319009979552597e+00
2.261319009979552597e+00
2.269194250312814631e+00
2.269194250312814631e+00
2.384135258033997840e+00
2.384135258033997840e+00
2.263756584368419311e+00
2.263756584368419311e+00
2.239568346201971760e+00
2.239568346201971760e+00
2.244818506424146598e+00
2.244818506424146598e+00
2.244818506424146598e+00
2.264131595812860720e+00
2.264131595812860720e+00
2.154815759758293314e+00
2.154815759758293314e+00
2.272006836146122755e+00
2.272006836146122755e+00
2.463075167088839557e+00
2.463075167088839557e+00
2.292819971312600735e+00
2.292819971312600735e+00
2.264881618701742649e+00
2.264881618701742649e+00
2.250631183812982439e+00
2.250631183812982439e+00
2.258318918424023991e+00
2.258318918424023991e+00
2.277256996368297592e+00
2.277256996368297592e+00
2.277256996368297592e+00
2.307632923368022837e+00
2.307632923368022837e+00
2.354884365367595489e+00
2.354884365367595489e+00
2.247443586535233351e+00
2.247443586535233351e+00
2.246693563646351421e+00
2.246693563646351421e+00
2.274069399090548504e+00
2.274069399090548504e+00
2.241068391979735619e+00
2.241068391979735619e+00
2.145440473647266977e+00
2.145440473647266977e+00
2.347946653645436310e+00
2.347946653645436310e+00
2.373822443311869090e+00
2.373822443311869090e+00
2.373822443311869090e+00
2.260756492812891150e+00
2.260756492812891150e+00
2.268256721701712220e+00
2.268256721701712220e+00
2.246318552201910457e+00
2.246318552201910457e+00
2.222880336924344391e+00
2.222880336924344391e+00
2.244255989257484707e+00
2.244255989257484707e+00
2.326195989867855030e+00
2.326195989867855030e+00
2.299007660145878429e+00
2.299007660145878429e+00
2.247068575090792386e+00
2.247068575090792386e+00
2.240693380535294654e+00
2.240693380535294654e+00
2.240693380535294654e+00
2.250818689535202921e+00
2.250818689535202921e+00
2.175816400646992221e+00
2.175816400646992221e+00
2.125189855647450443e+00
2.125189855647450443e+00
2.422198919644764192e+00
2.422198919644764192e+00
2.327508529923398850e+00
2.327508529923398850e+00
2.265444135868404540e+00
2.265444135868404540e+00
2.296757591479232197e+00
2.296757591479232197e+00
2.276131962034974254e+00
2.276131962034974254e+00
2.265069124423963132e+00
2.265069124423963132e+00
2.265069124423963132e+00
2.286257271034882521e+00
2.286257271034882521e+00
2.406635944700461049e+00
2.406635944700461049e+00
2.295820062868129341e+00
2.295820062868129341e+00
2.259631458479567812e+00
2.259631458479567812e+00
2.243318460646382295e+00
2.243318460646382295e+00
2.254568803979613900e+00
2.254568803979613900e+00
2.140190313425092139e+00
2.140190313425092139e+00
2.190441846980193397e+00
2.190441846980193397e+00
2.190441846980193397e+00
2.443012054811243061e+00
2.443012054811243061e+00
2.279132053590502860e+00
2.279132053590502860e+00
2.253818781090731527e+00
2.253818781090731527e+00
2.253818781090731527e+00
2.253818781090731527e+00
2.238255806146427940e+00
2.238255806146427940e+00
2.241443403424177028e+00
2.241443403424177028e+00
2.268069215979491737e+00
2.268069215979491737e+00
2.363697134311959935e+00
2.363697134311959935e+00
2.363697134311959935e+00
2.274819421979430434e+00
2.274819421979430434e+00
2.291507431257057803e+00
2.291507431257057803e+00
2.296382580034791232e+00
2.296382580034791232e+00
2.275381939146092325e+00
2.275381939146092325e+00
2.152378185369426600e+00
2.152378185369426600e+00
2.292069948423719250e+00
2.292069948423719250e+00
2.399885738700521909e+00
2.399885738700521909e+00
2.240693380535294654e+00
2.240693380535294654e+00
2.242380932035279439e+00
2.242380932035279439e+00
2.242380932035279439e+00
2.248943632312997654e+00
2.248943632312997654e+00
2.263381572923978347e+00
2.263381572923978347e+00
2.289632374034852091e+00
2.289632374034852091e+00
2.353384319589831186e+00
2.353384319589831186e+00
2.367634754478591397e+00
2.367634754478591397e+00
2.288507339701529197e+00
2.288507339701529197e+00
2.255881344035157721e+00
2.255881344035157721e+00
2.251943723868526259e+00
2.251943723868526259e+00
2.185941709646900932e+00
2.185941709646900932e+00
2.185941709646900932e+00
2.111126926480910715e+00
2.111126926480910715e+00
2.374009949034089573e+00
2.374009949034089573e+00
2.337821344645527599e+00
2.337821344645527599e+00
2.230943082979827352e+00
2.230943082979827352e+00
2.239005829035309869e+00
2.239005829035309869e+00
2.243505966368602778e+00
2.243505966368602778e+00
2.239005829035309869e+00
2.239005829035309869e+00
2.271256813257240381e+00
2.271256813257240381e+00
2.271256813257240381e+00
2.388072878200628413e+00
2.388072878200628413e+00
2.315320657979064389e+00
2.315320657979064389e+00
2.273694387646107540e+00
2.273694387646107540e+00
2.251756218146305777e+00
2.251756218146305777e+00
2.265631641590625023e+00
2.265631641590625023e+00
2.175628894924771739e+00
2.175628894924771739e+00
2.159690908536027187e+00
2.159690908536027187e+00
2.456137455366679934e+00
2.456137455366679934e+00
2.320008301034577336e+00
2.320008301034577336e+00
2.320008301034577336e+00
2.266944181646168399e+00
2.266944181646168399e+00
2.274819421979430434e+00
2.274819421979430434e+00
2.264506607257301685e+00
2.264506607257301685e+00
2.278569536423841413e+00
2.278569536423841413e+00
2.281757133701590057e+00
2.281757133701590057e+00
2.384885280922879769e+00
2.384885280922879769e+00
2.261131504257332114e+00
2.261131504257332114e+00
2.240505874813074172e+00
2.240505874813074172e+00
2.222880336924344391e+00
2.222880336924344391e+00
2.231693105868709726e+00
2.231693105868709726e+00
2.231693105868709726e+00
2.112626972258675018e+00
2.112626972258675018e+00
2.220067751091036712e+00
2.220067751091036712e+00
2.414511185033723084e+00
2.414511185033723084e+00
2.263944090090640238e+00
2.263944090090640238e+00
2.258506424146244473e+00
2.258506424146244473e+00
2.263006561479537382e+00
2.263006561479537382e+00
2.259256447035126847e+00
2.259256447035126847e+00
2.270319284646137969e+00
2.270319284646137969e+00
2.306695394756919981e+00
2.306695394756919981e+00
2.368197271645252844e+00
2.368197271645252844e+00
2.368197271645252844e+00
2.259631458479567812e+00
2.245756035035248566e+00
2.245756035035248566e+00
2.245756035035248566e+00
2.252506241035188150e+00
2.252506241035188150e+00
2.216692648091067142e+00
2.216692648091067142e+00
2.137002716147343495e+00
2.137002716147343495e+00
2.337446333201086635e+00
2.337446333201086635e+00
2.385260292367321178e+00
2.385260292367321178e+00
2.268256721701712220e+00
2.268256721701712220e+00
2.267319193090609808e+00
2.267319193090609808e+00
2.261506515701773079e+00
2.261506515701773079e+00
2.285507248146000592e+00
2.285507248146000592e+00
2.285507248146000592e+00
2.308382946256904766e+00
2.308382946256904766e+00
2.354696859645375007e+00
2.354696859645375007e+00
2.330321115756706529e+00
2.330321115756706529e+00
2.272756859035004684e+00
2.272756859035004684e+00
2.246506057924130939e+00
2.246506057924130939e+00
2.251756218146305777e+00
2.251756218146305777e+00
2.167753654591509704e+00
2.167753654591509704e+00
2.104939237647633021e+00
2.104939237647633021e+00
2.104939237647633021e+00
2.405885921811578676e+00
2.405885921811578676e+00
2.309507980590228104e+00
2.309507980590228104e+00
2.244443494979705633e+00
2.244443494979705633e+00
2.264506607257301685e+00
2.264506607257301685e+00
2.247256080813012868e+00
2.247256080813012868e+00
2.253631275368511044e+00
2.253631275368511044e+00
2.265819147312845505e+00
2.265819147312845505e+00
2.371572374645222414e+00
2.371572374645222414e+00
2.371572374645222414e+00
2.276319467757194737e+00
2.276319467757194737e+00
2.257006378368480615e+00
2.257006378368480615e+00
2.245943540757469048e+00
2.245943540757469048e+00
2.258506424146244473e+00
2.258506424146244473e+00
2.136252693258461566e+00
2.136252693258461566e+00
2.183691640980254700e+00
2.183691640980254700e+00
2.452387340922269399e+00
2.452387340922269399e+00
2.303695303201391820e+00
2.303695303201391820e+00
2.268631733146153184e+00
2.268631733146153184e+00
2.268631733146153184e+00
2.273131870479445649e+00
2.273131870479445649e+00
2.265819147312845505e+00
2.265819147312845505e+00
2.264131595812860720e+00
2.264131595812860720e+00
2.277069490646077110e+00
2.277069490646077110e+00
2.365197180089724238e+00
2.365197180089724238e+00
2.242193426313058957e+00
2.242193426313058957e+00
2.246693563646351421e+00
2.246693563646351421e+00
2.251006195257423848e+00
2.251006195257423848e+00
2.251006195257423848e+00
2.238255806146427940e+00
2.238255806146427940e+00
2.126127384258552855e+00
2.126127384258552855e+00
2.271444318979460864e+00
2.271444318979460864e+00
2.406635944700461049e+00
2.406635944700461049e+00
2.274444410534989469e+00
2.274444410534989469e+00
2.285319742423780109e+00
2.285319742423780109e+00
2.288132328257088233e+00
2.288132328257088233e+00
2.281194616534928166e+00
2.281194616534928166e+00
2.281194616534928166e+00
2.285882259590441556e+00
2.285882259590441556e+00
2.328446058534500818e+00
2.328446058534500818e+00
2.338008850367748082e+00
2.338008850367748082e+00
2.254006286812952009e+00
2.254006286812952009e+00
2.250631183812982439e+00
2.250631183812982439e+00
2.252693746757408633e+00
2.252693746757408633e+00
2.194754478591265823e+00
2.194754478591265823e+00
2.121627246925260390e+00
2.121627246925260390e+00
2.377572557756279181e+00
2.377572557756279181e+00
2.351884273812066883e+00
2.351884273812066883e+00
2.257006378368480615e+00
2.257006378368480615e+00
2.264319101535081202e+00
2.264319101535081202e+00
2.261881527146214044e+00
2.261881527146214044e+00
2.260006469924008776e+00
2.260006469924008776e+00
2.260006469924008776e+00
2.263756584368419311e+00
2.263756584368419311e+00
2.353946836756492633e+00
2.353946836756492633e+00
2.293569994201483109e+00
2.293569994201483109e+00
2.254943815424054865e+00
2.254943815424054865e+00
2.224567888424329176e+00
2.224567888424329176e+00
2.241630909146397510e+00
2.241630909146397510e+00
2.157815851313821920e+00
2.157815851313821920e+00
2.146190496536149350e+00
2.146190496536149350e+00
2.146190496536149350e+00
2.458012512588885201e+00
2.458012512588885201e+00
2.319070772423474924e+00
2.319070772423474924e+00
2.267319193090609808e+00
2.267319193090609808e+00
2.265819147312845505e+00
2.265819147312845505e+00
2.263194067201757864e+00
2.263194067201757864e+00
2.268819238868374111e+00
2.268819238868374111e+00
2.277256996368297592e+00
2.277256996368297592e+00
2.397635670033875677e+00
2.397635670033875677e+00
2.397635670033875677e+00
2.275006927701650916e+00
2.275006927701650916e+00
2.261506515701773079e+00
2.261506515701773079e+00
2.253443769646290562e+00
2.253443769646290562e+00
2.265444135868404540e+00
2.265444135868404540e+00
2.137940244758446351e+00
2.137940244758446351e+00
2.230943082979827352e+00
2.230943082979827352e+00
2.430636677144688562e+00
2.430636677144688562e+00
2.281944639423810539e+00
2.281944639423810539e+00
2.260006469924008776e+00
2.260006469924008776e+00
2.260568987090670667e+00
2.260568987090670667e+00
2.254756309701834383e+00
2.254756309701834383e+00
2.272569353312784202e+00
2.272569353312784202e+00
2.272569353312784202e+00
2.320008301034577336e+00
2.320008301034577336e+00
2.397448164311655194e+00
2.397448164311655194e+00
2.260756492812891150e+00
2.260756492812891150e+00
2.262256538590655452e+00
2.262256538590655452e+00
2.271819330423901828e+00
2.271819330423901828e+00
2.221942808313242423e+00
2.221942808313242423e+00
2.134002624591814889e+00
2.134002624591814889e+00
2.322258369701224012e+00
2.322258369701224012e+00
2.366134708700827094e+00
2.366134708700827094e+00
2.366134708700827094e+00
2.253443769646290562e+00
2.253443769646290562e+00
2.243130954924161813e+00
2.243130954924161813e+00
2.244631000701926116e+00
2.244631000701926116e+00
2.250256172368541474e+00
2.250256172368541474e+00
2.267694204535050773e+00
2.267694204535050773e+00
2.339508896145511940e+00
2.339508896145511940e+00
2.317570726645710621e+00
2.317570726645710621e+00
2.254381298257393418e+00
2.254381298257393418e+00
2.241818414868617992e+00
2.241818414868617992e+00
2.241818414868617992e+00
2.250818689535202921e+00
2.250818689535202921e+00
2.179379009369182274e+00
2.179379009369182274e+00
2.125377361369670925e+00
2.125377361369670925e+00
2.430074159978026671e+00
2.430074159978026671e+00
2.343821527756584366e+00
2.343821527756584366e+00
2.264694112979522167e+00
2.264694112979522167e+00
2.258693929868464956e+00
2.258693929868464956e+00
2.257006378368480615e+00
2.257006378368480615e+00
2.257006378368480615e+00
2.256256355479598685e+00
2.256256355479598685e+00
2.263381572923978347e+00
2.263381572923978347e+00
2.377385052034058699e+00
2.377385052034058699e+00
2.284757225257118218e+00
2.284757225257118218e+00
2.261131504257332114e+00
2.261131504257332114e+00
2.249693655201880027e+00
2.249693655201880027e+00
2.264694112979522167e+00
2.264694112979522167e+00
2.145065462202826012e+00
2.145065462202826012e+00
2.169441206091494490e+00
2.169441206091494490e+00
2.169441206091494490e+00
2.446012146366771223e+00
2.446012146366771223e+00
2.297507614368114126e+00
2.297507614368114126e+00
2.255881344035157721e+00
