2.253068758201849597e+00
2.253068758201849597e+00
2.253068758201849597e+00
2.238630817590868904e+00
2.238630817590868904e+00
2.238630817590868904e+00
2.227942991424298746e+00
2.227942991424298746e+00
2.227942991424298746e+00
2.243318460646382295e+00
2.243318460646382295e+00
2.243318460646382295e+00
2.243318460646382295e+00
2.307257911923581428e+00
2.307257911923581428e+00
2.307257911923581428e+00
2.326195989867855030e+00
2.326195989867855030e+00
2.326195989867855030e+00
2.250443678090761956e+00
2.250443678090761956e+00
2.250443678090761956e+00
2.250443678090761956e+00
2.239380840479750834e+00
2.239380840479750834e+00
2.239380840479750834e+00
2.257756401257362544e+00
2.257756401257362544e+00
2.257756401257362544e+00
2.192316904202398664e+00
2.192316904202398664e+00
2.192316904202398664e+00
2.192316904202398664e+00
2.137752739036225869e+00
2.137752739036225869e+00
2.137752739036225869e+00
2.452762352366710363e+00
2.452762352366710363e+00
2.452762352366710363e+00
2.390885464033936536e+00
2.390885464033936536e+00
2.390885464033936536e+00
2.281944639423810539e+00
2.281944639423810539e+00
2.281944639423810539e+00
2.281944639423810539e+00
2.273506881923887057e+00
2.273506881923887057e+00
2.273506881923887057e+00
2.250818689535202921e+00
2.250818689535202921e+00
2.250818689535202921e+00
2.250818689535202921e+00
2.242568437757499922e+00
2.242568437757499922e+00
2.242568437757499922e+00
2.254943815424054865e+00
2.254943815424054865e+00
2.254943815424054865e+00
2.356009399700918827e+00
2.356009399700918827e+00
2.356009399700918827e+00
2.356009399700918827e+00
2.284944730979339145e+00
2.284944730979339145e+00
2.284944730979339145e+00
2.238443311868648422e+00
2.238443311868648422e+00
2.238443311868648422e+00
2.213505050813318054e+00
2.213505050813318054e+00
2.213505050813318054e+00
2.213505050813318054e+00
2.246131046479689974e+00
2.246131046479689974e+00
2.246131046479689974e+00
2.133627613147373925e+00
2.133627613147373925e+00
2.133627613147373925e+00
2.146565507980590315e+00
2.146565507980590315e+00
2.146565507980590315e+00
2.146565507980590315e+00
2.506388988921781191e+00
2.506388988921781191e+00
2.506388988921781191e+00
2.322445875423444495e+00
2.322445875423444495e+00
2.322445875423444495e+00
2.322445875423444495e+00
2.273131870479445649e+00
2.273131870479445649e+00
2.284569719534897736e+00
2.284569719534897736e+00
2.284569719534897736e+00
2.270881801812799416e+00
2.270881801812799416e+00
2.270881801812799416e+00
2.272756859035004684e+00
2.272756859035004684e+00
2.272756859035004684e+00
2.272756859035004684e+00
2.278757042146061895e+00
2.278757042146061895e+00
2.278757042146061895e+00
2.401385784478286212e+00
2.401385784478286212e+00
2.401385784478286212e+00
2.282319650868251504e+00
2.282319650868251504e+00
2.282319650868251504e+00
2.282319650868251504e+00
2.269006744590594149e+00
2.269006744590594149e+00
2.269006744590594149e+00
2.260381481368449741e+00
2.260381481368449741e+00
2.260381481368449741e+00
2.258131412701803509e+00
2.258131412701803509e+00
2.258131412701803509e+00
2.120689718314157535e+00
2.120689718314157535e+00
2.120689718314157535e+00
2.120689718314157535e+00
2.247068575090792386e+00
2.247068575090792386e+00
2.247068575090792386e+00
2.458200018311105683e+00
2.458200018311105683e+00
2.458200018311105683e+00
2.263194067201757864e+00
2.263194067201757864e+00
2.263194067201757864e+00
2.244443494979705633e+00
2.244443494979705633e+00
2.244443494979705633e+00
2.235818231757560781e+00
2.235818231757560781e+00
2.235818231757560781e+00
2.235818231757560781e+00
2.215005096591082356e+00
2.215005096591082356e+00
2.215005096591082356e+00
2.238255806146427940e+00
2.238255806146427940e+00
2.238255806146427940e+00
2.305195348979155678e+00
2.305195348979155678e+00
2.305195348979155678e+00
2.305195348979155678e+00
2.376822534867396808e+00
2.376822534867396808e+00
2.376822534867396808e+00
2.264506607257301685e+00
2.264506607257301685e+00
2.264506607257301685e+00
2.242005920590838475e+00
2.242005920590838475e+00
2.242005920590838475e+00
2.242005920590838475e+00
2.230005554368724940e+00
2.230005554368724940e+00
2.230005554368724940e+00
2.209379924924466998e+00
2.209379924924466998e+00
2.209379924924466998e+00
2.089751274147770843e+00
2.089751274147770843e+00
2.089751274147770843e+00
2.089751274147770843e+00
2.348884182256538722e+00
2.348884182256538722e+00
2.348884182256538722e+00
2.424636494033631351e+00
2.424636494033631351e+00
2.424636494033631351e+00
2.308570451979125249e+00
2.308570451979125249e+00
2.308570451979125249e+00
2.299757683034760802e+00
2.299757683034760802e+00
2.299757683034760802e+00
2.299757683034760802e+00
2.258131412701803509e+00
2.258131412701803509e+00
2.258131412701803509e+00
2.235818231757560781e+00
2.235818231757560781e+00
2.235818231757560781e+00
2.265444135868404540e+00
2.265444135868404540e+00
2.265444135868404540e+00
2.265444135868404540e+00
2.354696859645375007e+00
2.354696859645375007e+00
2.354696859645375007e+00
2.334633747367778511e+00
2.334633747367778511e+00
2.334633747367778511e+00
2.334633747367778511e+00
2.262819055757316900e+00
2.262819055757316900e+00
2.262819055757316900e+00
2.244068483535264225e+00
2.244068483535264225e+00
2.244068483535264225e+00
2.263756584368419311e+00
2.263756584368419311e+00
2.263756584368419311e+00
2.263756584368419311e+00
2.169816217535935454e+00
2.169816217535935454e+00
2.169816217535935454e+00
2.127252418591876193e+00
2.127252418591876193e+00
2.127252418591876193e+00
2.473387981810968306e+00
2.473387981810968306e+00
2.473387981810968306e+00
2.473387981810968306e+00
2.337633838923307117e+00
2.337633838923307117e+00
2.337633838923307117e+00
2.248193609424115724e+00
2.248193609424115724e+00
2.248193609424115724e+00
2.239943357646412725e+00
2.239943357646412725e+00
2.239943357646412725e+00
2.239943357646412725e+00
2.220817773979919085e+00
2.220817773979919085e+00
2.220817773979919085e+00
2.227755485702078264e+00
2.227755485702078264e+00
2.227755485702078264e+00
2.251381206701864812e+00
2.251381206701864812e+00
2.251381206701864812e+00
2.251381206701864812e+00
2.390510452589495571e+00
2.390510452589495571e+00
2.390510452589495571e+00
2.297695120090334608e+00
2.297695120090334608e+00
2.297695120090334608e+00
2.258881435590685438e+00
2.258881435590685438e+00
2.258881435590685438e+00
2.258881435590685438e+00
2.239568346201971760e+00
2.239568346201971760e+00
2.239568346201971760e+00
2.275381939146092325e+00
2.275381939146092325e+00
2.275381939146092325e+00
2.147128025147251762e+00
2.147128025147251762e+00
2.147128025147251762e+00
2.147128025147251762e+00
2.204692281868953607e+00
2.204692281868953607e+00
2.204692281868953607e+00
2.500013794366283459e+00
2.500013794366283459e+00
2.500013794366283459e+00
2.296945097201452679e+00
2.296945097201452679e+00
2.296945097201452679e+00
2.257568895535142062e+00
2.257568895535142062e+00
2.257568895535142062e+00
2.257568895535142062e+00
2.252881252479629115e+00
2.252881252479629115e+00
2.252881252479629115e+00
2.230380565813165905e+00
2.230380565813165905e+00
2.230380565813165905e+00
2.230380565813165905e+00
2.257943906979583026e+00
2.257943906979583026e+00
2.257943906979583026e+00
2.282319650868251504e+00
2.282319650868251504e+00
2.282319650868251504e+00
2.396698141422773265e+00
2.396698141422773265e+00
2.396698141422773265e+00
2.396698141422773265e+00
2.267694204535050773e+00
2.267694204535050773e+00
2.267694204535050773e+00
2.245756035035248566e+00
2.245756035035248566e+00
2.245756035035248566e+00
2.243318460646382295e+00
2.243318460646382295e+00
2.243318460646382295e+00
2.243318460646382295e+00
2.234318185979796478e+00
2.234318185979796478e+00
2.234318185979796478e+00
2.115814569536424106e+00
2.115814569536424106e+00
2.115814569536424106e+00
2.291882442701498768e+00
2.291882442701498768e+00
2.291882442701498768e+00
2.291882442701498768e+00
2.453324869533372254e+00
2.453324869533372254e+00
2.453324869533372254e+00
2.281382122257148648e+00
2.281382122257148648e+00
2.281382122257148648e+00
2.258318918424023991e+00
2.258318918424023991e+00
2.258318918424023991e+00
2.258318918424023991e+00
2.240318369090853690e+00
2.240318369090853690e+00
2.240318369090853690e+00
2.233380657368694511e+00
2.233380657368694511e+00
2.233380657368694511e+00
2.260006469924008776e+00
2.260006469924008776e+00
2.260006469924008776e+00
2.260006469924008776e+00
2.330696127201147494e+00
2.330696127201147494e+00
2.330696127201147494e+00
2.355446882534256936e+00
2.355446882534256936e+00
2.355446882534256936e+00
2.257193884090700653e+00
2.257193884090700653e+00
2.257193884090700653e+00
2.257193884090700653e+00
2.249131138035218136e+00
2.249131138035218136e+00
2.249131138035218136e+00
2.267881710257271255e+00
2.267881710257271255e+00
2.267881710257271255e+00
2.197004547257912055e+00
2.197004547257912055e+00
2.197004547257912055e+00
2.197004547257912055e+00
2.128189947202978605e+00
2.128189947202978605e+00
2.128189947202978605e+00
2.433449262977995797e+00
2.433449262977995797e+00
2.433449262977995797e+00
2.399885738700521909e+00
2.399885738700521909e+00
2.399885738700521909e+00
2.399885738700521909e+00
2.272381847590563719e+00
2.272381847590563719e+00
2.272381847590563719e+00
2.260943998535111632e+00
2.260943998535111632e+00
2.260943998535111632e+00
2.260943998535111632e+00
2.251568712424085295e+00
2.251568712424085295e+00
2.251568712424085295e+00
2.249693655201880027e+00
2.249693655201880027e+00
2.249693655201880027e+00
2.258881435590685438e+00
2.258881435590685438e+00
2.258881435590685438e+00
2.258881435590685438e+00
2.354509353923154524e+00
2.354509353923154524e+00
2.354509353923154524e+00
2.282882168034912951e+00
2.282882168034912951e+00
2.282882168034912951e+00
2.220442762535478121e+00
2.220442762535478121e+00
2.220442762535478121e+00
2.220442762535478121e+00
2.209004913480026033e+00
2.209004913480026033e+00
2.209004913480026033e+00
2.246506057924130939e+00
2.246506057924130939e+00
2.246506057924130939e+00
2.136627704702902530e+00
2.136627704702902530e+00
2.136627704702902530e+00
2.136627704702902530e+00
2.129127475814081016e+00
2.129127475814081016e+00
2.129127475814081016e+00
2.493076082644123392e+00
2.493076082644123392e+00
2.493076082644123392e+00
2.311195532090212890e+00
2.311195532090212890e+00
2.311195532090212890e+00
2.311195532090212890e+00
2.240880886257515137e+00
2.240880886257515137e+00
2.240880886257515137e+00
2.247068575090792386e+00
2.247068575090792386e+00
2.247068575090792386e+00
2.236193243202001746e+00
2.236193243202001746e+00
2.236193243202001746e+00
2.265819147312845505e+00
2.265819147312845505e+00
2.265819147312845505e+00
2.265819147312845505e+00
2.313070589312418157e+00
2.313070589312418157e+00
2.313070589312418157e+00
2.460075075533310951e+00
2.460075075533310951e+00
2.460075075533310951e+00
2.324695944090090727e+00
2.324695944090090727e+00
2.324695944090090727e+00
2.324695944090090727e+00
2.276694479201635701e+00
2.276694479201635701e+00
2.276694479201635701e+00
2.251943723868526259e+00
2.251943723868526259e+00
2.251943723868526259e+00
2.251943723868526259e+00
2.276131962034974254e+00
2.276131962034974254e+00
2.276131962034974254e+00
2.124439832758568070e+00
2.124439832758568070e+00
2.124439832758568070e+00
2.234318185979796478e+00
2.234318185979796478e+00
2.234318185979796478e+00
2.234318185979796478e+00
2.472637958922086376e+00
2.472637958922086376e+00
2.472637958922086376e+00
2.268444227423932702e+00
2.268444227423932702e+00
2.268444227423932702e+00
2.251381206701864812e+00
2.251381206701864812e+00
2.251381206701864812e+00
2.251381206701864812e+00
2.251381206701864812e+00
2.251381206701864812e+00
2.251381206701864812e+00
2.235255714590899334e+00
2.235255714590899334e+00
2.235255714590899334e+00
2.231880611590930208e+00
2.231880611590930208e+00
2.231880611590930208e+00
2.231880611590930208e+00
2.284569719534897736e+00
2.284569719534897736e+00
2.284569719534897736e+00
2.369509811700796664e+00
2.369509811700796664e+00
2.369509811700796664e+00
2.251943723868526259e+00
2.251943723868526259e+00
2.251943723868526259e+00
2.251943723868526259e+00
2.235443220313119816e+00
2.235443220313119816e+00
2.235443220313119816e+00
2.261319009979552597e+00
2.261319009979552597e+00
2.261319009979552597e+00
2.240130863368633207e+00
2.240130863368633207e+00
2.240130863368633207e+00
2.240130863368633207e+00
2.135690176091799675e+00
2.135690176091799675e+00
2.135690176091799675e+00
2.345884090701010116e+00
2.345884090701010116e+00
2.345884090701010116e+00
2.398385692922757606e+00
2.398385692922757606e+00
2.398385692922757606e+00
2.398385692922757606e+00
2.248193609424115724e+00
2.248193609424115724e+00
2.248193609424115724e+00
2.250631183812982439e+00
2.250631183812982439e+00
2.250631183812982439e+00
2.245006012146367080e+00
2.245006012146367080e+00
2.245006012146367080e+00
2.245006012146367080e+00
2.235255714590899334e+00
2.235255714590899334e+00
2.235255714590899334e+00
2.268819238868374111e+00
2.268819238868374111e+00
2.268819238868374111e+00
2.343071504867702437e+00
2.343071504867702437e+00
2.343071504867702437e+00
2.343071504867702437e+00
2.329946104312265120e+00
2.329946104312265120e+00
2.329946104312265120e+00
2.266756675923947917e+00
2.266756675923947917e+00
2.266756675923947917e+00
2.268069215979491737e+00
2.268069215979491737e+00
2.268069215979491737e+00
2.268069215979491737e+00
2.280632099368266719e+00
2.280632099368266719e+00
2.280632099368266719e+00
2.190066835535752432e+00
2.190066835535752432e+00
2.190066835535752432e+00
2.128189947202978605e+00
2.128189947202978605e+00
2.128189947202978605e+00
2.128189947202978605e+00
2.463825189977721486e+00
2.463825189977721486e+00
2.463825189977721486e+00
2.349259193700979687e+00
2.349259193700979687e+00
2.349259193700979687e+00
2.349259193700979687e+00
2.250443678090761956e+00
2.250443678090761956e+00
2.250443678090761956e+00
2.248193609424115724e+00
2.248193609424115724e+00
2.248193609424115724e+00
2.235255714590899334e+00
2.235255714590899334e+00
2.235255714590899334e+00
2.235255714590899334e+00
2.234693197424237443e+00
2.234693197424237443e+00
2.234693197424237443e+00
2.261881527146214044e+00
2.261881527146214044e+00
2.261881527146214044e+00
2.379822626422925413e+00
2.379822626422925413e+00
2.379822626422925413e+00
2.379822626422925413e+00
2.285507248146000592e+00
2.285507248146000592e+00
2.285507248146000592e+00
2.248943632312997654e+00
2.248943632312997654e+00
2.248943632312997654e+00
2.250631183812982439e+00
2.250631183812982439e+00
2.250631183812982439e+00
2.250631183812982439e+00
2.289069856868190644e+00
2.289069856868190644e+00
2.289069856868190644e+00
2.146940519425031280e+00
2.146940519425031280e+00
2.146940519425031280e+00
2.176753929258095077e+00
2.176753929258095077e+00
2.176753929258095077e+00
2.176753929258095077e+00
2.499076265755180604e+00
2.499076265755180604e+00
2.499076265755180604e+00
2.287944822534867306e+00
2.287944822534867306e+00
2.287944822534867306e+00
2.244255989257484707e+00
2.244255989257484707e+00
2.244255989257484707e+00
2.244255989257484707e+00
2.245943540757469048e+00
2.245943540757469048e+00
2.245943540757469048e+00
2.233193151646474028e+00
2.233193151646474028e+00
2.233193151646474028e+00
2.245756035035248566e+00
2.245756035035248566e+00
2.245756035035248566e+00
2.245756035035248566e+00
2.256256355479598685e+00
2.256256355479598685e+00
2.256256355479598685e+00
2.380197637867366822e+00
2.380197637867366822e+00
2.380197637867366822e+00
2.257193884090700653e+00
2.257193884090700653e+00
2.257193884090700653e+00
2.257193884090700653e+00
2.255693838312936794e+00
2.255693838312936794e+00
2.255693838312936794e+00
2.268069215979491737e+00
2.268069215979491737e+00
2.268069215979491737e+00
2.268069215979491737e+00
2.260006469924008776e+00
2.260006469924008776e+00
2.260006469924008776e+00
2.127627430036317158e+00
2.127627430036317158e+00
2.127627430036317158e+00
2.278944547868282378e+00
2.278944547868282378e+00
2.278944547868282378e+00
2.278944547868282378e+00
2.452949858088931290e+00
2.452949858088931290e+00
2.452949858088931290e+00
2.276131962034974254e+00
2.276131962034974254e+00
2.276131962034974254e+00
2.264694112979522167e+00
2.264694112979522167e+00
2.264694112979522167e+00
2.264694112979522167e+00
2.248381115146336207e+00
2.248381115146336207e+00
2.248381115146336207e+00
2.232443128757591655e+00
2.232443128757591655e+00
2.232443128757591655e+00
2.257006378368480615e+00
2.257006378368480615e+00
2.257006378368480615e+00
2.257006378368480615e+00
2.317195715201269657e+00
2.317195715201269657e+00
2.317195715201269657e+00
2.361822077089755112e+00
2.361822077089755112e+00
2.361822077089755112e+00
2.262069032868434526e+00
2.262069032868434526e+00
2.262069032868434526e+00
2.262069032868434526e+00
2.254381298257393418e+00
2.254381298257393418e+00
2.254381298257393418e+00
2.257381389812921579e+00
2.257381389812921579e+00
2.257381389812921579e+00
2.203192236091189304e+00
2.203192236091189304e+00
2.203192236091189304e+00
2.203192236091189304e+00
2.119564683980834197e+00
2.119564683980834197e+00
2.119564683980834197e+00
2.392385509811700839e+00
2.392385509811700839e+00
2.392385509811700839e+00
2.392198004089480357e+00
2.392198004089480357e+00
2.392198004089480357e+00
2.392198004089480357e+00
2.257568895535142062e+00
2.257568895535142062e+00
2.257568895535142062e+00
2.253818781090731527e+00
2.253818781090731527e+00
2.253818781090731527e+00
2.234880703146458369e+00
2.234880703146458369e+00
2.234880703146458369e+00
2.233005645924253102e+00
2.233005645924253102e+00
2.233005645924253102e+00
2.233005645924253102e+00
2.267131687368389326e+00
2.267131687368389326e+00
2.267131687368389326e+00
2.355821893978697901e+00
2.355821893978697901e+00
2.355821893978697901e+00
2.296382580034791232e+00
2.296382580034791232e+00
2.296382580034791232e+00
2.296382580034791232e+00
2.246318552201910457e+00
2.246318552201910457e+00
2.246318552201910457e+00
2.247068575090792386e+00
2.247068575090792386e+00
2.247068575090792386e+00
2.247068575090792386e+00
2.276319467757194737e+00
2.276319467757194737e+00
2.276319467757194737e+00
2.167753654591509704e+00
2.167753654591509704e+00
2.167753654591509704e+00
2.143377910702841227e+00
2.143377910702841227e+00
2.143377910702841227e+00
2.143377910702841227e+00
2.505451460310678335e+00
2.505451460310678335e+00
2.505451460310678335e+00
2.333696218756676100e+00
2.333696218756676100e+00
2.333696218756676100e+00
2.258506424146244473e+00
2.258506424146244473e+00
2.258506424146244473e+00
2.258506424146244473e+00
2.251568712424085295e+00
2.251568712424085295e+00
2.251568712424085295e+00
2.229255531479842567e+00
2.229255531479842567e+00
2.229255531479842567e+00
2.250256172368541474e+00
2.250256172368541474e+00
2.250256172368541474e+00
2.250256172368541474e+00
2.299945188756981285e+00
2.299945188756981285e+00
2.299945188756981285e+00
2.419011322367015993e+00
2.419011322367015993e+00
2.419011322367015993e+00
2.286819788201544412e+00
2.286819788201544412e+00
2.286819788201544412e+00
2.286819788201544412e+00
2.247256080813012868e+00
2.247256080813012868e+00
2.247256080813012868e+00
2.236755760368663637e+00
2.236755760368663637e+00
2.236755760368663637e+00
2.248756126590777171e+00
2.248756126590777171e+00
2.248756126590777171e+00
2.248756126590777171e+00
2.114502029480880285e+00
2.114502029480880285e+00
2.114502029480880285e+00
2.212567522202215642e+00
2.212567522202215642e+00
2.212567522202215642e+00
2.465700247199926753e+00
2.465700247199926753e+00
2.465700247199926753e+00
2.465700247199926753e+00
2.246131046479689974e+00
2.246131046479689974e+00
2.246131046479689974e+00
2.237130771813104602e+00
2.237130771813104602e+00
2.237130771813104602e+00
2.258131412701803509e+00
2.258131412701803509e+00
2.258131412701803509e+00
2.258131412701803509e+00
2.247256080813012868e+00
2.247256080813012868e+00
2.247256080813012868e+00
2.253631275368511044e+00
2.253631275368511044e+00
2.253631275368511044e+00
2.291694936979278285e+00
2.291694936979278285e+00
2.291694936979278285e+00
2.291694936979278285e+00
2.385635303811762142e+00
2.385635303811762142e+00
2.385635303811762142e+00
2.256631366924039650e+00
2.256631366924039650e+00
2.256631366924039650e+00
2.245381023590808045e+00
2.245381023590808045e+00
2.245381023590808045e+00
2.245381023590808045e+00
2.266194158757286470e+00
2.266194158757286470e+00
2.266194158757286470e+00
2.247256080813012868e+00
2.247256080813012868e+00
2.247256080813012868e+00
2.247256080813012868e+00
2.141502853480635959e+00
2.141502853480635959e+00
2.141502853480635959e+00
2.341008941923276243e+00
2.341008941923276243e+00
2.341008941923276243e+00
2.419948850978118404e+00
2.419948850978118404e+00
2.419948850978118404e+00
2.419948850978118404e+00
2.257943906979583026e+00
2.257943906979583026e+00
2.257943906979583026e+00
2.251943723868526259e+00
2.251943723868526259e+00
2.251943723868526259e+00
2.236943266090884119e+00
2.236943266090884119e+00
2.236943266090884119e+00
2.231505600146489243e+00
2.231505600146489243e+00
2.231505600146489243e+00
2.231505600146489243e+00
2.262819055757316900e+00
2.262819055757316900e+00
2.262819055757316900e+00
2.344759056367687222e+00
2.344759056367687222e+00
2.344759056367687222e+00
2.355259376812036454e+00
2.355259376812036454e+00
2.355259376812036454e+00
2.355259376812036454e+00
2.274819421979430434e+00
2.274819421979430434e+00
2.274819421979430434e+00
2.252881252479629115e+00
2.252881252479629115e+00
2.252881252479629115e+00
2.257756401257362544e+00
2.257756401257362544e+00
2.257756401257362544e+00
2.257756401257362544e+00
2.184629169591357556e+00
2.184629169591357556e+00
2.184629169591357556e+00
2.127439924314096675e+00
2.127439924314096675e+00
2.127439924314096675e+00
2.454449903866695148e+00
2.454449903866695148e+00
2.454449903866695148e+00
2.454449903866695148e+00
2.360884548478652700e+00
2.360884548478652700e+00
2.360884548478652700e+00
2.255131321146275347e+00
2.255131321146275347e+00
2.255131321146275347e+00
2.255131321146275347e+00
2.257381389812921579e+00
2.257381389812921579e+00
2.257381389812921579e+00
2.243130954924161813e+00
2.243130954924161813e+00
2.243130954924161813e+00
2.239193334757530351e+00
2.239193334757530351e+00
2.239193334757530351e+00
2.239193334757530351e+00
2.259068941312906365e+00
2.259068941312906365e+00
2.259068941312906365e+00
2.373822443311869090e+00
2.373822443311869090e+00
2.373822443311869090e+00
2.306507889034699499e+00
2.306507889034699499e+00
2.306507889034699499e+00
2.306507889034699499e+00
2.263194067201757864e+00
2.263194067201757864e+00
2.263194067201757864e+00
2.249693655201880027e+00
2.249693655201880027e+00
2.249693655201880027e+00
2.264881618701742649e+00
2.264881618701742649e+00
2.264881618701742649e+00
2.264881618701742649e+00
2.141877864925076924e+00
2.141877864925076924e+00
2.141877864925076924e+00
2.165316080202642990e+00
2.165316080202642990e+00
2.165316080202642990e+00
2.503201391644032547e+00
2.503201391644032547e+00
2.503201391644032547e+00
2.503201391644032547e+00
2.308570451979125249e+00
2.308570451979125249e+00
2.308570451979125249e+00
2.244631000701926116e+00
2.244631000701926116e+00
2.244631000701926116e+00
2.242193426313058957e+00
2.242193426313058957e+00
2.242193426313058957e+00
2.242193426313058957e+00
2.216692648091067142e+00
2.216692648091067142e+00
2.216692648091067142e+00
2.232630634479812137e+00
2.232630634479812137e+00
2.232630634479812137e+00
2.261131504257332114e+00
2.261131504257332114e+00
2.261131504257332114e+00
2.261131504257332114e+00
2.405698416089358194e+00
2.405698416089358194e+00
2.405698416089358194e+00
2.267694204535050773e+00
2.267694204535050773e+00
2.267694204535050773e+00
2.242755943479720404e+00
2.242755943479720404e+00
2.242755943479720404e+00
2.242755943479720404e+00
2.265631641590625023e+00
2.265631641590625023e+00
2.265631641590625023e+00
2.281007110812707683e+00
2.281007110812707683e+00
2.281007110812707683e+00
2.137940244758446351e+00
2.137940244758446351e+00
2.137940244758446351e+00
2.137940244758446351e+00
2.271444318979460864e+00
2.271444318979460864e+00
2.271444318979460864e+00
2.458012512588885201e+00
2.458012512588885201e+00
2.458012512588885201e+00
2.265444135868404540e+00
2.265444135868404540e+00
2.265444135868404540e+00
2.265444135868404540e+00
2.257381389812921579e+00
2.257381389812921579e+00
2.257381389812921579e+00
2.257006378368480615e+00
2.257006378368480615e+00
2.257006378368480615e+00
2.242005920590838475e+00
2.242005920590838475e+00
2.242005920590838475e+00
2.258506424146244473e+00
2.258506424146244473e+00
2.258506424146244473e+00
2.258506424146244473e+00
2.306132877590258534e+00
2.306132877590258534e+00
2.306132877590258534e+00
2.361259559923093665e+00
2.361259559923093665e+00
2.361259559923093665e+00
2.259818964201788294e+00
2.259818964201788294e+00
2.259818964201788294e+00
2.259818964201788294e+00
2.235443220313119816e+00
2.235443220313119816e+00
2.235443220313119816e+00
2.249506149479659545e+00
2.249506149479659545e+00
2.249506149479659545e+00
2.201317178868984037e+00
2.201317178868984037e+00
2.201317178868984037e+00
2.201317178868984037e+00
2.110751915036469750e+00
2.110751915036469750e+00
2.110751915036469750e+00
2.379822626422925413e+00
2.379822626422925413e+00
2.379822626422925413e+00
2.395760612811670409e+00
2.395760612811670409e+00
2.395760612811670409e+00
2.395760612811670409e+00
2.258318918424023991e+00
2.258318918424023991e+00
2.258318918424023991e+00
2.251381206701864812e+00
2.251381206701864812e+00
2.251381206701864812e+00
2.228505508590960638e+00
2.228505508590960638e+00
2.228505508590960638e+00
2.228505508590960638e+00
2.218567705313272853e+00
2.218567705313272853e+00
2.218567705313272853e+00
2.264319101535081202e+00
2.264319101535081202e+00
2.264319101535081202e+00
2.388072878200628413e+00
2.388072878200628413e+00
2.388072878200628413e+00
2.388072878200628413e+00
2.371197363200781449e+00
2.371197363200781449e+00
2.371197363200781449e+00
2.278382030701620931e+00
2.278382030701620931e+00
2.278382030701620931e+00
2.278382030701620931e+00
2.251006195257423848e+00
2.251006195257423848e+00
2.251006195257423848e+00
2.278382030701620931e+00
2.278382030701620931e+00
2.278382030701620931e+00
2.182379100924710880e+00
2.182379100924710880e+00
2.182379100924710880e+00
2.182379100924710880e+00
2.130815027314065802e+00
2.130815027314065802e+00
2.130815027314065802e+00
2.480325693533127485e+00
2.480325693533127485e+00
2.480325693533127485e+00
2.320383312479018745e+00
2.320383312479018745e+00
2.320383312479018745e+00
2.320383312479018745e+00
2.236755760368663637e+00
2.236755760368663637e+00
2.236755760368663637e+00
2.235255714590899334e+00
2.235255714590899334e+00
2.235255714590899334e+00
2.226630451368755370e+00
2.226630451368755370e+00
2.226630451368755370e+00
2.226630451368755370e+00
2.237880794701986531e+00
2.237880794701986531e+00
2.237880794701986531e+00
2.264319101535081202e+00
2.264319101535081202e+00
2.264319101535081202e+00
2.389385418256172233e+00
2.389385418256172233e+00
2.389385418256172233e+00
2.389385418256172233e+00
2.276319467757194737e+00
2.276319467757194737e+00
2.276319467757194737e+00
2.260943998535111632e+00
2.260943998535111632e+00
2.260943998535111632e+00
2.256256355479598685e+00
2.256256355479598685e+00
2.256256355479598685e+00
2.265069124423963132e+00
2.265069124423963132e+00
2.265069124423963132e+00
2.265069124423963132e+00
2.129314981536301499e+00
2.129314981536301499e+00
2.129314981536301499e+00
2.204504776146733125e+00
2.204504776146733125e+00
2.204504776146733125e+00
2.495326151310770069e+00
2.495326151310770069e+00
2.495326151310770069e+00
2.495326151310770069e+00
2.297507614368114126e+00
2.297507614368114126e+00
2.297507614368114126e+00
2.264881618701742649e+00
2.264881618701742649e+00
2.264881618701742649e+00
2.254006286812952009e+00
2.254006286812952009e+00
2.254006286812952009e+00
2.254006286812952009e+00
2.237130771813104602e+00
2.237130771813104602e+00
2.237130771813104602e+00
2.257568895535142062e+00
2.257568895535142062e+00
2.257568895535142062e+00
2.289444868312631609e+00
2.289444868312631609e+00
2.289444868312631609e+00
2.289444868312631609e+00
2.394635578478347071e+00
2.394635578478347071e+00
2.394635578478347071e+00
2.260756492812891150e+00
2.260756492812891150e+00
2.260756492812891150e+00
2.236005737479781263e+00
2.236005737479781263e+00
2.236005737479781263e+00
2.236005737479781263e+00
2.253068758201849597e+00
2.253068758201849597e+00
2.253068758201849597e+00
2.230568071535386387e+00
2.230568071535386387e+00
2.230568071535386387e+00
2.230568071535386387e+00
2.122377269814142320e+00
2.122377269814142320e+00
2.122377269814142320e+00
2.322445875423444495e+00
2.322445875423444495e+00
2.322445875423444495e+00
2.421636402478102745e+00
2.421636402478102745e+00
2.421636402478102745e+00
2.421636402478102745e+00
2.250068666646320992e+00
2.250068666646320992e+00
2.250068666646320992e+00
2.240693380535294654e+00
2.240693380535294654e+00
2.240693380535294654e+00
2.230005554368724940e+00
2.230005554368724940e+00
2.230005554368724940e+00
2.230005554368724940e+00
2.243318460646382295e+00
2.243318460646382295e+00
2.243318460646382295e+00
2.274444410534989469e+00
2.274444410534989469e+00
2.274444410534989469e+00
2.344196539201025331e+00
2.344196539201025331e+00
2.344196539201025331e+00
2.344196539201025331e+00
2.363322122867518971e+00
2.363322122867518971e+00
2.363322122867518971e+00
2.289444868312631609e+00
2.289444868312631609e+00
2.289444868312631609e+00
2.268819238868374111e+00
2.268819238868374111e+00
2.268819238868374111e+00
2.268819238868374111e+00
2.278007019257179522e+00
2.278007019257179522e+00
2.278007019257179522e+00
2.188754295480208611e+00
2.188754295480208611e+00
2.188754295480208611e+00
2.111689443647572162e+00
2.111689443647572162e+00
2.111689443647572162e+00
2.111689443647572162e+00
2.426511551255836618e+00
2.426511551255836618e+00
2.426511551255836618e+00
2.356571916867580274e+00
2.356571916867580274e+00
2.356571916867580274e+00
2.245193517868587563e+00
2.245193517868587563e+00
2.245193517868587563e+00
2.245193517868587563e+00
2.242193426313058957e+00
2.242193426313058957e+00
2.242193426313058957e+00
2.233380657368694511e+00
2.233380657368694511e+00
2.233380657368694511e+00
2.239005829035309869e+00
2.239005829035309869e+00
2.239005829035309869e+00
2.239005829035309869e+00
2.265069124423963132e+00
2.265069124423963132e+00
2.265069124423963132e+00
2.375885006256294396e+00
2.375885006256294396e+00
2.375885006256294396e+00
2.300695211645863214e+00
2.300695211645863214e+00
2.300695211645863214e+00
2.300695211645863214e+00
2.248193609424115724e+00
2.248193609424115724e+00
2.248193609424115724e+00
2.229255531479842567e+00
2.229255531479842567e+00
2.229255531479842567e+00
2.255506332590716312e+00
2.255506332590716312e+00
2.255506332590716312e+00
2.255506332590716312e+00
2.134940153202917745e+00
2.134940153202917745e+00
2.134940153202917745e+00
2.135502670369579192e+00
2.135502670369579192e+00
2.135502670369579192e+00
2.495326151310770069e+00
2.495326151310770069e+00
2.495326151310770069e+00
2.495326151310770069e+00
2.299570177312540320e+00
2.299570177312540320e+00
2.299570177312540320e+00
2.256443861201819168e+00
2.256443861201819168e+00
2.256443861201819168e+00
2.276319467757194737e+00
2.276319467757194737e+00
2.276319467757194737e+00
2.276319467757194737e+00
2.266194158757286470e+00
2.266194158757286470e+00
2.266194158757286470e+00
2.285132236701559627e+00
2.285132236701559627e+00
2.285132236701559627e+00
2.295257545701467894e+00
2.295257545701467894e+00
2.295257545701467894e+00
2.295257545701467894e+00
2.415073702200384531e+00
2.415073702200384531e+00
2.415073702200384531e+00
2.272194341868343237e+00
2.272194341868343237e+00
2.272194341868343237e+00
2.250443678090761956e+00
2.250443678090761956e+00
2.250443678090761956e+00
2.250443678090761956e+00
2.254381298257393418e+00
2.254381298257393418e+00
2.254381298257393418e+00
2.265631641590625023e+00
2.265631641590625023e+00
2.265631641590625023e+00
2.122939786980803767e+00
2.122939786980803767e+00
2.122939786980803767e+00
2.122939786980803767e+00
2.254943815424054865e+00
2.254943815424054865e+00
2.254943815424054865e+00
2.464012695699941968e+00
2.464012695699941968e+00
2.464012695699941968e+00
2.259443952757347329e+00
2.259443952757347329e+00
2.259443952757347329e+00
2.259443952757347329e+00
2.225880428479872997e+00
2.225880428479872997e+00
2.225880428479872997e+00
2.217442670979949515e+00
2.217442670979949515e+00
2.217442670979949515e+00
2.226255439924313961e+00
2.226255439924313961e+00
2.226255439924313961e+00
2.226255439924313961e+00
2.257943906979583026e+00
2.257943906979583026e+00
2.257943906979583026e+00
2.311945554979094819e+00
2.311945554979094819e+00
2.311945554979094819e+00
2.386010315256203107e+00
2.386010315256203107e+00
2.386010315256203107e+00
2.386010315256203107e+00
2.277256996368297592e+00
2.277256996368297592e+00
2.277256996368297592e+00
2.278382030701620931e+00
2.278382030701620931e+00
2.278382030701620931e+00
2.297320108645893644e+00
2.297320108645893644e+00
2.297320108645893644e+00
2.297320108645893644e+00
2.217630176702169997e+00
2.217630176702169997e+00
2.217630176702169997e+00
2.127627430036317158e+00
2.127627430036317158e+00
2.127627430036317158e+00
2.372884914700766235e+00
2.372884914700766235e+00
2.372884914700766235e+00
2.372884914700766235e+00
2.413386150700399746e+00
2.413386150700399746e+00
2.413386150700399746e+00
2.268069215979491737e+00
2.268069215979491737e+00
2.268069215979491737e+00
2.246506057924130939e+00
2.246506057924130939e+00
2.246506057924130939e+00
2.246506057924130939e+00
2.230380565813165905e+00
2.230380565813165905e+00
2.230380565813165905e+00
2.215942625202185212e+00
2.215942625202185212e+00
2.215942625202185212e+00
2.238630817590868904e+00
2.238630817590868904e+00
2.238630817590868904e+00
2.238630817590868904e+00
2.326571001312295994e+00
2.326571001312295994e+00
2.326571001312295994e+00
2.303507797479171337e+00
2.303507797479171337e+00
2.303507797479171337e+00
2.233755668813135031e+00
2.233755668813135031e+00
2.233755668813135031e+00
2.233755668813135031e+00
2.245568529313028083e+00
2.245568529313028083e+00
2.245568529313028083e+00
2.272194341868343237e+00
2.272194341868343237e+00
2.272194341868343237e+00
2.182379100924710880e+00
2.182379100924710880e+00
2.182379100924710880e+00
2.182379100924710880e+00
2.147878048036134135e+00
2.147878048036134135e+00
2.147878048036134135e+00
2.493638599810785283e+00
2.493638599810785283e+00
2.493638599810785283e+00
2.493638599810785283e+00
2.355821893978697901e+00
2.355821893978697901e+00
2.355821893978697901e+00
2.257006378368480615e+00
2.257006378368480615e+00
2.257006378368480615e+00
2.239380840479750834e+00
2.239380840479750834e+00
2.239380840479750834e+00
2.239380840479750834e+00
2.223630359813226764e+00
2.223630359813226764e+00
2.223630359813226764e+00
2.239943357646412725e+00
2.239943357646412725e+00
2.239943357646412725e+00
2.267319193090609808e+00
2.267319193090609808e+00
2.267319193090609808e+00
2.267319193090609808e+00
2.380572649311807787e+00
2.380572649311807787e+00
2.380572649311807787e+00
2.274444410534989469e+00
2.274444410534989469e+00
2.274444410534989469e+00
2.258881435590685438e+00
2.258881435590685438e+00
2.258881435590685438e+00
2.258881435590685438e+00
2.254381298257393418e+00
2.254381298257393418e+00
2.254381298257393418e+00
2.288132328257088233e+00
2.288132328257088233e+00
2.288132328257088233e+00
2.137940244758446351e+00
2.137940244758446351e+00
2.137940244758446351e+00
2.137940244758446351e+00
2.196442030091250608e+00
2.196442030091250608e+00
2.196442030091250608e+00
2.506951506088442638e+00
2.506951506088442638e+00
2.506951506088442638e+00
2.294132511368144556e+00
2.294132511368144556e+00
2.294132511368144556e+00
2.294132511368144556e+00
2.244631000701926116e+00
2.244631000701926116e+00
2.244631000701926116e+00
2.241255897701956545e+00
2.241255897701956545e+00
2.241255897701956545e+00
2.219130222479934300e+00
2.219130222479934300e+00
2.219130222479934300e+00
2.219130222479934300e+00
2.241068391979735619e+00
2.241068391979735619e+00
2.241068391979735619e+00
2.287757316812646824e+00
2.287757316812646824e+00
2.287757316812646824e+00
2.411136082033753514e+00
2.411136082033753514e+00
2.411136082033753514e+00
2.411136082033753514e+00
2.276881984923856628e+00
2.276881984923856628e+00
2.276881984923856628e+00
2.251943723868526259e+00
2.251943723868526259e+00
2.251943723868526259e+00
2.255881344035157721e+00
2.255881344035157721e+00
2.255881344035157721e+00
2.255881344035157721e+00
2.230005554368724940e+00
2.230005554368724940e+00
2.230005554368724940e+00
2.122189764091921838e+00
2.122189764091921838e+00
2.122189764091921838e+00
2.307445417645802355e+00
2.307445417645802355e+00
2.307445417645802355e+00
2.307445417645802355e+00
2.441324503311258276e+00
2.441324503311258276e+00
2.441324503311258276e+00
2.268069215979491737e+00
2.268069215979491737e+00
2.268069215979491737e+00
2.255506332590716312e+00
2.255506332590716312e+00
2.255506332590716312e+00
2.255506332590716312e+00
2.236193243202001746e+00
2.236193243202001746e+00
2.236193243202001746e+00
2.229068025757622085e+00
2.229068025757622085e+00
2.229068025757622085e+00
2.259818964201788294e+00
2.259818964201788294e+00
2.259818964201788294e+00
2.259818964201788294e+00
2.317758232367931104e+00
2.317758232367931104e+00
2.317758232367931104e+00
2.333883724478896582e+00
2.333883724478896582e+00
2.333883724478896582e+00
2.258131412701803509e+00
2.258131412701803509e+00
2.258131412701803509e+00
2.258131412701803509e+00
2.258881435590685438e+00
2.258881435590685438e+00
2.258881435590685438e+00
2.279507065034943825e+00
2.279507065034943825e+00
2.279507065034943825e+00
2.208442396313364142e+00
2.208442396313364142e+00
2.208442396313364142e+00
2.208442396313364142e+00
2.136440198980682048e+00
2.136440198980682048e+00
2.136440198980682048e+00
2.431386700033570492e+00
2.431386700033570492e+00
2.431386700033570492e+00
2.380760155034028269e+00
2.380760155034028269e+00
2.380760155034028269e+00
2.380760155034028269e+00
2.259068941312906365e+00
2.259068941312906365e+00
2.259068941312906365e+00
2.248756126590777171e+00
2.248756126590777171e+00
2.248756126590777171e+00
2.231505600146489243e+00
2.231505600146489243e+00
2.231505600146489243e+00
2.231505600146489243e+00
2.237880794701986531e+00
2.237880794701986531e+00
2.237880794701986531e+00
2.271069307535019899e+00
2.271069307535019899e+00
2.271069307535019899e+00
2.375885006256294396e+00
2.375885006256294396e+00
2.375885006256294396e+00
2.375885006256294396e+00
2.315883175145725836e+00
2.315883175145725836e+00
2.315883175145725836e+00
2.260756492812891150e+00
2.260756492812891150e+00
2.260756492812891150e+00
2.241255897701956545e+00
2.241255897701956545e+00
2.241255897701956545e+00
2.241255897701956545e+00
2.265444135868404540e+00
2.265444135868404540e+00
2.265444135868404540e+00
2.144690450758385047e+00
2.144690450758385047e+00
2.144690450758385047e+00
2.135127658925138228e+00
2.135127658925138228e+00
2.135127658925138228e+00
2.135127658925138228e+00
2.503201391644032547e+00
2.503201391644032547e+00
2.503201391644032547e+00
2.323758415478988315e+00
2.323758415478988315e+00
2.323758415478988315e+00
2.248381115146336207e+00
2.248381115146336207e+00
2.248381115146336207e+00
2.248381115146336207e+00
2.241443403424177028e+00
2.241443403424177028e+00
2.241443403424177028e+00
2.233755668813135031e+00
2.233755668813135031e+00
2.233755668813135031e+00
2.256068849757378203e+00
2.256068849757378203e+00
2.256068849757378203e+00
2.256068849757378203e+00
2.271631824701681346e+00
2.271631824701681346e+00
2.271631824701681346e+00
2.386947843867305519e+00
2.386947843867305519e+00
2.386947843867305519e+00
2.386947843867305519e+00
2.261694021423993561e+00
2.261694021423993561e+00
2.261694021423993561e+00
2.237505783257545566e+00
2.237505783257545566e+00
2.237505783257545566e+00
2.239755851924192243e+00
2.239755851924192243e+00
2.239755851924192243e+00
2.239755851924192243e+00
2.268819238868374111e+00
2.268819238868374111e+00
2.268819238868374111e+00
2.136815210425123013e+00
2.136815210425123013e+00
2.136815210425123013e+00
2.235630726035340299e+00
2.235630726035340299e+00
2.235630726035340299e+00
2.235630726035340299e+00
2.464387707144383377e+00
2.464387707144383377e+00
2.464387707144383377e+00
2.283632190923795324e+00
2.283632190923795324e+00
2.283632190923795324e+00
2.282319650868251504e+00
2.282319650868251504e+00
2.282319650868251504e+00
2.282319650868251504e+00
2.278007019257179522e+00
2.278007019257179522e+00
2.278007019257179522e+00
2.240880886257515137e+00
2.240880886257515137e+00
2.240880886257515137e+00
2.251756218146305777e+00
2.251756218146305777e+00
2.251756218146305777e+00
2.251756218146305777e+00
2.296570085757011714e+00
2.296570085757011714e+00
2.296570085757011714e+00
2.372884914700766235e+00
2.372884914700766235e+00
2.372884914700766235e+00
2.259443952757347329e+00
2.259443952757347329e+00
2.259443952757347329e+00
2.259443952757347329e+00
2.243505966368602778e+00
2.243505966368602778e+00
2.243505966368602778e+00
2.256443861201819168e+00
2.256443861201819168e+00
2.256443861201819168e+00
2.215567613757744247e+00
2.215567613757744247e+00
2.215567613757744247e+00
2.215567613757744247e+00
2.136440198980682048e+00
2.136440198980682048e+00
2.136440198980682048e+00
2.365384685811944721e+00
2.365384685811944721e+00
2.365384685811944721e+00
2.424448988311410869e+00
2.424448988311410869e+00
2.424448988311410869e+00
2.424448988311410869e+00
2.267694204535050773e+00
2.267694204535050773e+00
2.267694204535050773e+00
2.253443769646290562e+00
2.253443769646290562e+00
2.253443769646290562e+00
2.237130771813104602e+00
2.237130771813104602e+00
2.237130771813104602e+00
2.241443403424177028e+00
2.241443403424177028e+00
2.273319376201666131e+00
2.273319376201666131e+00
2.350384228034303025e+00
2.350384228034303025e+00
2.320945829645680192e+00
2.320945829645680192e+00
2.239568346201971760e+00
2.239568346201971760e+00
2.239568346201971760e+00
2.225505417035432032e+00
2.225505417035432032e+00
2.261881527146214044e+00
2.261881527146214044e+00
2.177691457869197489e+00
2.177691457869197489e+00
2.126502395702994264e+00
2.126502395702994264e+00
2.465512741477706271e+00
2.465512741477706271e+00
2.339321390423291458e+00
2.339321390423291458e+00
2.251943723868526259e+00
2.251943723868526259e+00
2.259631458479567812e+00
2.259631458479567812e+00
2.259631458479567812e+00
2.252131229590746742e+00
2.252131229590746742e+00
2.258131412701803509e+00
2.258131412701803509e+00
2.275381939146092325e+00
2.275381939146092325e+00
2.393510544145024177e+00
2.393510544145024177e+00
2.284944730979339145e+00
2.284944730979339145e+00
2.243505966368602778e+00
2.243505966368602778e+00
2.236943266090884119e+00
2.236943266090884119e+00
2.266194158757286470e+00
2.266194158757286470e+00
2.134377636036255854e+00
2.134377636036255854e+00
2.134377636036255854e+00
2.179941526535844165e+00
2.179941526535844165e+00
2.507701528977324568e+00
2.507701528977324568e+00
2.298632648701437464e+00
2.298632648701437464e+00
2.242568437757499922e+00
2.242568437757499922e+00
2.234505691702016961e+00
2.234505691702016961e+00
2.225880428479872997e+00
2.225880428479872997e+00
2.245756035035248566e+00
2.245756035035248566e+00
2.258693929868464956e+00
2.258693929868464956e+00
2.258693929868464956e+00
2.391822992645039392e+00
2.391822992645039392e+00
2.267131687368389326e+00
2.267131687368389326e+00
2.252881252479629115e+00
2.252881252479629115e+00
2.248193609424115724e+00
2.248193609424115724e+00
2.242380932035279439e+00
2.242380932035279439e+00
2.130252510147404355e+00
2.130252510147404355e+00
2.302945280312509890e+00
2.302945280312509890e+00
2.470575395977660182e+00
2.470575395977660182e+00
2.470575395977660182e+00
2.286444776757103448e+00
2.286444776757103448e+00
2.268631733146153184e+00
2.268631733146153184e+00
2.253631275368511044e+00
2.253631275368511044e+00
2.239568346201971760e+00
2.239568346201971760e+00
2.253256263924070080e+00
2.253256263924070080e+00
2.308757957701345731e+00
2.308757957701345731e+00
2.348321665089877275e+00
2.348321665089877275e+00
2.245568529313028083e+00
2.245568529313028083e+00
2.239568346201971760e+00
2.239568346201971760e+00
2.269006744590594149e+00
2.269006744590594149e+00
2.187629261146885273e+00
2.187629261146885273e+00
2.187629261146885273e+00
2.107001800592058771e+00
2.107001800592058771e+00
2.391635486922818910e+00
2.391635486922818910e+00
2.378510086367381593e+00
2.378510086367381593e+00
2.273881893368328022e+00
2.273881893368328022e+00
2.289632374034852091e+00
2.289632374034852091e+00
2.279694570757164307e+00
2.279694570757164307e+00
2.262631550035096417e+00
2.262631550035096417e+00
2.264319101535081202e+00
2.264319101535081202e+00
2.264319101535081202e+00
2.352071779534287366e+00
2.352071779534287366e+00
2.288694845423749680e+00
2.288694845423749680e+00
2.228318002868740155e+00
2.228318002868740155e+00
2.223255348368785356e+00
2.223255348368785356e+00
2.262631550035096417e+00
2.262631550035096417e+00
2.162691000091555793e+00
2.162691000091555793e+00
2.148253059480575100e+00
2.148253059480575100e+00
2.534702352977080686e+00
2.534702352977080686e+00
2.534702352977080686e+00
2.352634296700948813e+00
2.352634296700948813e+00
2.264131595812860720e+00
2.264131595812860720e+00
2.256818872646260132e+00
2.256818872646260132e+00
2.239380840479750834e+00
2.239380840479750834e+00
2.252506241035188150e+00
2.252506241035188150e+00
2.253256263924070080e+00
2.253256263924070080e+00
2.370072328867458111e+00
2.370072328867458111e+00
2.256068849757378203e+00
2.256068849757378203e+00
2.256068849757378203e+00
2.225317911313211550e+00
2.225317911313211550e+00
2.179566515091402756e+00
2.179566515091402756e+00
2.187629261146885273e+00
2.187629261146885273e+00
2.033124546037171854e+00
2.033124546037171854e+00
2.135127658925138228e+00
2.135127658925138228e+00
2.392198004089480357e+00
2.392198004089480357e+00
2.197567064424573946e+00
2.197567064424573946e+00
2.173753837702566916e+00
2.173753837702566916e+00
2.208817407757805107e+00
2.208817407757805107e+00
2.257943906979583026e+00
2.257943906979583026e+00
2.327321024201178368e+00
2.327321024201178368e+00
2.327321024201178368e+00
2.393135532700583212e+00
2.393135532700583212e+00
2.495701162755211033e+00
2.495701162755211033e+00
2.395010589922788480e+00
2.395010589922788480e+00
2.369697317423017147e+00
2.369697317423017147e+00
2.340633930478835278e+00
2.340633930478835278e+00
2.266381664479506952e+00
2.266381664479506952e+00
2.154628254036072832e+00
2.154628254036072832e+00
2.351509262367625919e+00
2.351509262367625919e+00
2.445074617755668811e+00
2.445074617755668811e+00
2.445074617755668811e+00
2.278757042146061895e+00
2.278757042146061895e+00
2.253256263924070080e+00
2.253256263924070080e+00
2.242568437757499922e+00
2.242568437757499922e+00
2.232818140202032620e+00
2.232818140202032620e+00
2.235818231757560781e+00
2.235818231757560781e+00
2.299570177312540320e+00
2.299570177312540320e+00
2.312133060701315301e+00
2.312133060701315301e+00
2.232818140202032620e+00
2.232818140202032620e+00
2.232818140202032620e+00
2.217442670979949515e+00
2.217442670979949515e+00
2.215380108035523765e+00
2.215380108035523765e+00
2.112814477980895500e+00
2.112814477980895500e+00
2.051500106814783120e+00
2.051500106814783120e+00
2.399510727256080500e+00
2.399510727256080500e+00
2.309320474868007622e+00
2.309320474868007622e+00
2.197379558702353020e+00
2.197379558702353020e+00
2.199067110202337361e+00
2.199067110202337361e+00
2.199067110202337361e+00
2.216130130924405695e+00
2.216130130924405695e+00
2.236380748924222672e+00
2.236380748924222672e+00
2.254568803979613900e+00
2.254568803979613900e+00
2.380197637867366822e+00
2.380197637867366822e+00
2.314195623645741495e+00
2.314195623645741495e+00
2.288882351145970162e+00
2.288882351145970162e+00
2.285507248146000592e+00
2.285507248146000592e+00
2.266381664479506952e+00
2.266381664479506952e+00
2.266381664479506952e+00
2.075500839259010633e+00
2.075500839259010633e+00
2.089938779869991325e+00
2.089938779869991325e+00
2.410198553422650658e+00
2.410198553422650658e+00
2.210129947813348927e+00
2.210129947813348927e+00
2.182191595202490397e+00
2.182191595202490397e+00
2.211442487868892304e+00
2.211442487868892304e+00
2.222880336924344391e+00
2.222880336924344391e+00
2.254568803979613900e+00
2.254568803979613900e+00
2.310633014923550999e+00
2.310633014923550999e+00
2.464950224311044824e+00
2.464950224311044824e+00
2.464950224311044824e+00
2.390510452589495571e+00
2.390510452589495571e+00
2.408323496200445835e+00
2.408323496200445835e+00
2.380572649311807787e+00
2.380572649311807787e+00
2.365384685811944721e+00
2.365384685811944721e+00
2.207692373424482213e+00
2.207692373424482213e+00
2.366697225867488541e+00
2.366697225867488541e+00
2.532827295754875419e+00
2.532827295754875419e+00
2.311758049256874337e+00
2.311758049256874337e+00
2.247256080813012868e+00
2.247256080813012868e+00
2.247256080813012868e+00
2.201879696035645484e+00
2.201879696035645484e+00
2.142815393536179780e+00
2.142815393536179780e+00
2.147503036591693171e+00
2.147503036591693171e+00
2.216880153813287624e+00
2.216880153813287624e+00
2.310070497756889552e+00
2.310070497756889552e+00
2.249318643757439062e+00
2.249318643757439062e+00
2.254943815424054865e+00
2.254943815424054865e+00
2.294882534257026929e+00
2.294882534257026929e+00
2.294882534257026929e+00
2.235818231757560781e+00
2.235818231757560781e+00
2.128752464369640052e+00
2.128752464369640052e+00
2.375697500534073914e+00
2.375697500534073914e+00
2.386197820978423145e+00
2.386197820978423145e+00
2.291694936979278285e+00
2.291694936979278285e+00
2.320008301034577336e+00
2.320008301034577336e+00
2.335008758812219920e+00
2.335008758812219920e+00
2.337446333201086635e+00
2.337446333201086635e+00
2.337446333201086635e+00
2.344571550645466296e+00
2.344571550645466296e+00
2.439449446089053009e+00
2.439449446089053009e+00
2.375697500534073914e+00
2.375697500534073914e+00
2.308945463423566213e+00
2.308945463423566213e+00
2.300507705923642732e+00
2.300507705923642732e+00
2.324883449812311209e+00
2.324883449812311209e+00
2.212755027924436124e+00
2.212755027924436124e+00
2.164566057313760616e+00
2.164566057313760616e+00
2.495701162755211033e+00
2.495701162755211033e+00
2.495701162755211033e+00
2.323008392590105942e+00
2.323008392590105942e+00
2.230755577257606870e+00
2.230755577257606870e+00
2.209942442091128445e+00
2.209942442091128445e+00
2.168503677480392078e+00
2.168503677480392078e+00
2.158190862758262885e+00
2.158190862758262885e+00
2.203004730368968822e+00
2.203004730368968822e+00
2.340633930478835278e+00
2.340633930478835278e+00
2.223255348368785356e+00
2.223255348368785356e+00
2.223255348368785356e+00
2.209754936368907963e+00
2.209754936368907963e+00
2.242943449201941331e+00
2.242943449201941331e+00
2.295070039979247412e+00
2.295070039979247412e+00
2.116189580980865070e+00
2.116189580980865070e+00
2.194191961424603932e+00
2.194191961424603932e+00
2.496263679921872480e+00
2.496263679921872480e+00
2.272944364757225166e+00
2.272944364757225166e+00
2.201692190313425002e+00
2.201692190313425002e+00
2.201692190313425002e+00
2.160253425702688634e+00
2.160253425702688634e+00
2.146002990813928868e+00
2.146002990813928868e+00
2.158003357036042402e+00
2.158003357036042402e+00
2.200942167424543072e+00
2.200942167424543072e+00
2.326195989867855030e+00
2.326195989867855030e+00
2.278757042146061895e+00
2.278757042146061895e+00
2.333883724478896582e+00
2.333883724478896582e+00
2.385447798089541660e+00
2.385447798089541660e+00
2.361822077089755112e+00
2.361822077089755112e+00
2.361822077089755112e+00
2.248381115146336207e+00
2.248381115146336207e+00
2.425386516922513280e+00
2.425386516922513280e+00
2.507701528977324568e+00
2.507701528977324568e+00
2.322633381145664977e+00
2.322633381145664977e+00
2.273881893368328022e+00
2.273881893368328022e+00
2.218942716757713818e+00
2.218942716757713818e+00
2.189129306924649576e+00
2.189129306924649576e+00
2.222505325479903426e+00
2.222505325479903426e+00
2.222505325479903426e+00
2.319820795312356854e+00
2.319820795312356854e+00
2.339696401867732423e+00
2.339696401867732423e+00
2.276131962034974254e+00
2.276131962034974254e+00
2.269006744590594149e+00
2.269006744590594149e+00
2.285882259590441556e+00
2.285882259590441556e+00
2.207692373424482213e+00
2.207692373424482213e+00
2.113564500869777874e+00
2.113564500869777874e+00
2.401010773033844803e+00
2.401010773033844803e+00
2.314008117923521013e+00
2.314008117923521013e+00
2.314008117923521013e+00
2.200004638813440216e+00
2.200004638813440216e+00
2.216130130924405695e+00
2.216130130924405695e+00
2.189504318369090985e+00
2.189504318369090985e+00
2.171691274758141166e+00
2.171691274758141166e+00
2.177316446424756524e+00
2.177316446424756524e+00
2.323758415478988315e+00
2.323758415478988315e+00
2.304632831812494231e+00
2.304632831812494231e+00
2.291694936979278285e+00
2.291694936979278285e+00
2.306132877590258534e+00
2.306132877590258534e+00
2.306132877590258534e+00
2.342133976256599581e+00
2.342133976256599581e+00
2.217630176702169997e+00
2.217630176702169997e+00
2.224567888424329176e+00
2.224567888424329176e+00
2.522514481032746669e+00
2.522514481032746669e+00
2.265631641590625023e+00
2.265631641590625023e+00
2.186504226813562823e+00
2.186504226813562823e+00
2.175816400646992221e+00
2.175816400646992221e+00
2.177503952146977007e+00
2.177503952146977007e+00
2.177503952146977007e+00
2.208067384868923178e+00
2.208067384868923178e+00
2.226067934202093479e+00
2.226067934202093479e+00
2.336321298867763296e+00
2.336321298867763296e+00
2.231693105868709726e+00
2.231693105868709726e+00
2.280819605090487201e+00
2.280819605090487201e+00
2.292444959868159771e+00
2.292444959868159771e+00
2.258318918424023991e+00
2.258318918424023991e+00
2.040249763481551515e+00
2.040249763481551515e+00
2.040249763481551515e+00
2.190816858424634361e+00
2.190816858424634361e+00
2.445074617755668811e+00
2.445074617755668811e+00
2.266194158757286470e+00
2.266194158757286470e+00
2.276506973479415219e+00
2.276506973479415219e+00
2.342133976256599581e+00
2.342133976256599581e+00
2.365197180089724238e+00
2.365197180089724238e+00
2.364072145756401344e+00
2.364072145756401344e+00
2.385635303811762142e+00
2.385635303811762142e+00
2.385635303811762142e+00
2.458762535477767130e+00
2.458762535477767130e+00
2.266006653035065987e+00
2.266006653035065987e+00
2.190254341257972914e+00
2.190254341257972914e+00
2.181441572313608468e+00
2.181441572313608468e+00
2.113189489425336465e+00
2.113189489425336465e+00
1.988310678426465694e+00
1.988310678426465694e+00
2.224942899868770141e+00
2.224942899868770141e+00
2.260006469924008776e+00
2.260006469924008776e+00
2.260006469924008776e+00
2.147690542313913653e+00
2.147690542313913653e+00
2.250256172368541474e+00
2.250256172368541474e+00
2.321695852534562121e+00
2.321695852534562121e+00
2.396885647144993747e+00
2.396885647144993747e+00
2.431011688589129527e+00
2.431011688589129527e+00
2.471700430310983521e+00
2.471700430310983521e+00
2.437949400311288706e+00
2.437949400311288706e+00
2.351884273812066883e+00
2.351884273812066883e+00
2.322070863979003530e+00
2.322070863979003530e+00
2.322070863979003530e+00
2.398385692922757606e+00
2.398385692922757606e+00
2.349446699423200169e+00
2.349446699423200169e+00
2.239380840479750834e+00
2.239380840479750834e+00
2.492326059755241463e+00
2.492326059755241463e+00
2.291507431257057803e+00
2.291507431257057803e+00
2.191566881313516735e+00
2.191566881313516735e+00
2.185004181035798521e+00
2.185004181035798521e+00
2.161565965758232455e+00
2.161565965758232455e+00
2.198879604480116878e+00
2.198879604480116878e+00
2.198879604480116878e+00
2.249506149479659545e+00
2.249506149479659545e+00
2.399698232978301426e+00
2.399698232978301426e+00
2.299945188756981285e+00
2.299945188756981285e+00
2.253818781090731527e+00
2.253818781090731527e+00
2.235255714590899334e+00
2.235255714590899334e+00
2.257943906979583026e+00
2.257943906979583026e+00
2.133627613147373925e+00
2.133627613147373925e+00
2.223442854091006282e+00
2.223442854091006282e+00
2.518389355143894726e+00
2.518389355143894726e+00
2.518389355143894726e+00
2.317570726645710621e+00
2.317570726645710621e+00
2.257756401257362544e+00
2.257756401257362544e+00
2.221005279702139568e+00
2.221005279702139568e+00
2.192129398480178182e+00
2.192129398480178182e+00
2.203004730368968822e+00
2.203004730368968822e+00
2.233380657368694511e+00
2.233380657368694511e+00
2.358821985534226506e+00
2.358821985534226506e+00
2.240130863368633207e+00
2.240130863368633207e+00
2.240130863368633207e+00
2.224567888424329176e+00
2.224567888424329176e+00
2.197004547257912055e+00
2.197004547257912055e+00
2.230380565813165905e+00
2.230380565813165905e+00
2.100626606036561483e+00
2.100626606036561483e+00
2.205629810480056463e+00
2.205629810480056463e+00
2.242755943479720404e+00
2.242755943479720404e+00
2.004061159092989985e+00
2.004061159092989985e+00
1.994685872981963648e+00
1.994685872981963648e+00
1.994685872981963648e+00
2.010623859370708644e+00
2.010623859370708644e+00
2.023936765648365554e+00
2.023936765648365554e+00
2.102314157536546269e+00
2.102314157536546269e+00
2.213130039368877089e+00
2.213130039368877089e+00
2.341383953367717208e+00
2.341383953367717208e+00
2.346446607867672007e+00
2.346446607867672007e+00
2.398385692922757606e+00
2.398385692922757606e+00
2.521201940977202849e+00
2.521201940977202849e+00
2.506576494644001674e+00
2.506576494644001674e+00
2.506576494644001674e+00
2.410386059144871140e+00
2.410386059144871140e+00
2.690144596697897406e+00
2.690144596697897406e+00
2.620017456587420579e+00
2.620017456587420579e+00
2.476763084810937876e+00
2.476763084810937876e+00
2.459512558366649504e+00
2.459512558366649504e+00
2.388822901089510786e+00
2.388822901089510786e+00
2.325633472701193583e+00
2.325633472701193583e+00
2.281757133701590057e+00
2.281757133701590057e+00
2.334821253089998994e+00
2.334821253089998994e+00
2.334821253089998994e+00
2.242755943479720404e+00
2.242755943479720404e+00
2.200192144535660699e+00
2.200192144535660699e+00
2.209379924924466998e+00
2.209379924924466998e+00
2.244068483535264225e+00
2.244068483535264225e+00
2.113564500869777874e+00
2.113564500869777874e+00
2.138690267647328280e+00
2.138690267647328280e+00
2.566953337199011198e+00
2.566953337199011198e+00
2.292069948423719250e+00
2.292069948423719250e+00
2.292069948423719250e+00
2.102314157536546269e+00
2.102314157536546269e+00
2.063125461592455689e+00
2.063125461592455689e+00
2.076625873592333971e+00
2.076625873592333971e+00
2.100439100314340557e+00
2.100439100314340557e+00
2.152565691091647082e+00
2.152565691091647082e+00
2.284194708090456771e+00
2.284194708090456771e+00
2.162315988647114828e+00
2.162315988647114828e+00
2.196254524369030126e+00
2.196254524369030126e+00
2.212380016479995160e+00
2.212380016479995160e+00
2.212380016479995160e+00
2.229255531479842567e+00
2.229255531479842567e+00
2.108689352092044000e+00
2.108689352092044000e+00
2.227755485702078264e+00
2.227755485702078264e+00
2.457449995422223310e+00
2.457449995422223310e+00
2.256631366924039650e+00
2.256631366924039650e+00
2.179379009369182274e+00
2.179379009369182274e+00
2.195316995757927270e+00
2.195316995757927270e+00
2.250818689535202921e+00
2.250818689535202921e+00
2.317570726645710621e+00
2.317570726645710621e+00
2.317570726645710621e+00
2.427449079866939474e+00
2.427449079866939474e+00
2.539765007477034597e+00
2.539765007477034597e+00
2.399323221533860018e+00
2.399323221533860018e+00
2.343259010589922919e+00
2.343259010589922919e+00
2.299757683034760802e+00
2.299757683034760802e+00
2.218380199591051927e+00
2.218380199591051927e+00
2.079438459425641650e+00
2.079438459425641650e+00
2.360697042756431774e+00
2.360697042756431774e+00
2.360697042756431774e+00
2.493826105533005766e+00
2.493826105533005766e+00
2.351884273812066883e+00
2.351884273812066883e+00
2.333696218756676100e+00
2.333696218756676100e+00
2.339883907589953349e+00
2.339883907589953349e+00
2.273694387646107540e+00
2.273694387646107540e+00
2.256631366924039650e+00
2.256631366924039650e+00
2.320945829645680192e+00
2.320945829645680192e+00
2.312695577867977192e+00
2.312695577867977192e+00
2.312695577867977192e+00
2.306882900479140464e+00
2.306882900479140464e+00
2.378322580645161111e+00
2.378322580645161111e+00
2.428574114200262368e+00
2.428574114200262368e+00
2.276131962034974254e+00
2.276131962034974254e+00
2.119939695425275605e+00
2.119939695425275605e+00
2.392948026978362286e+00
2.392948026978362286e+00
2.179379009369182274e+00
2.179379009369182274e+00
2.091251319925535146e+00
2.091251319925535146e+00
2.091251319925535146e+00
2.161190954313791490e+00
2.161190954313791490e+00
2.185941709646900932e+00
2.185941709646900932e+00
2.186691732535783306e+00
2.186691732535783306e+00
2.237505783257545566e+00
2.237505783257545566e+00
2.349446699423200169e+00
2.349446699423200169e+00
2.275006927701650916e+00
2.275006927701650916e+00
2.283257179479354360e+00
2.283257179479354360e+00
2.263756584368419311e+00
2.263756584368419311e+00
2.289444868312631609e+00
2.289444868312631609e+00
2.289444868312631609e+00
2.154815759758293314e+00
2.154815759758293314e+00
2.180129032258064647e+00
2.180129032258064647e+00
2.492701071199682428e+00
2.492701071199682428e+00
2.355634388256477418e+00
2.355634388256477418e+00
2.317570726645710621e+00
2.317570726645710621e+00
2.275569444868312807e+00
2.275569444868312807e+00
2.205817316202276945e+00
2.205817316202276945e+00
2.129502487258521981e+00
2.129502487258521981e+00
2.103251686147648680e+00
2.103251686147648680e+00
2.268631733146153184e+00
2.268631733146153184e+00
2.268631733146153184e+00
2.146940519425031280e+00
2.146940519425031280e+00
2.134190130314035372e+00
2.134190130314035372e+00
2.171691274758141166e+00
2.171691274758141166e+00
2.210879970702230857e+00
2.210879970702230857e+00
2.173191320535905025e+00
2.173191320535905025e+00
2.446949674977874079e+00
2.446949674977874079e+00
2.680394299142429659e+00
2.680394299142429659e+00
2.501888851588488727e+00
2.501888851588488727e+00
2.501888851588488727e+00
2.458012512588885201e+00
2.458012512588885201e+00
2.347384136478774419e+00
2.347384136478774419e+00
2.290194891201513983e+00
2.290194891201513983e+00
2.293382488479262626e+00
2.293382488479262626e+00
2.319070772423474924e+00
2.319070772423474924e+00
2.330883632923367976e+00
2.330883632923367976e+00
2.217255165257729033e+00
2.217255165257729033e+00
2.201129673146763555e+00
2.201129673146763555e+00
2.201129673146763555e+00
2.251756218146305777e+00
2.251756218146305777e+00
2.171503769035920239e+00
2.171503769035920239e+00
1.995810907315286764e+00
1.995810907315286764e+00
2.188754295480208611e+00
2.188754295480208611e+00
2.140377819147312621e+00
2.140377819147312621e+00
2.000686056093020415e+00
2.000686056093020415e+00
2.045687429425947279e+00
2.045687429425947279e+00
2.115252052369762659e+00
2.115252052369762659e+00
2.194566972869045340e+00
2.194566972869045340e+00
2.194566972869045340e+00
2.267694204535050773e+00
2.267694204535050773e+00
2.486700888088625661e+00
2.486700888088625661e+00
2.559640614032411055e+00
2.559640614032411055e+00
2.485950865199743731e+00
2.485950865199743731e+00
2.338383861812189490e+00
2.338383861812189490e+00
2.327133518478957885e+00
2.327133518478957885e+00
2.231318094424268317e+00
2.231318094424268317e+00
2.182191595202490397e+00
2.182191595202490397e+00
2.182191595202490397e+00
2.493826105533005766e+00
2.493826105533005766e+00
2.194191961424603932e+00
2.194191961424603932e+00
2.075688344981231115e+00
2.075688344981231115e+00
2.086188665425580790e+00
2.086188665425580790e+00
2.133440107425153442e+00
2.133440107425153442e+00
2.219692739646595747e+00
2.219692739646595747e+00
2.254943815424054865e+00
2.254943815424054865e+00
2.422761436811426083e+00
2.422761436811426083e+00
2.422761436811426083e+00
2.325070955534531691e+00
2.325070955534531691e+00
2.363509628589739453e+00
2.363509628589739453e+00
2.387135349589526001e+00
2.387135349589526001e+00
2.384885280922879769e+00
2.384885280922879769e+00
2.268819238868374111e+00
2.268819238868374111e+00
2.413761162144840711e+00
2.413761162144840711e+00
2.559453108310190128e+00
2.559453108310190128e+00
2.297507614368114126e+00
2.297507614368114126e+00
2.297507614368114126e+00
2.210692464980010374e+00
2.210692464980010374e+00
2.102126651814325342e+00
2.102126651814325342e+00
1.978372875148777910e+00
1.978372875148777910e+00
2.035937131870479533e+00
2.035937131870479533e+00
2.170753746147038310e+00
2.170753746147038310e+00
2.380010132145145896e+00
2.380010132145145896e+00
2.351321756645405436e+00
2.351321756645405436e+00
2.386197820978423145e+00
2.386197820978423145e+00
2.386197820978423145e+00
2.364259651478621826e+00
2.364259651478621826e+00
2.243693472090823260e+00
2.243693472090823260e+00
2.047562486648152102e+00
2.047562486648152102e+00
2.176566423535874595e+00
2.176566423535874595e+00
2.202442213202307375e+00
2.202442213202307375e+00
1.800429944761497980e+00
1.800429944761497980e+00
1.753553514206366293e+00
1.753553514206366293e+00
1.873182164983062226e+00
1.873182164983062226e+00
1.873182164983062226e+00
1.996560930204168693e+00
1.996560930204168693e+00
2.075688344981231115e+00
2.075688344981231115e+00
2.140002807702871657e+00
2.140002807702871657e+00
2.229068025757622085e+00
2.229068025757622085e+00
2.367634754478591397e+00
2.367634754478591397e+00
2.608204596087527527e+00
2.608204596087527527e+00
2.846711874752037019e+00
2.846711874752037019e+00
2.760646748252815641e+00
2.760646748252815641e+00
2.623392559587389705e+00
2.623392559587389705e+00
2.623392559587389705e+00
2.861524826807458677e+00
2.861524826807458677e+00
2.662768761253700323e+00
2.662768761253700323e+00
2.452387340922269399e+00
2.452387340922269399e+00
2.337071321756645670e+00
2.337071321756645670e+00
2.252881252479629115e+00
2.252881252479629115e+00
2.154628254036072832e+00
2.154628254036072832e+00
2.073063264870143918e+00
2.073063264870143918e+00
2.135690176091799675e+00
2.135690176091799675e+00
2.016061525315103520e+00
2.016061525315103520e+00
1.941996765037995676e+00
1.941996765037995676e+00
1.941996765037995676e+00
2.031249488814966586e+00
2.031249488814966586e+00
2.181816583758049433e+00
2.181816583758049433e+00
2.308007934812463802e+00
2.308007934812463802e+00
2.431011688589129527e+00
2.431011688589129527e+00
2.767021942808313373e+00
2.767021942808313373e+00
2.478450636310922661e+00
2.478450636310922661e+00
2.325633472701193583e+00
2.325633472701193583e+00
2.247256080813012868e+00
2.247256080813012868e+00
2.247256080813012868e+00
2.253631275368511044e+00
2.253631275368511044e+00
2.293945005645924073e+00
2.293945005645924073e+00
2.215942625202185212e+00
2.215942625202185212e+00
2.283444685201574842e+00
2.283444685201574842e+00
2.171316263313699757e+00
2.171316263313699757e+00
2.086001159703360308e+00
2.086001159703360308e+00
2.032187017426068998e+00
2.032187017426068998e+00
2.041562303537095335e+00
2.041562303537095335e+00
2.041562303537095335e+00
1.987373149815363060e+00
1.987373149815363060e+00
2.093313882869960452e+00
2.093313882869960452e+00
2.271069307535019899e+00
2.271069307535019899e+00
2.242943449201941331e+00
2.242943449201941331e+00
2.355446882534256936e+00
2.355446882534256936e+00
2.258506424146244473e+00
2.258506424146244473e+00
2.036312143314920498e+00
2.036312143314920498e+00
2.043624866481521085e+00
2.043624866481521085e+00
2.043624866481521085e+00
2.167941160313730187e+00
2.167941160313730187e+00
2.334258735923337547e+00
2.334258735923337547e+00
2.230005554368724940e+00
2.230005554368724940e+00
2.162128482924894346e+00
2.162128482924894346e+00
2.160628437147130043e+00
2.160628437147130043e+00
2.201129673146763555e+00
2.201129673146763555e+00
2.261694021423993561e+00
2.261694021423993561e+00
2.574266060365611786e+00
2.574266060365611786e+00
2.574266060365611786e+00
2.587391460921048658e+00
2.587391460921048658e+00
2.441699514755699685e+00
2.441699514755699685e+00
2.391822992645039392e+00
2.391822992645039392e+00
2.439824457533493973e+00
2.439824457533493973e+00
2.496451185644092963e+00
2.496451185644092963e+00
2.470387890255439700e+00
2.470387890255439700e+00
2.523827021088290046e+00
2.523827021088290046e+00
2.363134617145298488e+00
2.363134617145298488e+00
2.363134617145298488e+00
2.233755668813135031e+00
2.233755668813135031e+00
2.091626331369976111e+00
2.091626331369976111e+00
2.019999145481734981e+00
2.019999145481734981e+00
1.821243079927976183e+00
1.821243079927976183e+00
1.761053743095187363e+00
1.761053743095187363e+00
2.133815118869594407e+00
2.133815118869594407e+00
2.134940153202917745e+00
2.134940153202917745e+00
2.258881435590685438e+00
2.258881435590685438e+00
2.566953337199011198e+00
2.566953337199011198e+00
2.566953337199011198e+00
2.844086794640949378e+00
2.844086794640949378e+00
2.883650502029480922e+00
2.883650502029480922e+00
2.543327616199224650e+00
2.543327616199224650e+00
2.241630909146397510e+00
2.241630909146397510e+00
1.993935850093081497e+00
1.993935850093081497e+00
1.856681661427655783e+00
1.856681661427655783e+00
1.907495712149418710e+00
1.907495712149418710e+00
1.856494155705435301e+00
1.856494155705435301e+00
1.856494155705435301e+00
1.853306558427686435e+00
1.853306558427686435e+00
2.141315347758415477e+00
2.141315347758415477e+00
2.735895992919706199e+00
2.735895992919706199e+00
2.791960203863643297e+00
2.791960203863643297e+00
2.699894894253364708e+00
2.699894894253364708e+00
2.589079012421033443e+00
2.589079012421033443e+00
2.447324686422315043e+00
2.447324686422315043e+00
2.413198644978179264e+00
2.413198644978179264e+00
2.367072237311929506e+00
2.367072237311929506e+00
2.367072237311929506e+00
2.411511093478194478e+00
2.411511093478194478e+00
2.353384319589831186e+00
2.353384319589831186e+00
2.321508346812341639e+00
2.321508346812341639e+00
2.077938413647877791e+00
2.077938413647877791e+00
1.783929441206091537e+00
1.783929441206091537e+00
1.558172551652577287e+00
1.558172551652577287e+00
1.761428754539628327e+00
1.761428754539628327e+00
1.890432691427350820e+00
1.890432691427350820e+00
1.890432691427350820e+00
1.987935666982024729e+00
1.987935666982024729e+00
2.133815118869594407e+00
2.133815118869594407e+00
2.362759605700857524e+00
2.362759605700857524e+00
2.670081484420300910e+00
2.670081484420300910e+00
2.785772515030365604e+00
2.785772515030365604e+00
2.809023224585711187e+00
2.809023224585711187e+00
2.617204870754112456e+00
2.617204870754112456e+00
2.440011963255714900e+00
2.440011963255714900e+00
2.347946653645436310e+00
2.347946653645436310e+00
2.332758690145573244e+00
2.332758690145573244e+00
2.343071504867702437e+00
2.343071504867702437e+00
2.343071504867702437e+00
2.173003814813684542e+00
2.173003814813684542e+00
2.367072237311929506e+00
2.367072237311929506e+00
2.133627613147373925e+00
2.133627613147373925e+00
1.870932096316415993e+00
1.870932096316415993e+00
1.881619922482985929e+00
1.881619922482985929e+00
2.181254066591387542e+00
2.181254066591387542e+00
2.687144505142368800e+00
2.687144505142368800e+00
2.708895168919950081e+00
2.708895168919950081e+00
2.708895168919950081e+00
2.218942716757713818e+00
2.218942716757713818e+00
1.809242713705862649e+00
1.809242713705862649e+00
1.806242622150334265e+00
1.806242622150334265e+00
2.007811273537400520e+00
2.007811273537400520e+00
2.291319925534837321e+00
2.291319925534837321e+00
2.182566606646931362e+00
2.182566606646931362e+00
2.175628894924771739e+00
2.175628894924771739e+00
2.741896176030762522e+00
2.741896176030762522e+00
2.741896176030762522e+00
2.855337137974180983e+00
2.855337137974180983e+00
2.951715079195531999e+00
2.951715079195531999e+00
2.644768211920529577e+00
2.644768211920529577e+00
2.138690267647328280e+00
2.138690267647328280e+00
2.025624317148350340e+00
2.025624317148350340e+00
2.093688894314401416e+00
2.093688894314401416e+00
2.331446150090029423e+00
2.331446150090029423e+00
1.865306924649800191e+00
1.865306924649800191e+00
1.499483260597552325e+00
1.499483260597552325e+00
1.499483260597552325e+00
1.451481795709097522e+00
1.451481795709097522e+00
1.523296487319559356e+00
1.523296487319559356e+00
1.489920468764305506e+00
1.489920468764305506e+00
1.728052735984374477e+00
1.728052735984374477e+00
2.089938779869991325e+00
2.089938779869991325e+00
2.122564775536362802e+00
2.122564775536362802e+00
2.280632099368266719e+00
2.280632099368266719e+00
2.355071871089815971e+00
2.355071871089815971e+00
2.262819055757316900e+00
2.262819055757316900e+00
2.275944456312753772e+00
2.275944456312753772e+00
2.275944456312753772e+00
2.455762443922238969e+00
2.455762443922238969e+00
2.549890316476943308e+00
2.549890316476943308e+00
2.508826563310647906e+00
2.508826563310647906e+00
2.545202673421430362e+00
2.545202673421430362e+00
2.674769127475814301e+00
2.674769127475814301e+00
2.787272560808129906e+00
2.787272560808129906e+00
2.906151188695944132e+00
2.906151188695944132e+00
3.276662495803705166e+00
3.276662495803705166e+00
3.276662495803705166e+00
3.110532425916318289e+00
3.110532425916318289e+00
2.702332468642231866e+00
2.702332468642231866e+00
2.499638782921842051e+00
2.499638782921842051e+00
2.458762535477767130e+00
2.458762535477767130e+00
2.558703085421308199e+00
2.558703085421308199e+00
2.460637592699972398e+00
2.460637592699972398e+00
2.220817773979919085e+00
2.220817773979919085e+00
2.007061250648518591e+00
2.007061250648518591e+00
2.007061250648518591e+00
1.962809900204474101e+00
1.962809900204474101e+00
1.712489761040070890e+00
1.712489761040070890e+00
1.553297402874843636e+00
1.553297402874843636e+00
1.487670400097659273e+00
1.487670400097659273e+00
1.413418134098330725e+00
1.413418134098330725e+00
1.664488296151615865e+00
1.664488296151615865e+00
1.848993926816614453e+00
1.848993926816614453e+00
2.341946470534379099e+00
2.341946470534379099e+00
2.341946470534379099e+00
2.767959471419415785e+00
2.767959471419415785e+00
2.852337046418653266e+00
2.852337046418653266e+00
2.770022034363841978e+00
2.770022034363841978e+00
2.863399884029663944e+00
2.863399884029663944e+00
2.913463911862544720e+00
2.913463911862544720e+00
2.448262215033417899e+00
2.448262215033417899e+00
2.429324137089144742e+00
2.429324137089144742e+00
2.300695211645863214e+00
2.300695211645863214e+00
2.037812189092684800e+00
2.037812189092684800e+00
2.037812189092684800e+00
1.615924314096499392e+00
1.615924314096499392e+00
1.947434430982390996e+00
1.947434430982390996e+00
2.544640156254768470e+00
2.544640156254768470e+00
2.364072145756401344e+00
2.364072145756401344e+00
2.288694845423749680e+00
2.288694845423749680e+00
2.155940794091616652e+00
2.155940794091616652e+00
1.823118137150181672e+00
1.823118137150181672e+00
1.679113742484817262e+00
1.679113742484817262e+00
1.679113742484817262e+00
1.667113376262703506e+00
2.154253242591631867e+00
2.154253242591631867e+00
2.531139744254890633e+00
2.531139744254890633e+00
2.531139744254890633e+00
2.909338785973693220e+00
2.909338785973693220e+00
3.144283455916013104e+00
3.144283455916013104e+00
3.007216772972808094e+00
3.007216772972808094e+00
2.702707480086672831e+00
2.702707480086672831e+00
2.728208258308664202e+00
2.728208258308664202e+00
2.643830683309427609e+00
2.643830683309427609e+00
2.103439191869869163e+00
2.103439191869869163e+00
1.872807153538621261e+00
1.872807153538621261e+00
1.582735801263466247e+00
1.582735801263466247e+00
1.582735801263466247e+00
1.580673238319040497e+00
1.580673238319040497e+00
1.670113467818231667e+00
1.670113467818231667e+00
1.922121158482619663e+00
1.922121158482619663e+00
2.199254615924558287e+00
2.199254615924558287e+00
2.303132786034730373e+00
2.303132786034730373e+00
2.542390087588122238e+00
2.542390087588122238e+00
2.741708670308542040e+00
2.741708670308542040e+00
2.514639240699484635e+00
2.514639240699484635e+00
2.514639240699484635e+00
2.181816583758049433e+00
2.181816583758049433e+00
2.336133793145542814e+00
2.336133793145542814e+00
2.150878139591662741e+00
2.150878139591662741e+00
1.930746421704764071e+00
1.930746421704764071e+00
1.781116855372783636e+00
1.781116855372783636e+00
1.895120334482863989e+00
1.895120334482863989e+00
1.947809442426831961e+00
1.947809442426831961e+00
2.023561754203924590e+00
2.023561754203924590e+00
2.417136265144810281e+00
2.417136265144810281e+00
2.417136265144810281e+00
2.590766563921018228e+00
2.590766563921018228e+00
2.790835169530320403e+00
2.790835169530320403e+00
2.650580889309366306e+00
2.650580889309366306e+00
2.591141575365459193e+00
2.591141575365459193e+00
2.491388531144139051e+00
2.491388531144139051e+00
2.432511734366893830e+00
2.432511734366893830e+00
2.677956724753563389e+00
2.677956724753563389e+00
2.647018280587176253e+00
2.647018280587176253e+00
2.647018280587176253e+00
2.914588946195867614e+00
2.914588946195867614e+00
2.923214209418012022e+00
2.923214209418012022e+00
2.403823358867152926e+00
2.403823358867152926e+00
2.134002624591814889e+00
2.134002624591814889e+00
1.969560106204413019e+00
1.969560106204413019e+00
2.023186742759483625e+00
2.023186742759483625e+00
1.951934568315683460e+00
1.951934568315683460e+00
1.786554521317178956e+00
1.786554521317178956e+00
1.629799737540818638e+00
1.629799737540818638e+00
1.629799737540818638e+00
1.865681936094241156e+00
1.865681936094241156e+00
2.426136539811395654e+00
2.426136539811395654e+00
2.813710867641224578e+00
2.813710867641224578e+00
2.999154026917325133e+00
2.999154026917325133e+00
2.506013977477339782e+00
2.506013977477339782e+00
2.383010223700674501e+00
2.383010223700674501e+00
2.217255165257729033e+00
2.217255165257729033e+00
1.938996673482467070e+00
1.938996673482467070e+00
1.938996673482467070e+00
1.981747978148747258e+00
1.981747978148747258e+00
2.254193792535172935e+00
2.254193792535172935e+00
2.521014435254982367e+00
2.521014435254982367e+00
2.460075075533310951e+00
2.460075075533310951e+00
2.473762993255409270e+00
2.473762993255409270e+00
2.226630451368755370e+00
2.226630451368755370e+00
1.609549119541001438e+00
1.609549119541001438e+00
1.265101107821893889e+00
1.265101107821893889e+00
1.265101107821893889e+00
1.679488753929258227e+00
1.679488753929258227e+00
1.835493514816736393e+00
1.835493514816736393e+00
1.829868343150120591e+00
1.829868343150120591e+00
2.020936674092837393e+00
2.020936674092837393e+00
2.214255073702200427e+00
2.214255073702200427e+00
2.444887112033448329e+00
2.444887112033448329e+00
2.637267983031708951e+00
2.637267983031708951e+00
2.724833155308695076e+00
2.724833155308695076e+00
2.724833155308695076e+00
2.717707937864314527e+00
2.717707937864314527e+00
2.862649861140782015e+00
2.862649861140782015e+00
2.803023041474654420e+00
2.803023041474654420e+00
2.591516586809900158e+00
2.591516586809900158e+00
2.425386516922513280e+00
2.425386516922513280e+00
2.274819421979430434e+00
2.274819421979430434e+00
2.512201666310617476e+00
2.512201666310617476e+00
2.358634479812006024e+00
2.358634479812006024e+00
2.358634479812006024e+00
2.522701986754967152e+00
2.522701986754967152e+00
2.660143681142613126e+00
2.660143681142613126e+00
2.444512100589007364e+00
2.444512100589007364e+00
2.209379924924466998e+00
2.209379924924466998e+00
2.212567522202215642e+00
2.212567522202215642e+00
2.353196813867610704e+00
2.353196813867610704e+00
1.977247840815454571e+00
1.977247840815454571e+00
1.596048707541123823e+00
1.596048707541123823e+00
1.491608020264290513e+00
1.491608020264290513e+00
1.497608203375347280e+00
1.497608203375347280e+00
1.497608203375347280e+00
1.411730582598345940e+00
1.411730582598345940e+00
1.635424909207434441e+00
1.635424909207434441e+00
2.411886104922635443e+00
2.411886104922635443e+00
2.611017181920834762e+00
2.611017181920834762e+00
2.835649037141025897e+00
2.835649037141025897e+00
2.868837549974059264e+00
2.868837549974059264e+00
2.796835352641376726e+00
2.796835352641376726e+00
2.754084047975096983e+00
2.754084047975096983e+00
2.754084047975096983e+00
2.749208899197363554e+00
2.749208899197363554e+00
2.849149449140904178e+00
2.849149449140904178e+00
2.597516769920956925e+00
2.597516769920956925e+00
2.496451185644092963e+00
2.496451185644092963e+00
2.410198553422650658e+00
2.410198553422650658e+00
2.330696127201147494e+00
2.330696127201147494e+00
2.102876674703207716e+00
2.102876674703207716e+00
2.141315347758415477e+00
2.141315347758415477e+00
2.141315347758415477e+00
2.351509262367625919e+00
2.351509262367625919e+00
2.120127201147496088e+00
2.120127201147496088e+00
1.930183904538102402e+00
1.930183904538102402e+00
1.677613696707052959e+00
1.677613696707052959e+00
1.364291634876552584e+00
1.364291634876552584e+00
1.281226599932859145e+00
1.281226599932859145e+00
1.581985778374584095e+00
1.581985778374584095e+00
2.001811090426343309e+00
2.001811090426343309e+00
2.001811090426343309e+00
2.405323404644917229e+00
2.405323404644917229e+00
2.879525376140628978e+00
2.879525376140628978e+00
3.058218329416791281e+00
3.058218329416791281e+00
3.018654622028260182e+00
3.018654622028260182e+00
2.837336588641010682e+00
2.837336588641010682e+00
2.962215399639881674e+00
2.962215399639881674e+00
2.766459425641651482e+00
2.766459425641651482e+00
2.554390453810235773e+00
2.554390453810235773e+00
2.554390453810235773e+00
2.457825006866664719e+00
2.457825006866664719e+00
2.293382488479262626e+00
2.293382488479262626e+00
2.045874935148167761e+00
2.045874935148167761e+00
2.019999145481734981e+00
2.019999145481734981e+00
2.162128482924894346e+00
2.162128482924894346e+00
1.987935666982024729e+00
1.987935666982024729e+00
1.754678548539689409e+00
1.754678548539689409e+00
1.823868160039063824e+00
1.823868160039063824e+00
1.889870174260689151e+00
1.889870174260689151e+00
1.889870174260689151e+00
1.833243446150089939e+00
1.833243446150089939e+00
1.885182531205175982e+00
1.885182531205175982e+00
2.205629810480056463e+00
2.205629810480056463e+00
2.147128025147251762e+00
2.147128025147251762e+00
2.209192419202246516e+00
2.209192419202246516e+00
2.433449262977995797e+00
2.433449262977995797e+00
2.715082857753227330e+00
2.715082857753227330e+00
2.804710592974639205e+00
2.804710592974639205e+00
2.804710592974639205e+00
2.725208166753136041e+00
2.725208166753136041e+00
2.721645558030945988e+00
2.721645558030945988e+00
2.485763359477523249e+00
2.485763359477523249e+00
2.227192968535416817e+00
2.227192968535416817e+00
2.060125370036927084e+00
2.060125370036927084e+00
1.972185186315500438e+00
1.972185186315500438e+00
1.857619190038758417e+00
1.857619190038758417e+00
1.910308297982726611e+00
1.910308297982726611e+00
1.910308297982726611e+00
2.373634937589648164e+00
2.373634937589648164e+00
2.658456129642628341e+00
2.658456129642628341e+00
2.838086611529893055e+00
2.838086611529893055e+00
2.664081301309244143e+00
2.664081301309244143e+00
2.501138828699606353e+00
2.501138828699606353e+00
2.395573107089449927e+00
2.395573107089449927e+00
2.310258003479110034e+00
2.310258003479110034e+00
2.163441022980437278e+00
2.163441022980437278e+00
2.163441022980437278e+00
1.900182988982818122e+00
1.900182988982818122e+00
1.935059053315836053e+00
1.935059053315836053e+00
2.058250312814721816e+00
2.058250312814721816e+00
2.117689626758628929e+00
2.117689626758628929e+00
2.162315988647114828e+00
2.162315988647114828e+00
2.415636219367045978e+00
2.415636219367045978e+00
2.407010956144902014e+00
2.407010956144902014e+00
2.248568620868556689e+00
2.248568620868556689e+00
2.248568620868556689e+00
2.122002258369701355e+00
2.122002258369701355e+00
1.952122074037903943e+00
1.952122074037903943e+00
1.999373516037476817e+00
1.999373516037476817e+00
1.949121982482375781e+00
1.949121982482375781e+00
1.935996581926938687e+00
1.935996581926938687e+00
2.232443128757591655e+00
2.232443128757591655e+00
2.576891140476698983e+00
2.576891140476698983e+00
2.898275948362682097e+00
2.898275948362682097e+00
2.915901486251411434e+00
2.915901486251411434e+00
2.623205053865169223e+00
2.623205053865169223e+00
2.623205053865169223e+00
2.360884548478652700e+00
2.360884548478652700e+00
2.539765007477034597e+00
2.539765007477034597e+00
2.295820062868129341e+00
2.295820062868129341e+00
2.117127109591967482e+00
2.117127109591967482e+00
2.075875850703451597e+00
2.075875850703451597e+00
2.194004455702383449e+00
2.194004455702383449e+00
2.063500473036897098e+00
2.063500473036897098e+00
1.923621204260383966e+00
1.923621204260383966e+00
1.959997314371166199e+00
1.959997314371166199e+00
1.959997314371166199e+00
1.825180700094607422e+00
1.825180700094607422e+00
1.821993102816858334e+00
1.821993102816858334e+00
1.989623218482009515e+00
1.989623218482009515e+00
2.324883449812311209e+00
2.324883449812311209e+00
2.366322214423047576e+00
2.366322214423047576e+00
2.601079378643146978e+00
2.601079378643146978e+00
3.017342081972716805e+00
3.017342081972716805e+00
2.850461989196447554e+00
2.850461989196447554e+00
2.850461989196447554e+00
2.746958830530716877e+00
2.746958830530716877e+00
2.660331186864833608e+00
2.660331186864833608e+00
2.486888393810846587e+00
2.486888393810846587e+00
2.332571184423352761e+00
2.332571184423352761e+00
2.263194067201757864e+00
2.263194067201757864e+00
2.329758598590044638e+00
2.329758598590044638e+00
2.161940977202673420e+00
2.161940977202673420e+00
2.076063356425672080e+00
2.076063356425672080e+00
2.076063356425672080e+00
1.953622119815668245e+00
1.953622119815668245e+00
1.954747154148991584e+00
1.954747154148991584e+00
1.837368572038941661e+00
1.837368572038941661e+00
1.994310861537522683e+00
1.994310861537522683e+00
2.111314432203131197e+00
2.111314432203131197e+00
2.043999877925962494e+00
2.043999877925962494e+00
2.278757042146061895e+00
2.278757042146061895e+00
2.460825098422192880e+00
2.460825098422192880e+00
2.389010406811731269e+00
2.389010406811731269e+00
2.389010406811731269e+00
2.336883816034425188e+00
2.336883816034425188e+00
2.447512192144535526e+00
2.447512192144535526e+00
2.544265144810327506e+00
2.544265144810327506e+00
2.415636219367045978e+00
2.415636219367045978e+00
2.274256904812768987e+00
2.274256904812768987e+00
2.197942075869014911e+00
2.197942075869014911e+00
2.093501388592180934e+00
2.093501388592180934e+00
2.047562486648152102e+00
2.047562486648152102e+00
2.323383404034546906e+00
2.323383404034546906e+00
2.323383404034546906e+00
2.323570909756767389e+00
2.323570909756767389e+00
2.356384411145359792e+00
2.356384411145359792e+00
2.452949858088931290e+00
2.452949858088931290e+00
2.346634113589892490e+00
2.346634113589892490e+00
2.181066560869167059e+00
2.181066560869167059e+00
2.129502487258521981e+00
2.129502487258521981e+00
2.168316171758171151e+00
2.168316171758171151e+00
1.953997131260109432e+00
1.953997131260109432e+00
1.818993011261330173e+00
1.818993011261330173e+00
1.818993011261330173e+00
1.957184728537858298e+00
1.957184728537858298e+00
2.196442030091250608e+00
2.196442030091250608e+00
2.279319559312723342e+00
2.279319559312723342e+00
2.311008026367992407e+00
2.311008026367992407e+00
2.816148442030091292e+00
2.816148442030091292e+00
2.664081301309244143e+00
2.664081301309244143e+00
2.605392010254219404e+00
2.605392010254219404e+00
2.541265053254798900e+00
2.541265053254798900e+00
2.541265053254798900e+00
2.512201666310617476e+00
2.512201666310617476e+00
2.554952970976897664e+00
2.554952970976897664e+00
2.592829126865443978e+00
2.592829126865443978e+00
2.685831965086825424e+00
2.685831965086825424e+00
2.468325327311013950e+00
2.468325327311013950e+00
2.333508713034455617e+00
2.333508713034455617e+00
2.243318460646382295e+00
2.243318460646382295e+00
2.228130497146519229e+00
2.228130497146519229e+00
2.228130497146519229e+00
2.010998870815149164e+00
2.010998870815149164e+00
1.935059053315836053e+00
1.935059053315836053e+00
2.044937406537064906e+00
2.044937406537064906e+00
1.833055940427869457e+00
1.833055940427869457e+00
1.952684591204565612e+00
1.952684591204565612e+00
1.980622943815424142e+00
1.980622943815424142e+00
2.171878780480361648e+00
2.171878780480361648e+00
2.406073427533799602e+00
2.406073427533799602e+00
2.437949400311288706e+00
2.437949400311288706e+00
2.437949400311288706e+00
2.554765465254677181e+00
2.554765465254677181e+00
2.455199926755577522e+00
2.455199926755577522e+00
2.433824274422437206e+00
2.433824274422437206e+00
2.403448347422711961e+00
2.403448347422711961e+00
2.347759147923215384e+00
2.347759147923215384e+00
2.194941984313486305e+00
2.194941984313486305e+00
2.329008575701162709e+00
2.329008575701162709e+00
2.274631916257209951e+00
2.274631916257209951e+00
2.011936399426252020e+00
2.011936399426252020e+00
1.898120426038392372e+00
1.898120426038392372e+00
1.898120426038392372e+00
1.801179967650380132e+00
1.801179967650380132e+00
1.784679464094973689e+00
1.784679464094973689e+00
1.879932370983001144e+00
1.879932370983001144e+00
2.148815576647236547e+00
2.148815576647236547e+00
2.425386516922513280e+00
2.425386516922513280e+00
2.570515945921201251e+00
2.570515945921201251e+00
2.641955626087221898e+00
2.641955626087221898e+00
2.619829950865200097e+00
2.619829950865200097e+00
2.619829950865200097e+00
2.422198919644764192e+00
2.422198919644764192e+00
2.235818231757560781e+00
2.235818231757560781e+00
2.378697592089602519e+00
2.378697592089602519e+00
2.231130588702047834e+00
2.231130588702047834e+00
2.144690450758385047e+00
2.144690450758385047e+00
2.187441755424664791e+00
2.187441755424664791e+00
2.273131870479445649e+00
2.273131870479445649e+00
2.351696768089846401e+00
2.351696768089846401e+00
2.424448988311410869e+00
2.424448988311410869e+00
2.424448988311410869e+00
2.518201849421674243e+00
2.518201849421674243e+00
2.374197454756310055e+00
2.374197454756310055e+00
2.292069948423719250e+00
2.292069948423719250e+00
2.225692922757652514e+00
2.225692922757652514e+00
2.204317270424512643e+00
2.204317270424512643e+00
2.017936582537308787e+00
2.017936582537308787e+00
1.902245551927244094e+00
1.902245551927244094e+00
2.200379650257881181e+00
2.200379650257881181e+00
2.200379650257881181e+00
2.097251503036591469e+00
2.097251503036591469e+00
2.212755027924436124e+00
2.212755027924436124e+00
2.384322763756218322e+00
2.384322763756218322e+00
2.522889492477187634e+00
2.522889492477187634e+00
2.619829950865200097e+00
2.619829950865200097e+00
2.551765373699148576e+00
2.551765373699148576e+00
2.536389904477065471e+00
2.536389904477065471e+00
2.272944364757225166e+00
2.272944364757225166e+00
2.220817773979919085e+00
2.220817773979919085e+00
2.220817773979919085e+00
2.171503769035920239e+00
2.171503769035920239e+00
2.229818048646504014e+00
2.229818048646504014e+00
2.224567888424329176e+00
2.224567888424329176e+00
2.323008392590105942e+00
2.323008392590105942e+00
2.400823267311624321e+00
2.400823267311624321e+00
2.173003814813684542e+00
2.173003814813684542e+00
2.165316080202642990e+00
2.165316080202642990e+00
2.216692648091067142e+00
2.216692648091067142e+00
2.216692648091067142e+00
2.178816492202520827e+00
2.178816492202520827e+00
2.082251045258949329e+00
2.082251045258949329e+00
2.166253608813745402e+00
2.166253608813745402e+00
2.148065553758354618e+00
2.148065553758354618e+00
1.953622119815668245e+00
1.953622119815668245e+00
1.926433790093691867e+00
1.926433790093691867e+00
2.065375530259102366e+00
2.065375530259102366e+00
2.161003448591571008e+00
2.161003448591571008e+00
2.161003448591571008e+00
2.293382488479262626e+00
2.293382488479262626e+00
2.787647572252571315e+00
2.787647572252571315e+00
2.907463728751487952e+00
2.907463728751487952e+00
2.722958098086489809e+00
2.722958098086489809e+00
2.687707022309030691e+00
2.687707022309030691e+00
2.642330637531663307e+00
2.642330637531663307e+00
2.632767845698416043e+00
2.632767845698416043e+00
2.503576403088473068e+00
2.503576403088473068e+00
2.503576403088473068e+00
2.387510361033966966e+00
2.387510361033966966e+00
2.110751915036469750e+00
2.110751915036469750e+00
1.955872188482314478e+00
1.955872188482314478e+00
1.980247932370982955e+00
1.980247932370982955e+00
2.054875209814752690e+00
2.054875209814752690e+00
2.011186376537369647e+00
2.011186376537369647e+00
1.949872005371257710e+00
1.949872005371257710e+00
2.276131962034974254e+00
2.276131962034974254e+00
2.276131962034974254e+00
2.137190221869563977e+00
2.137190221869563977e+00
2.066875576036866669e+00
2.066875576036866669e+00
2.128002441480758122e+00
2.128002441480758122e+00
2.163066011535996758e+00
2.163066011535996758e+00
2.271256813257240381e+00
2.271256813257240381e+00
2.367447248756370914e+00
2.367447248756370914e+00
2.472262947477644968e+00
2.472262947477644968e+00
2.330133610034486047e+00
2.330133610034486047e+00
2.293194982757042144e+00
2.293194982757042144e+00
2.245756035035248566e+00
2.245756035035248566e+00
2.245756035035248566e+00
2.238255806146427940e+00
2.238255806146427940e+00
2.068750633259071936e+00
2.068750633259071936e+00
2.103064180425428198e+00
2.103064180425428198e+00
2.414323679311502602e+00
2.414323679311502602e+00
2.285694753868221074e+00
2.285694753868221074e+00
2.353946836756492633e+00
2.353946836756492633e+00
2.447137180700094561e+00
2.447137180700094561e+00
2.452574846644489881e+00
2.452574846644489881e+00
2.452574846644489881e+00
2.397260658589434712e+00
2.397260658589434712e+00
2.376260017700735361e+00
2.376260017700735361e+00
2.348696676534318240e+00
2.348696676534318240e+00
2.054125186925870761e+00
2.054125186925870761e+00
1.948559465315714112e+00
1.948559465315714112e+00
1.952122074037903943e+00
1.952122074037903943e+00
1.947434430982390996e+00
1.947434430982390996e+00
1.908245735038300861e+00
1.908245735038300861e+00
2.228693014313181120e+00
2.228693014313181120e+00
2.228693014313181120e+00
2.627142674031800240e+00
2.627142674031800240e+00
2.593204138309884943e+00
2.593204138309884943e+00
2.609142124698629495e+00
2.609142124698629495e+00
2.491013519699698087e+00
2.491013519699698087e+00
2.446949674977874079e+00
2.446949674977874079e+00
2.411511093478194478e+00
2.411511093478194478e+00
2.355071871089815971e+00
2.355071871089815971e+00
2.291694936979278285e+00
2.291694936979278285e+00
2.291694936979278285e+00
2.239380840479750834e+00
2.239380840479750834e+00
2.276319467757194737e+00
2.276319467757194737e+00
2.365009674367503756e+00
2.365009674367503756e+00
2.303320291756950855e+00
2.303320291756950855e+00
2.175816400646992221e+00
2.175816400646992221e+00
2.365947202978606612e+00
2.365947202978606612e+00
2.210692464980010374e+00
2.210692464980010374e+00
2.055812738425855546e+00
2.055812738425855546e+00
2.055812738425855546e+00
2.037999694814905283e+00
2.037999694814905283e+00
2.102689168980987233e+00
2.102689168980987233e+00
2.212192510757774677e+00
2.212192510757774677e+00
2.254943815424054865e+00
2.254943815424054865e+00
2.343259010589922919e+00
2.343259010589922919e+00
2.242193426313058957e+00
2.242193426313058957e+00
2.157065828424939546e+00
2.157065828424939546e+00
2.167753654591509704e+00
2.167753654591509704e+00
2.167753654591509704e+00
2.171128757591479275e+00
2.171128757591479275e+00
2.145627979369487459e+00
2.145627979369487459e+00
2.320945829645680192e+00
2.320945829645680192e+00
2.767584459974974820e+00
2.767584459974974820e+00
2.556828028199102931e+00
2.556828028199102931e+00
2.487263405255287552e+00
2.487263405255287552e+00
2.437386883144627259e+00
2.437386883144627259e+00
2.366884731589709023e+00
2.366884731589709023e+00
2.358446974089785542e+00
2.358446974089785542e+00
2.358446974089785542e+00
2.362572099978637485e+00
2.362572099978637485e+00
2.441887020477920167e+00
2.441887020477920167e+00
2.207504867702261730e+00
2.207504867702261730e+00
2.139815301980651618e+00
2.139815301980651618e+00
2.088813745536667987e+00
2.088813745536667987e+00
2.061437910092470904e+00
2.061437910092470904e+00
1.957934751426740450e+00
1.957934751426740450e+00
2.135877681814020157e+00
2.135877681814020157e+00
2.135877681814020157e+00
2.455012421033357040e+00
2.455012421033357040e+00
2.284007202368236289e+00
2.284007202368236289e+00
2.229255531479842567e+00
2.229255531479842567e+00
2.288694845423749680e+00
2.288694845423749680e+00
2.359384502700888397e+00
2.359384502700888397e+00
2.390885464033936536e+00
2.390885464033936536e+00
2.445262123477889293e+00
2.445262123477889293e+00
2.497013702810754854e+00
2.497013702810754854e+00
2.497013702810754854e+00
2.264131595812860720e+00
2.264131595812860720e+00
2.131190038758506766e+00
2.131190038758506766e+00
2.093688894314401416e+00
2.093688894314401416e+00
2.050000061037018817e+00
2.050000061037018817e+00
1.944059327982421204e+00
1.944059327982421204e+00
2.145065462202826012e+00
2.145065462202826012e+00
2.168128666035950669e+00
2.168128666035950669e+00
2.037812189092684800e+00
2.037812189092684800e+00
2.037812189092684800e+00
2.134190130314035372e+00
2.134190130314035372e+00
2.262819055757316900e+00
2.262819055757316900e+00
2.365197180089724238e+00
2.365197180089724238e+00
2.481263222144230340e+00
2.481263222144230340e+00
2.597516769920956925e+00
2.597516769920956925e+00
2.555890499588000075e+00
2.555890499588000075e+00
2.424073976866969904e+00
2.424073976866969904e+00
2.391635486922818910e+00
2.391635486922818910e+00
2.388635395367290304e+00
2.388635395367290304e+00
2.243505966368602778e+00
2.243505966368602778e+00
2.133815118869594407e+00
2.133815118869594407e+00
2.133815118869594407e+00
2.385822809533982625e+00
2.385822809533982625e+00
2.251568712424085295e+00
2.251568712424085295e+00
2.188191778313547164e+00
2.188191778313547164e+00
2.209004913480026033e+00
2.209004913480026033e+00
2.244255989257484707e+00
2.244255989257484707e+00
2.261131504257332114e+00
2.261131504257332114e+00
2.332946195867793726e+00
2.332946195867793726e+00
2.493826105533005766e+00
2.493826105533005766e+00
2.493826105533005766e+00
2.371009857478560967e+00
2.371009857478560967e+00
2.268631733146153184e+00
2.268631733146153184e+00
2.214067567979979945e+00
2.214067567979979945e+00
2.227567979979857782e+00
2.227567979979857782e+00
2.073063264870143918e+00
2.073063264870143918e+00
2.086188665425580790e+00
2.086188665425580790e+00
2.421448896755882263e+00
2.421448896755882263e+00
2.240318369090853690e+00
2.240318369090853690e+00
2.240318369090853690e+00
2.149003082369457029e+00
2.149003082369457029e+00
2.105501754814294912e+00
2.105501754814294912e+00
2.099689077425458628e+00
2.099689077425458628e+00
2.117127109591967482e+00
2.117127109591967482e+00
2.191754387035737217e+00
2.191754387035737217e+00
2.366134708700827094e+00
2.366134708700827094e+00
2.269006744590594149e+00
2.269006744590594149e+00
2.302195257423627517e+00
2.302195257423627517e+00
2.302195257423627517e+00
2.344196539201025331e+00
2.344196539201025331e+00
2.355634388256477418e+00
2.355634388256477418e+00
2.251568712424085295e+00
2.251568712424085295e+00
2.408698507644886799e+00
2.408698507644886799e+00
2.544827661976988953e+00
2.544827661976988953e+00
2.325633472701193583e+00
2.325633472701193583e+00
2.277069490646077110e+00
2.277069490646077110e+00
2.248006103701895242e+00
2.248006103701895242e+00
2.248006103701895242e+00
2.239380840479750834e+00
2.239380840479750834e+00
2.284944730979339145e+00
2.284944730979339145e+00
2.418448805200354101e+00
2.418448805200354101e+00
2.445637134922330258e+00
2.445637134922330258e+00
2.287944822534867306e+00
2.287944822534867306e+00
2.240130863368633207e+00
2.240130863368633207e+00
2.239380840479750834e+00
2.239380840479750834e+00
2.169628711813714972e+00
2.169628711813714972e+00
2.108689352092044000e+00
2.108689352092044000e+00
2.108689352092044000e+00
2.359384502700888397e+00
2.359384502700888397e+00
2.309132969145787140e+00
2.309132969145787140e+00
2.194754478591265823e+00
2.194754478591265823e+00
2.213317545091097571e+00
2.213317545091097571e+00
2.212005005035553751e+00
2.212005005035553751e+00
2.199817133091219734e+00
2.199817133091219734e+00
2.235443220313119816e+00
2.235443220313119816e+00
2.389197912533951751e+00
2.389197912533951751e+00
2.389197912533951751e+00
2.317945738090151586e+00
2.317945738090151586e+00
2.205254799035615054e+00
2.205254799035615054e+00
2.256443861201819168e+00
2.256443861201819168e+00
2.323195898312326424e+00
2.323195898312326424e+00
2.218942716757713818e+00
2.218942716757713818e+00
2.185379192480239485e+00
2.185379192480239485e+00
2.527202124088259172e+00
2.527202124088259172e+00
2.344946562089907705e+00
2.344946562089907705e+00
2.344946562089907705e+00
2.251568712424085295e+00
2.251568712424085295e+00
2.240130863368633207e+00
2.240130863368633207e+00
2.200004638813440216e+00
2.200004638813440216e+00
2.194754478591265823e+00
2.194754478591265823e+00
2.212005005035553751e+00
2.212005005035553751e+00
2.373634937589648164e+00
2.373634937589648164e+00
2.285882259590441556e+00
2.285882259590441556e+00
2.281194616534928166e+00
2.281194616534928166e+00
2.295820062868129341e+00
2.295820062868129341e+00
2.295820062868129341e+00
2.289069856868190644e+00
2.289069856868190644e+00
2.106814294869838289e+00
2.106814294869838289e+00
2.164191045869319652e+00
2.164191045869319652e+00
2.414323679311502602e+00
2.414323679311502602e+00
2.210692464980010374e+00
2.210692464980010374e+00
2.192316904202398664e+00
2.192316904202398664e+00
2.218380199591051927e+00
2.218380199591051927e+00
2.246318552201910457e+00
2.246318552201910457e+00
2.246318552201910457e+00
2.286444776757103448e+00
2.286444776757103448e+00
2.300882717368083696e+00
2.300882717368083696e+00
2.383572740867336393e+00
2.383572740867336393e+00
2.254381298257393418e+00
2.254381298257393418e+00
2.233943174535355514e+00
2.233943174535355514e+00
2.203567247535630269e+00
2.203567247535630269e+00
2.157815851313821920e+00
2.157815851313821920e+00
2.113564500869777874e+00
2.113564500869777874e+00
2.332196172978911797e+00
2.332196172978911797e+00
2.448824732200079346e+00
2.448824732200079346e+00
2.448824732200079346e+00
2.269756767479476078e+00
2.269756767479476078e+00
2.281007110812707683e+00
2.281007110812707683e+00
2.317945738090151586e+00
2.317945738090151586e+00
2.336508804589983779e+00
2.336508804589983779e+00
2.350384228034303025e+00
2.350384228034303025e+00
2.410198553422650658e+00
2.410198553422650658e+00
2.419948850978118404e+00
2.419948850978118404e+00
2.353384319589831186e+00
2.353384319589831186e+00
2.353384319589831186e+00
2.356384411145359792e+00
2.356384411145359792e+00
2.391260475478377501e+00
2.391260475478377501e+00
2.287382305368205859e+00
2.287382305368205859e+00
2.179379009369182274e+00
2.179379009369182274e+00
2.419011322367015993e+00
2.419011322367015993e+00
2.320195806756797818e+00
2.320195806756797818e+00
2.215192602313302839e+00
2.215192602313302839e+00
2.218942716757713818e+00
2.218942716757713818e+00
2.218942716757713818e+00
2.206754844813379357e+00
2.206754844813379357e+00
2.198692098757896396e+00
2.198692098757896396e+00
2.210317453535568966e+00
2.210317453535568966e+00
2.317008209479048730e+00
2.317008209479048730e+00
2.235255714590899334e+00
2.235255714590899334e+00
2.194754478591265823e+00
2.194754478591265823e+00
2.187629261146885273e+00
2.187629261146885273e+00
2.206754844813379357e+00
2.206754844813379357e+00
2.206754844813379357e+00
2.052625141148106458e+00
2.052625141148106458e+00
2.062562944425794242e+00
2.062562944425794242e+00
2.405135898922696747e+00
2.405135898922696747e+00
2.238630817590868904e+00
2.238630817590868904e+00
2.217255165257729033e+00
2.217255165257729033e+00
2.243505966368602778e+00
2.243505966368602778e+00
2.263006561479537382e+00
2.263006561479537382e+00
2.294507522812585520e+00
2.294507522812585520e+00
2.294507522812585520e+00
2.334446241645558029e+00
2.334446241645558029e+00
2.470762901699881109e+00
2.470762901699881109e+00
2.332758690145573244e+00
2.332758690145573244e+00
2.300882717368083696e+00
2.300882717368083696e+00
2.277632007812738557e+00
2.277632007812738557e+00
2.282694662312692468e+00
2.282694662312692468e+00
2.152190679647205673e+00
2.152190679647205673e+00
2.275756950590533290e+00
2.275756950590533290e+00
2.455199926755577522e+00
2.455199926755577522e+00
2.455199926755577522e+00
2.277256996368297592e+00
2.277256996368297592e+00
2.275006927701650916e+00
2.275006927701650916e+00
2.310820520645771925e+00
2.310820520645771925e+00
2.308945463423566213e+00
2.308945463423566213e+00
2.337258827478866152e+00
2.337258827478866152e+00
2.374197454756310055e+00
2.374197454756310055e+00
2.369322305978576182e+00
2.369322305978576182e+00
2.221380291146580532e+00
2.221380291146580532e+00
2.221380291146580532e+00
2.189504318369090985e+00
2.189504318369090985e+00
2.187441755424664791e+00
2.187441755424664791e+00
2.145065462202826012e+00
2.145065462202826012e+00
2.102501663258766751e+00
2.102501663258766751e+00
2.361072054200873183e+00
2.361072054200873183e+00
2.388447889645069822e+00
2.388447889645069822e+00
2.250256172368541474e+00
2.250256172368541474e+00
2.243693472090823260e+00
2.243693472090823260e+00
2.243693472090823260e+00
2.218567705313272853e+00
2.218567705313272853e+00
2.208629902035584625e+00
2.208629902035584625e+00
2.223630359813226764e+00
2.223630359813226764e+00
2.300132694479201767e+00
2.300132694479201767e+00
2.275194433423871843e+00
2.275194433423871843e+00
2.251943723868526259e+00
2.251943723868526259e+00
2.281944639423810539e+00
2.281944639423810539e+00
2.328258552812280335e+00
2.328258552812280335e+00
2.328258552812280335e+00
2.248381115146336207e+00
2.248381115146336207e+00
2.210692464980010374e+00
2.210692464980010374e+00
2.547827753532517558e+00
2.547827753532517558e+00
2.356759422589800756e+00
2.356759422589800756e+00
2.212567522202215642e+00
2.212567522202215642e+00
2.170191228980376863e+00
2.170191228980376863e+00
2.101751640369884377e+00
2.101751640369884377e+00
2.099314065981017663e+00
2.099314065981017663e+00
2.120502212591937052e+00
2.120502212591937052e+00
2.120502212591937052e+00
2.275756950590533290e+00
2.275756950590533290e+00
2.236005737479781263e+00
2.236005737479781263e+00
2.255506332590716312e+00
2.255506332590716312e+00
2.278944547868282378e+00
2.278944547868282378e+00
2.365947202978606612e+00
2.365947202978606612e+00
2.301820245979186552e+00
2.301820245979186552e+00
2.387697866756187448e+00
2.387697866756187448e+00
2.624517593920713043e+00
2.624517593920713043e+00
2.624517593920713043e+00
2.427261574144718992e+00
2.427261574144718992e+00
2.354321848200934042e+00
2.354321848200934042e+00
2.311758049256874337e+00
2.311758049256874337e+00
2.288882351145970162e+00
2.288882351145970162e+00
2.286819788201544412e+00
2.286819788201544412e+00
2.269381756035035114e+00
2.269381756035035114e+00
2.350946745200964472e+00
2.350946745200964472e+00
2.224192876979888212e+00
2.224192876979888212e+00
2.199817133091219734e+00
2.199817133091219734e+00
2.199817133091219734e+00
2.200379650257881181e+00
2.200379650257881181e+00
2.152190679647205673e+00
2.152190679647205673e+00
2.061062898648029940e+00
2.061062898648029940e+00
2.269381756035035114e+00
2.269381756035035114e+00
2.391447981200597983e+00
2.391447981200597983e+00
2.243693472090823260e+00
2.243693472090823260e+00
2.246318552201910457e+00
2.246318552201910457e+00
2.245193517868587563e+00
2.245193517868587563e+00
2.245193517868587563e+00
2.253818781090731527e+00
2.253818781090731527e+00
2.295257545701467894e+00
2.295257545701467894e+00
2.357696951200903612e+00
2.357696951200903612e+00
2.363884640034180418e+00
2.363884640034180418e+00
2.265069124423963132e+00
2.265069124423963132e+00
2.247443586535233351e+00
2.247443586535233351e+00
2.253068758201849597e+00
2.253068758201849597e+00
2.188004272591326682e+00
2.188004272591326682e+00
2.188004272591326682e+00
2.128189947202978605e+00
2.128189947202978605e+00
2.425011505478072316e+00
2.425011505478072316e+00
2.376260017700735361e+00
2.376260017700735361e+00
2.285507248146000592e+00
2.285507248146000592e+00
2.283069673757133433e+00
2.283069673757133433e+00
2.258131412701803509e+00
2.258131412701803509e+00
2.245381023590808045e+00
2.245381023590808045e+00
2.263194067201757864e+00
2.263194067201757864e+00
2.263194067201757864e+00
2.348696676534318240e+00
2.348696676534318240e+00
2.261131504257332114e+00
2.261131504257332114e+00
2.220442762535478121e+00
2.220442762535478121e+00
2.223442854091006282e+00
2.223442854091006282e+00
2.277444502090518075e+00
2.277444502090518075e+00
2.187629261146885273e+00
2.187629261146885273e+00
2.184066652424695665e+00
2.184066652424695665e+00
2.486325876644184696e+00
2.486325876644184696e+00
2.294132511368144556e+00
2.294132511368144556e+00
2.294132511368144556e+00
2.206192327646717910e+00
2.206192327646717910e+00
2.170753746147038310e+00
2.170753746147038310e+00
2.148440565202795582e+00
2.148440565202795582e+00
2.157065828424939546e+00
2.157065828424939546e+00
2.177503952146977007e+00
2.177503952146977007e+00
2.311383037812433372e+00
2.311383037812433372e+00
2.199254615924558287e+00
2.199254615924558287e+00
2.203754753257850751e+00
2.203754753257850751e+00
2.203754753257850751e+00
2.229255531479842567e+00
2.229255531479842567e+00
2.314570635090182460e+00
2.314570635090182460e+00
2.269381756035035114e+00
2.269381756035035114e+00
2.424823999755851833e+00
2.424823999755851833e+00
2.595079195532090210e+00
2.595079195532090210e+00
2.370447340311899076e+00
2.370447340311899076e+00
2.303132786034730373e+00
2.303132786034730373e+00
2.277444502090518075e+00
2.277444502090518075e+00
2.277444502090518075e+00
2.235630726035340299e+00
2.235630726035340299e+00
2.244443494979705633e+00
2.244443494979705633e+00
2.289632374034852091e+00
2.289632374034852091e+00
2.336883816034425188e+00
2.336883816034425188e+00
2.214817590868861874e+00
2.214817590868861874e+00
2.187066743980223826e+00
2.187066743980223826e+00
2.194004455702383449e+00
2.194004455702383449e+00
2.143002899258400262e+00
2.143002899258400262e+00
2.143002899258400262e+00
2.067250587481307633e+00
2.067250587481307633e+00
2.326571001312295994e+00
2.326571001312295994e+00
2.389572923978392716e+00
2.389572923978392716e+00
2.293569994201483109e+00
2.293569994201483109e+00
2.293945005645924073e+00
2.293945005645924073e+00
2.269569261757255596e+00
2.269569261757255596e+00
2.267319193090609808e+00
2.267319193090609808e+00
2.318695760979033516e+00
2.318695760979033516e+00
2.318695760979033516e+00
2.444324594866786882e+00
2.444324594866786882e+00
2.447324686422315043e+00
2.447324686422315043e+00
2.369322305978576182e+00
2.369322305978576182e+00
2.319633289590136371e+00
2.319633289590136371e+00
2.294882534257026929e+00
2.294882534257026929e+00
2.168503677480392078e+00
2.168503677480392078e+00
2.093688894314401416e+00
2.093688894314401416e+00
2.395385601367229444e+00
2.395385601367229444e+00
2.261881527146214044e+00
2.261881527146214044e+00
2.173191320535905025e+00
2.173191320535905025e+00
2.173191320535905025e+00
2.159128391369365740e+00
2.159128391369365740e+00
2.156503311258278099e+00
2.156503311258278099e+00
2.196629535813471090e+00
2.196629535813471090e+00
2.239005829035309869e+00
2.239005829035309869e+00
2.369322305978576182e+00
2.369322305978576182e+00
2.280444593646046680e+00
2.280444593646046680e+00
2.265631641590625023e+00
2.265631641590625023e+00
2.245943540757469048e+00
2.245943540757469048e+00
2.245943540757469048e+00
2.238443311868648422e+00
2.238443311868648422e+00
2.100251594592120075e+00
2.100251594592120075e+00
2.154815759758293314e+00
2.154815759758293314e+00
2.453324869533372254e+00
2.453324869533372254e+00
2.280069582201605716e+00
2.280069582201605716e+00
2.247631092257453833e+00
2.247631092257453833e+00
2.281007110812707683e+00
2.281007110812707683e+00
2.315883175145725836e+00
2.315883175145725836e+00
2.315883175145725836e+00
2.371197363200781449e+00
2.371197363200781449e+00
2.403823358867152926e+00
2.403823358867152926e+00
2.483513290810876573e+00
2.483513290810876573e+00
2.349071687978759204e+00
2.349071687978759204e+00
2.309132969145787140e+00
2.309132969145787140e+00
2.317570726645710621e+00
2.317570726645710621e+00
2.232630634479812137e+00
2.232630634479812137e+00
2.096126468703268575e+00
2.096126468703268575e+00
2.096126468703268575e+00
2.250818689535202921e+00
2.250818689535202921e+00
2.373447431867427682e+00
2.373447431867427682e+00
2.210504959257789892e+00
2.210504959257789892e+00
2.215192602313302839e+00
2.215192602313302839e+00
2.225130405590991067e+00
2.225130405590991067e+00
2.227380474257637299e+00
2.227380474257637299e+00
2.263569078646198829e+00
2.263569078646198829e+00
2.348509170812097757e+00
2.348509170812097757e+00
2.403635853144932444e+00
2.403635853144932444e+00
2.313258095034638639e+00
2.313258095034638639e+00
2.283444685201574842e+00
2.283444685201574842e+00
2.278194524979400004e+00
2.278194524979400004e+00
2.278194524979400004e+00
2.200754661702322146e+00
2.200754661702322146e+00
2.121252235480818982e+00
2.121252235480818982e+00
2.400823267311624321e+00
2.400823267311624321e+00
2.382072695089572090e+00
2.382072695089572090e+00
2.290194891201513983e+00
2.290194891201513983e+00
2.277256996368297592e+00
2.277256996368297592e+00
2.232630634479812137e+00
2.232630634479812137e+00
2.238630817590868904e+00
2.238630817590868904e+00
2.238630817590868904e+00
2.240318369090853690e+00
2.240318369090853690e+00
2.326195989867855030e+00
2.326195989867855030e+00
2.267881710257271255e+00
2.267881710257271255e+00
2.224567888424329176e+00
2.224567888424329176e+00
2.208817407757805107e+00
2.208817407757805107e+00
2.240693380535294654e+00
2.240693380535294654e+00
2.132315073091830104e+00
2.132315073091830104e+00
2.136440198980682048e+00
2.136440198980682048e+00
2.483325785088656090e+00
2.483325785088656090e+00
2.483325785088656090e+00
2.307820429090243319e+00
2.307820429090243319e+00
2.239380840479750834e+00
2.239380840479750834e+00
2.236380748924222672e+00
2.236380748924222672e+00
2.220817773979919085e+00
2.220817773979919085e+00
2.229443037202063049e+00
2.229443037202063049e+00
2.251193700979644330e+00
2.251193700979644330e+00
2.365384685811944721e+00
2.365384685811944721e+00
2.245381023590808045e+00
2.245381023590808045e+00
2.245381023590808045e+00
2.240693380535294654e+00
2.240693380535294654e+00
2.230755577257606870e+00
2.230755577257606870e+00
2.219317728202154782e+00
2.219317728202154782e+00
2.088063722647786058e+00
2.088063722647786058e+00
2.222505325479903426e+00
2.222505325479903426e+00
2.475450544755394056e+00
2.475450544755394056e+00
2.299195165868098911e+00
2.299195165868098911e+00
2.260756492812891150e+00
2.260756492812891150e+00
2.260756492812891150e+00
2.278382030701620931e+00
2.278382030701620931e+00
2.293007477034821662e+00
2.293007477034821662e+00
2.320570818201239227e+00
2.320570818201239227e+00
2.363509628589739453e+00
2.363509628589739453e+00
2.430824182866909045e+00
2.430824182866909045e+00
2.312320566423536228e+00
2.312320566423536228e+00
2.278007019257179522e+00
2.278007019257179522e+00
2.291132419812616394e+00
2.291132419812616394e+00
2.243505966368602778e+00
2.243505966368602778e+00
2.140377819147312621e+00
2.140377819147312621e+00
2.341008941923276243e+00
2.341008941923276243e+00
2.341008941923276243e+00
2.394448072756126589e+00
2.394448072756126589e+00
2.255881344035157721e+00
2.255881344035157721e+00
2.244255989257484707e+00
2.244255989257484707e+00
2.246318552201910457e+00
2.246318552201910457e+00
2.258131412701803509e+00
2.258131412701803509e+00
2.280632099368266719e+00
2.280632099368266719e+00
2.352821802423169739e+00
2.352821802423169739e+00
2.320758323923459709e+00
2.320758323923459709e+00
2.320758323923459709e+00
2.218942716757713818e+00
2.218942716757713818e+00
2.175066377758110736e+00
2.175066377758110736e+00
2.188191778313547164e+00
2.188191778313547164e+00
2.134190130314035372e+00
2.134190130314035372e+00
2.105689260536515395e+00
2.105689260536515395e+00
2.429886654255806189e+00
2.429886654255806189e+00
2.314758140812402942e+00
2.314758140812402942e+00
2.240130863368633207e+00
2.240130863368633207e+00
2.240130863368633207e+00
2.265631641590625023e+00
2.265631641590625023e+00
2.286444776757103448e+00
2.286444776757103448e+00
2.309882992034669069e+00
2.309882992034669069e+00
2.329008575701162709e+00
2.329008575701162709e+00
2.425574022644734207e+00
2.425574022644734207e+00
2.335758781701101849e+00
2.335758781701101849e+00
2.277256996368297592e+00
2.277256996368297592e+00
2.277256996368297592e+00
2.246131046479689974e+00
2.246131046479689974e+00
2.255131321146275347e+00
2.255131321146275347e+00
2.129127475814081016e+00
2.129127475814081016e+00
2.170753746147038310e+00
2.170753746147038310e+00
2.464950224311044824e+00
2.464950224311044824e+00
2.277632007812738557e+00
2.277632007812738557e+00
2.220817773979919085e+00
2.220817773979919085e+00
2.225130405590991067e+00
2.225130405590991067e+00
2.225130405590991067e+00
2.214630085146641392e+00
2.214630085146641392e+00
2.209379924924466998e+00
2.209379924924466998e+00
2.253631275368511044e+00
2.253631275368511044e+00
2.424636494033631351e+00
2.424636494033631351e+00
2.321508346812341639e+00
2.321508346812341639e+00
2.311945554979094819e+00
2.311945554979094819e+00
2.287757316812646824e+00
2.287757316812646824e+00
2.246693563646351421e+00
2.246693563646351421e+00
2.246693563646351421e+00
2.079813470870083059e+00
2.079813470870083059e+00
2.192129398480178182e+00
2.192129398480178182e+00
2.330508621478927012e+00
2.330508621478927012e+00
2.163628528702658205e+00
2.163628528702658205e+00
2.166253608813745402e+00
2.166253608813745402e+00
2.193816949980162967e+00
2.193816949980162967e+00
2.212380016479995160e+00
2.212380016479995160e+00
2.255693838312936794e+00
2.255693838312936794e+00
2.255693838312936794e+00
2.390885464033936536e+00
2.390885464033936536e+00
2.437386883144627259e+00
2.437386883144627259e+00
2.370259834589678594e+00
2.370259834589678594e+00
2.367822260200811879e+00
2.367822260200811879e+00
2.366509720145268059e+00
2.366509720145268059e+00
2.265631641590625023e+00
2.265631641590625023e+00
2.184066652424695665e+00
2.184066652424695665e+00
2.435324320200201509e+00
2.435324320200201509e+00
2.435324320200201509e+00
2.412448622089296890e+00
2.412448622089296890e+00
2.290194891201513983e+00
2.290194891201513983e+00
2.263381572923978347e+00
2.263381572923978347e+00
2.242755943479720404e+00
2.242755943479720404e+00
2.246318552201910457e+00
2.246318552201910457e+00
2.255881344035157721e+00
2.255881344035157721e+00
2.323945921201208797e+00
2.323945921201208797e+00
2.275194433423871843e+00
2.275194433423871843e+00
2.275194433423871843e+00
2.229255531479842567e+00
2.229255531479842567e+00
2.225317911313211550e+00
2.225317911313211550e+00
2.239005829035309869e+00
2.239005829035309869e+00
2.131940061647389140e+00
2.131940061647389140e+00
2.114314523758659803e+00
2.114314523758659803e+00
2.444137089144566399e+00
2.444137089144566399e+00
2.286632282479323930e+00
2.286632282479323930e+00
2.237505783257545566e+00
2.237505783257545566e+00
2.237505783257545566e+00
2.255881344035157721e+00
2.255881344035157721e+00
2.254568803979613900e+00
2.254568803979613900e+00
2.284382213812677254e+00
2.284382213812677254e+00
2.301070223090304623e+00
2.301070223090304623e+00
2.407010956144902014e+00
2.407010956144902014e+00
2.283819696646015807e+00
2.283819696646015807e+00
2.267881710257271255e+00
2.267881710257271255e+00
2.253068758201849597e+00
2.253068758201849597e+00
2.272756859035004684e+00
2.272756859035004684e+00
2.131565050202948175e+00
2.131565050202948175e+00
2.131565050202948175e+00
2.206379833368938392e+00
2.206379833368938392e+00
2.439824457533493973e+00
2.439824457533493973e+00
2.227755485702078264e+00
2.227755485702078264e+00
2.201129673146763555e+00
2.201129673146763555e+00
2.219505233924375265e+00
2.219505233924375265e+00
2.222692831202123909e+00
2.222692831202123909e+00
2.266569170201727434e+00
2.266569170201727434e+00
2.314383129367961978e+00
2.314383129367961978e+00
2.410011047700430176e+00
2.410011047700430176e+00
2.410011047700430176e+00
2.296195074312570750e+00
2.296195074312570750e+00
2.289444868312631609e+00
2.289444868312631609e+00
2.298820154423657947e+00
2.298820154423657947e+00
2.254381298257393418e+00
2.254381298257393418e+00
2.141690359202856442e+00
2.141690359202856442e+00
2.330321115756706529e+00
2.330321115756706529e+00
2.410573564867091623e+00
2.410573564867091623e+00
2.246881069368571904e+00
2.246881069368571904e+00
2.246881069368571904e+00
2.216692648091067142e+00
2.216692648091067142e+00
2.208629902035584625e+00
2.208629902035584625e+00
2.204879787591174090e+00
2.204879787591174090e+00
2.226630451368755370e+00
2.226630451368755370e+00
2.306882900479140464e+00
2.306882900479140464e+00
2.307820429090243319e+00
2.307820429090243319e+00
2.241630909146397510e+00
2.241630909146397510e+00
2.256631366924039650e+00
2.256631366924039650e+00
2.290007385479293500e+00
2.290007385479293500e+00
2.290007385479293500e+00
2.216692648091067142e+00
2.216692648091067142e+00
2.159878414258247670e+00
2.159878414258247670e+00
2.462325144199957183e+00
2.462325144199957183e+00
2.369697317423017147e+00
2.369697317423017147e+00
2.262819055757316900e+00
2.262819055757316900e+00
2.249881160924100509e+00
2.249881160924100509e+00
2.268256721701712220e+00
2.268256721701712220e+00
2.252318735312967224e+00
2.252318735312967224e+00
2.252318735312967224e+00
2.272006836146122755e+00
2.272006836146122755e+00
2.380197637867366822e+00
2.380197637867366822e+00
2.301445234534745587e+00
2.301445234534745587e+00
2.256256355479598685e+00
