2.347571642200994901e+00
2.347571642200994901e+00
2.347571642200994901e+00
2.244443494979705633e+00
2.244443494979705633e+00
2.244443494979705633e+00
2.251568712424085295e+00
2.251568712424085295e+00
2.251568712424085295e+00
2.251568712424085295e+00
2.235630726035340299e+00
2.235630726035340299e+00
2.235630726035340299e+00
2.245381023590808045e+00
2.245381023590808045e+00
2.245381023590808045e+00
2.270694296090578934e+00
2.270694296090578934e+00
2.270694296090578934e+00
2.270694296090578934e+00
2.380197637867366822e+00
2.380197637867366822e+00
2.380197637867366822e+00
2.314195623645741495e+00
2.314195623645741495e+00
2.314195623645741495e+00
2.258881435590685438e+00
2.258881435590685438e+00
2.258881435590685438e+00
2.258881435590685438e+00
2.256631366924039650e+00
2.256631366924039650e+00
2.256631366924039650e+00
2.295257545701467894e+00
2.295257545701467894e+00
2.295257545701467894e+00
2.165316080202642990e+00
2.165316080202642990e+00
2.165316080202642990e+00
2.165316080202642990e+00
2.168691183202612560e+00
2.168691183202612560e+00
2.168691183202612560e+00
2.469450361644337288e+00
2.469450361644337288e+00
2.469450361644337288e+00
2.469450361644337288e+00
2.286819788201544412e+00
2.286819788201544412e+00
2.286819788201544412e+00
2.243130954924161813e+00
2.243130954924161813e+00
2.243130954924161813e+00
2.245943540757469048e+00
2.245943540757469048e+00
2.245943540757469048e+00
2.245943540757469048e+00
2.226255439924313961e+00
2.226255439924313961e+00
2.226255439924313961e+00
2.244631000701926116e+00
2.244631000701926116e+00
2.244631000701926116e+00
2.261131504257332114e+00
2.261131504257332114e+00
2.261131504257332114e+00
2.261131504257332114e+00
2.378510086367381593e+00
2.378510086367381593e+00
2.378510086367381593e+00
2.265631641590625023e+00
2.265631641590625023e+00
2.265631641590625023e+00
2.245006012146367080e+00
2.245006012146367080e+00
2.245006012146367080e+00
2.245006012146367080e+00
2.257193884090700653e+00
2.257193884090700653e+00
2.257193884090700653e+00
2.267319193090609808e+00
2.267319193090609808e+00
2.267319193090609808e+00
2.267319193090609808e+00
2.140565324869533104e+00
2.140565324869533104e+00
2.140565324869533104e+00
2.288507339701529197e+00
2.288507339701529197e+00
2.288507339701529197e+00
2.460262581255531433e+00
2.460262581255531433e+00
2.460262581255531433e+00
2.460262581255531433e+00
2.279319559312723342e+00
2.279319559312723342e+00
2.279319559312723342e+00
2.251193700979644330e+00
2.251193700979644330e+00
2.251193700979644330e+00
2.233380657368694511e+00
2.233380657368694511e+00
2.233380657368694511e+00
2.233380657368694511e+00
2.230943082979827352e+00
2.230943082979827352e+00
2.230943082979827352e+00
2.260006469924008776e+00
2.260006469924008776e+00
2.260006469924008776e+00
2.305570360423596643e+00
2.305570360423596643e+00
2.305570360423596643e+00
2.305570360423596643e+00
2.356384411145359792e+00
2.356384411145359792e+00
2.356384411145359792e+00
2.256818872646260132e+00
2.256818872646260132e+00
2.256818872646260132e+00
2.238443311868648422e+00
2.238443311868648422e+00
2.238443311868648422e+00
2.238443311868648422e+00
2.281944639423810539e+00
2.281944639423810539e+00
2.281944639423810539e+00
2.232443128757591655e+00
2.232443128757591655e+00
2.232443128757591655e+00
2.147878048036134135e+00
2.147878048036134135e+00
2.147878048036134135e+00
2.147878048036134135e+00
2.375885006256294396e+00
2.375885006256294396e+00
2.375885006256294396e+00
2.386010315256203107e+00
2.386010315256203107e+00
2.386010315256203107e+00
2.251756218146305777e+00
2.251756218146305777e+00
2.251756218146305777e+00
2.251381206701864812e+00
2.251381206701864812e+00
2.251381206701864812e+00
2.251381206701864812e+00
2.234505691702016961e+00
2.234505691702016961e+00
2.234505691702016961e+00
2.233005645924253102e+00
2.233005645924253102e+00
2.233005645924253102e+00
2.258693929868464956e+00
2.258693929868464956e+00
2.258693929868464956e+00
2.258693929868464956e+00
2.339321390423291458e+00
2.339321390423291458e+00
2.339321390423291458e+00
2.308007934812463802e+00
2.308007934812463802e+00
2.308007934812463802e+00
2.257006378368480615e+00
2.257006378368480615e+00
2.257006378368480615e+00
2.257006378368480615e+00
2.249318643757439062e+00
2.249318643757439062e+00
2.249318643757439062e+00
2.277256996368297592e+00
2.277256996368297592e+00
2.277256996368297592e+00
2.191754387035737217e+00
2.191754387035737217e+00
2.191754387035737217e+00
2.191754387035737217e+00
2.157628345591601438e+00
2.157628345591601438e+00
2.157628345591601438e+00
2.478638142033143144e+00
2.478638142033143144e+00
2.478638142033143144e+00
2.323945921201208797e+00
2.323945921201208797e+00
2.323945921201208797e+00
2.323945921201208797e+00
2.245006012146367080e+00
2.245006012146367080e+00
2.245006012146367080e+00
2.238630817590868904e+00
2.238630817590868904e+00
2.238630817590868904e+00
2.218567705313272853e+00
2.218567705313272853e+00
2.218567705313272853e+00
2.218567705313272853e+00
2.233568163090914993e+00
2.233568163090914993e+00
2.233568163090914993e+00
2.255131321146275347e+00
2.255131321146275347e+00
2.255131321146275347e+00
2.380197637867366822e+00
2.380197637867366822e+00
2.380197637867366822e+00
2.380197637867366822e+00
2.292632465590380253e+00
2.292632465590380253e+00
2.292632465590380253e+00
2.273694387646107540e+00
2.273694387646107540e+00
2.273694387646107540e+00
2.257568895535142062e+00
2.257568895535142062e+00
2.257568895535142062e+00
2.257568895535142062e+00
2.282694662312692468e+00
2.282694662312692468e+00
2.282694662312692468e+00
2.152565691091647082e+00
2.152565691091647082e+00
2.152565691091647082e+00
2.215755119479964730e+00
2.215755119479964730e+00
2.215755119479964730e+00
2.215755119479964730e+00
2.500201300088503942e+00
2.500201300088503942e+00
2.500201300088503942e+00
2.304257820368053267e+00
2.304257820368053267e+00
2.304257820368053267e+00
2.261131504257332114e+00
2.261131504257332114e+00
2.261131504257332114e+00
2.261131504257332114e+00
2.253443769646290562e+00
2.253443769646290562e+00
2.253443769646290562e+00
2.236943266090884119e+00
2.236943266090884119e+00
2.236943266090884119e+00
2.236943266090884119e+00
2.250631183812982439e+00
2.250631183812982439e+00
2.250631183812982439e+00
2.261506515701773079e+00
2.261506515701773079e+00
2.261506515701773079e+00
2.364447157200842309e+00
2.364447157200842309e+00
2.364447157200842309e+00
2.252131229590746742e+00
2.252131229590746742e+00
2.252131229590746742e+00
2.252131229590746742e+00
2.245756035035248566e+00
2.245756035035248566e+00
2.245756035035248566e+00
2.260381481368449741e+00
2.260381481368449741e+00
2.260381481368449741e+00
2.253818781090731527e+00
2.253818781090731527e+00
2.253818781090731527e+00
2.253818781090731527e+00
2.149003082369457029e+00
2.149003082369457029e+00
2.149003082369457029e+00
2.337071321756645670e+00
2.337071321756645670e+00
2.337071321756645670e+00
2.451449812311166987e+00
2.451449812311166987e+00
2.451449812311166987e+00
2.451449812311166987e+00
2.275194433423871843e+00
2.275194433423871843e+00
2.275194433423871843e+00
2.249506149479659545e+00
2.249506149479659545e+00
2.249506149479659545e+00
2.221567796868801015e+00
2.221567796868801015e+00
2.221567796868801015e+00
2.221567796868801015e+00
2.212005005035553751e+00
2.212005005035553751e+00
2.212005005035553751e+00
2.242943449201941331e+00
2.242943449201941331e+00
2.242943449201941331e+00
2.309882992034669069e+00
2.309882992034669069e+00
2.309882992034669069e+00
2.309882992034669069e+00
2.320383312479018745e+00
2.320383312479018745e+00
2.320383312479018745e+00
2.255318826868495830e+00
2.255318826868495830e+00
2.255318826868495830e+00
2.248193609424115724e+00
2.248193609424115724e+00
2.248193609424115724e+00
2.248193609424115724e+00
2.269006744590594149e+00
2.269006744590594149e+00
2.269006744590594149e+00
2.222130314035462462e+00
2.222130314035462462e+00
2.222130314035462462e+00
2.140565324869533104e+00
2.140565324869533104e+00
2.140565324869533104e+00
2.140565324869533104e+00
2.428011597033600921e+00
2.428011597033600921e+00
2.428011597033600921e+00
2.364447157200842309e+00
2.364447157200842309e+00
2.364447157200842309e+00
2.364447157200842309e+00
2.249693655201880027e+00
2.249693655201880027e+00
2.249693655201880027e+00
2.247256080813012868e+00
2.247256080813012868e+00
2.247256080813012868e+00
2.214817590868861874e+00
2.214817590868861874e+00
2.214817590868861874e+00
2.214817590868861874e+00
2.222130314035462462e+00
2.222130314035462462e+00
2.222130314035462462e+00
2.256068849757378203e+00
2.256068849757378203e+00
2.256068849757378203e+00
2.357321939756462204e+00
2.357321939756462204e+00
2.357321939756462204e+00
2.357321939756462204e+00
2.311945554979094819e+00
2.311945554979094819e+00
2.311945554979094819e+00
2.267506698812830290e+00
2.267506698812830290e+00
2.267506698812830290e+00
2.256256355479598685e+00
2.256256355479598685e+00
2.256256355479598685e+00
2.256256355479598685e+00
2.290194891201513983e+00
2.290194891201513983e+00
2.290194891201513983e+00
2.174503860591448845e+00
2.174503860591448845e+00
2.174503860591448845e+00
2.168316171758171151e+00
2.168316171758171151e+00
2.168316171758171151e+00
2.168316171758171151e+00
2.501888851588488727e+00
2.501888851588488727e+00
2.501888851588488727e+00
2.317008209479048730e+00
2.317008209479048730e+00
2.317008209479048730e+00
2.254756309701834383e+00
2.254756309701834383e+00
2.254756309701834383e+00
2.254756309701834383e+00
2.243318460646382295e+00
2.243318460646382295e+00
2.243318460646382295e+00
2.223255348368785356e+00
2.223255348368785356e+00
2.223255348368785356e+00
2.223255348368785356e+00
2.248568620868556689e+00
2.248568620868556689e+00
2.248568620868556689e+00
2.267131687368389326e+00
2.267131687368389326e+00
2.267131687368389326e+00
2.387322855311746483e+00
2.387322855311746483e+00
2.387322855311746483e+00
2.387322855311746483e+00
2.273319376201666131e+00
2.273319376201666131e+00
2.273319376201666131e+00
2.250256172368541474e+00
2.250256172368541474e+00
2.250256172368541474e+00
2.256256355479598685e+00
2.256256355479598685e+00
2.256256355479598685e+00
2.256256355479598685e+00
2.274819421979430434e+00
2.274819421979430434e+00
2.274819421979430434e+00
2.149940610980559885e+00
2.149940610980559885e+00
2.149940610980559885e+00
2.266569170201727434e+00
2.266569170201727434e+00
2.266569170201727434e+00
2.266569170201727434e+00
2.486325876644184696e+00
2.486325876644184696e+00
2.486325876644184696e+00
2.286819788201544412e+00
2.286819788201544412e+00
2.286819788201544412e+00
2.245943540757469048e+00
2.245943540757469048e+00
2.245943540757469048e+00
2.245943540757469048e+00
2.228130497146519229e+00
2.228130497146519229e+00
2.228130497146519229e+00
2.217067659535508550e+00
2.217067659535508550e+00
2.217067659535508550e+00
2.250631183812982439e+00
2.250631183812982439e+00
2.250631183812982439e+00
2.280257087923826198e+00
2.280257087923826198e+00
2.280257087923826198e+00
2.280257087923826198e+00
2.355634388256477418e+00
2.355634388256477418e+00
2.355634388256477418e+00
2.254381298257393418e+00
2.254381298257393418e+00
2.254381298257393418e+00
2.239755851924192243e+00
2.239755851924192243e+00
2.239755851924192243e+00
2.239755851924192243e+00
2.261881527146214044e+00
2.261881527146214044e+00
2.261881527146214044e+00
2.230005554368724940e+00
2.230005554368724940e+00
2.230005554368724940e+00
2.230005554368724940e+00
2.144502945036164565e+00
2.144502945036164565e+00
2.144502945036164565e+00
2.362197088534196077e+00
2.362197088534196077e+00
2.362197088534196077e+00
2.405135898922696747e+00
2.405135898922696747e+00
2.405135898922696747e+00
2.405135898922696747e+00
2.263194067201757864e+00
2.263194067201757864e+00
2.263194067201757864e+00
2.256068849757378203e+00
2.256068849757378203e+00
2.256068849757378203e+00
2.245756035035248566e+00
2.245756035035248566e+00
2.245756035035248566e+00
2.245756035035248566e+00
2.232068117313150690e+00
2.232068117313150690e+00
2.232068117313150690e+00
2.271631824701681346e+00
2.271631824701681346e+00
2.271631824701681346e+00
2.341758964812158617e+00
2.341758964812158617e+00
2.341758964812158617e+00
2.327696035645618888e+00
2.327696035645618888e+00
2.327696035645618888e+00
2.327696035645618888e+00
2.264131595812860720e+00
2.264131595812860720e+00
2.264131595812860720e+00
2.257193884090700653e+00
2.257193884090700653e+00
2.257193884090700653e+00
2.257193884090700653e+00
2.282694662312692468e+00
2.282694662312692468e+00
2.282694662312692468e+00
2.196817041535691573e+00
2.196817041535691573e+00
2.196817041535691573e+00
2.137377727591784460e+00
2.137377727591784460e+00
2.137377727591784460e+00
2.137377727591784460e+00
2.466075258644368162e+00
2.466075258644368162e+00
2.466075258644368162e+00
2.345884090701010116e+00
2.345884090701010116e+00
2.345884090701010116e+00
2.250443678090761956e+00
2.250443678090761956e+00
2.250443678090761956e+00
2.250443678090761956e+00
2.245193517868587563e+00
2.245193517868587563e+00
2.245193517868587563e+00
2.222692831202123909e+00
2.222692831202123909e+00
2.222692831202123909e+00
2.231880611590930208e+00
2.231880611590930208e+00
2.231880611590930208e+00
2.231880611590930208e+00
2.254006286812952009e+00
2.254006286812952009e+00
2.254006286812952009e+00
2.358634479812006024e+00
2.358634479812006024e+00
2.358634479812006024e+00
2.278007019257179522e+00
2.278007019257179522e+00
2.278007019257179522e+00
2.278007019257179522e+00
2.251568712424085295e+00
2.251568712424085295e+00
2.251568712424085295e+00
2.252506241035188150e+00
2.252506241035188150e+00
2.252506241035188150e+00
2.286444776757103448e+00
2.286444776757103448e+00
2.286444776757103448e+00
2.286444776757103448e+00
2.160253425702688634e+00
2.160253425702688634e+00
2.160253425702688634e+00
2.195504501480147752e+00
2.195504501480147752e+00
2.195504501480147752e+00
2.195504501480147752e+00
2.495888668477431516e+00
2.495888668477431516e+00
2.495888668477431516e+00
2.305382854701376161e+00
2.305382854701376161e+00
2.305382854701376161e+00
2.258131412701803509e+00
2.258131412701803509e+00
2.258131412701803509e+00
2.234505691702016961e+00
2.234505691702016961e+00
2.234505691702016961e+00
2.234505691702016961e+00
2.209567430646687480e+00
2.209567430646687480e+00
2.209567430646687480e+00
2.243693472090823260e+00
2.243693472090823260e+00
2.243693472090823260e+00
2.243693472090823260e+00
2.267694204535050773e+00
2.267694204535050773e+00
2.267694204535050773e+00
2.377572557756279181e+00
2.377572557756279181e+00
2.377572557756279181e+00
2.268256721701712220e+00
2.268256721701712220e+00
2.268256721701712220e+00
2.268256721701712220e+00
2.249318643757439062e+00
2.249318643757439062e+00
2.249318643757439062e+00
2.264319101535081202e+00
2.264319101535081202e+00
2.264319101535081202e+00
2.267506698812830290e+00
2.267506698812830290e+00
2.267506698812830290e+00
2.267506698812830290e+00
2.146753013702810797e+00
2.146753013702810797e+00
2.146753013702810797e+00
2.300695211645863214e+00
2.300695211645863214e+00
2.300695211645863214e+00
2.456324961088900860e+00
2.456324961088900860e+00
2.456324961088900860e+00
2.456324961088900860e+00
2.279694570757164307e+00
2.279694570757164307e+00
2.279694570757164307e+00
2.257193884090700653e+00
2.257193884090700653e+00
2.257193884090700653e+00
2.223067842646564873e+00
2.223067842646564873e+00
2.223067842646564873e+00
2.223067842646564873e+00
2.210692464980010374e+00
2.210692464980010374e+00
2.210692464980010374e+00
2.247631092257453833e+00
2.247631092257453833e+00
2.247631092257453833e+00
2.311195532090212890e+00
2.311195532090212890e+00
2.311195532090212890e+00
2.311195532090212890e+00
2.353009308145390222e+00
2.353009308145390222e+00
2.353009308145390222e+00
2.270506790368358452e+00
2.270506790368358452e+00
2.270506790368358452e+00
2.270506790368358452e+00
2.316820703756828248e+00
2.316820703756828248e+00
2.316820703756828248e+00
2.321883358256782603e+00
2.321883358256782603e+00
2.321883358256782603e+00
2.219692739646595747e+00
2.219692739646595747e+00
2.219692739646595747e+00
2.219692739646595747e+00
2.143565416425061709e+00
2.143565416425061709e+00
2.143565416425061709e+00
2.407385967589342979e+00
2.407385967589342979e+00
2.407385967589342979e+00
2.369884823145237629e+00
2.369884823145237629e+00
2.369884823145237629e+00
2.369884823145237629e+00
2.256443861201819168e+00
2.256443861201819168e+00
2.256443861201819168e+00
2.251568712424085295e+00
2.251568712424085295e+00
2.251568712424085295e+00
2.230568071535386387e+00
2.230568071535386387e+00
2.230568071535386387e+00
2.230568071535386387e+00
2.234318185979796478e+00
2.234318185979796478e+00
2.234318185979796478e+00
2.257006378368480615e+00
2.257006378368480615e+00
2.257006378368480615e+00
2.339883907589953349e+00
2.339883907589953349e+00
2.339883907589953349e+00
2.339883907589953349e+00
2.300320200201422249e+00
2.300320200201422249e+00
2.300320200201422249e+00
2.251756218146305777e+00
2.251756218146305777e+00
2.251756218146305777e+00
2.243880977813043742e+00
2.243880977813043742e+00
2.243880977813043742e+00
2.243880977813043742e+00
2.272569353312784202e+00
2.272569353312784202e+00
2.272569353312784202e+00
2.178253975035859380e+00
2.178253975035859380e+00
2.178253975035859380e+00
2.178253975035859380e+00
2.152753196813867564e+00
2.152753196813867564e+00
2.152753196813867564e+00
2.486325876644184696e+00
2.486325876644184696e+00
2.486325876644184696e+00
2.320758323923459709e+00
2.320758323923459709e+00
2.320758323923459709e+00
2.320758323923459709e+00
2.264694112979522167e+00
2.264694112979522167e+00
2.264694112979522167e+00
2.252131229590746742e+00
2.252131229590746742e+00
2.252131229590746742e+00
2.208817407757805107e+00
2.208817407757805107e+00
2.208817407757805107e+00
2.208817407757805107e+00
2.230943082979827352e+00
2.230943082979827352e+00
2.230943082979827352e+00
2.252318735312967224e+00
2.252318735312967224e+00
2.252318735312967224e+00
2.368009765923032361e+00
2.368009765923032361e+00
2.368009765923032361e+00
2.328258552812280335e+00
2.328258552812280335e+00
2.328258552812280335e+00
2.328258552812280335e+00
2.283819696646015807e+00
2.283819696646015807e+00
2.283819696646015807e+00
2.243318460646382295e+00
2.243318460646382295e+00
2.243318460646382295e+00
2.243318460646382295e+00
2.277256996368297592e+00
2.277256996368297592e+00
2.277256996368297592e+00
2.148253059480575100e+00
2.148253059480575100e+00
2.148253059480575100e+00
2.239005829035309869e+00
2.239005829035309869e+00
2.239005829035309869e+00
2.239005829035309869e+00
2.455387432477798004e+00
2.455387432477798004e+00
2.455387432477798004e+00
2.267694204535050773e+00
2.267694204535050773e+00
2.267694204535050773e+00
2.247818597979674760e+00
2.247818597979674760e+00
2.247818597979674760e+00
2.247818597979674760e+00
2.236755760368663637e+00
2.236755760368663637e+00
2.236755760368663637e+00
2.220067751091036712e+00
2.220067751091036712e+00
2.220067751091036712e+00
2.244255989257484707e+00
2.244255989257484707e+00
2.244255989257484707e+00
2.244255989257484707e+00
2.276694479201635701e+00
2.276694479201635701e+00
2.276694479201635701e+00
2.370634846034120002e+00
2.370634846034120002e+00
2.370634846034120002e+00
2.262256538590655452e+00
2.262256538590655452e+00
2.262256538590655452e+00
2.262256538590655452e+00
2.241255897701956545e+00
2.241255897701956545e+00
2.241255897701956545e+00
2.260381481368449741e+00
2.260381481368449741e+00
2.260381481368449741e+00
2.244068483535264225e+00
2.244068483535264225e+00
2.244068483535264225e+00
2.244068483535264225e+00
2.146190496536149350e+00
2.146190496536149350e+00
2.146190496536149350e+00
2.331258644367808941e+00
2.331258644367808941e+00
2.331258644367808941e+00
2.331258644367808941e+00
2.413011139255958781e+00
2.413011139255958781e+00
2.413011139255958781e+00
2.261319009979552597e+00
2.261319009979552597e+00
2.261319009979552597e+00
2.247818597979674760e+00
2.247818597979674760e+00
2.247818597979674760e+00
2.247818597979674760e+00
2.226630451368755370e+00
2.226630451368755370e+00
2.226630451368755370e+00
2.222317819757682944e+00
2.222317819757682944e+00
2.222317819757682944e+00
2.248381115146336207e+00
2.248381115146336207e+00
2.248381115146336207e+00
2.248381115146336207e+00
2.326946012756737403e+00
2.326946012756737403e+00
2.326946012756737403e+00
2.342696493423261028e+00
2.342696493423261028e+00
2.342696493423261028e+00
2.253631275368511044e+00
2.253631275368511044e+00
2.253631275368511044e+00
2.253631275368511044e+00
2.243693472090823260e+00
2.243693472090823260e+00
2.243693472090823260e+00
2.269944273201696561e+00
2.269944273201696561e+00
2.269944273201696561e+00
2.207504867702261730e+00
2.207504867702261730e+00
2.207504867702261730e+00
2.207504867702261730e+00
2.145252967925046494e+00
2.145252967925046494e+00
2.145252967925046494e+00
2.449012237922299828e+00
2.449012237922299828e+00
2.449012237922299828e+00
2.354321848200934042e+00
2.354321848200934042e+00
2.354321848200934042e+00
2.354321848200934042e+00
2.247443586535233351e+00
2.247443586535233351e+00
2.247443586535233351e+00
2.239193334757530351e+00
2.239193334757530351e+00
2.239193334757530351e+00
2.239193334757530351e+00
2.228505508590960638e+00
2.228505508590960638e+00
2.228505508590960638e+00
2.241068391979735619e+00
2.241068391979735619e+00
2.241068391979735619e+00
2.273506881923887057e+00
2.273506881923887057e+00
2.273506881923887057e+00
2.273506881923887057e+00
2.370822351756340485e+00
2.370822351756340485e+00
2.370822351756340485e+00
2.306695394756919981e+00
2.306695394756919981e+00
2.306695394756919981e+00
2.264131595812860720e+00
2.264131595812860720e+00
2.264131595812860720e+00
2.264131595812860720e+00
2.250818689535202921e+00
2.250818689535202921e+00
2.250818689535202921e+00
2.288882351145970162e+00
2.288882351145970162e+00
2.288882351145970162e+00
2.171316263313699757e+00
2.171316263313699757e+00
2.171316263313699757e+00
2.171316263313699757e+00
2.183316629535813735e+00
2.183316629535813735e+00
2.183316629535813735e+00
2.489888485366374749e+00
2.489888485366374749e+00
2.489888485366374749e+00
2.299945188756981285e+00
2.299945188756981285e+00
2.299945188756981285e+00
2.299945188756981285e+00
2.244818506424146598e+00
2.244818506424146598e+00
2.244818506424146598e+00
2.241068391979735619e+00
2.241068391979735619e+00
2.241068391979735619e+00
2.213505050813318054e+00
2.213505050813318054e+00
2.213505050813318054e+00
2.213505050813318054e+00
2.241068391979735619e+00
2.241068391979735619e+00
2.241068391979735619e+00
2.257006378368480615e+00
2.257006378368480615e+00
2.257006378368480615e+00
2.257006378368480615e+00
2.374197454756310055e+00
2.374197454756310055e+00
2.374197454756310055e+00
2.269569261757255596e+00
2.269569261757255596e+00
2.269569261757255596e+00
2.250443678090761956e+00
2.250443678090761956e+00
2.250443678090761956e+00
2.250443678090761956e+00
2.262256538590655452e+00
2.262256538590655452e+00
2.262256538590655452e+00
2.274069399090548504e+00
2.274069399090548504e+00
2.274069399090548504e+00
2.150315622425000850e+00
2.150315622425000850e+00
2.150315622425000850e+00
2.150315622425000850e+00
2.285882259590441556e+00
2.285882259590441556e+00
2.285882259590441556e+00
2.464200201422162451e+00
2.464200201422162451e+00
2.464200201422162451e+00
2.259256447035126847e+00
2.259256447035126847e+00
2.259256447035126847e+00
2.259256447035126847e+00
2.247631092257453833e+00
2.247631092257453833e+00
2.247631092257453833e+00
2.233005645924253102e+00
2.233005645924253102e+00
2.233005645924253102e+00
2.219317728202154782e+00
2.219317728202154782e+00
2.219317728202154782e+00
2.219317728202154782e+00
2.261506515701773079e+00
2.261506515701773079e+00
2.261506515701773079e+00
2.304820337534714714e+00
2.304820337534714714e+00
2.304820337534714714e+00
2.361822077089755112e+00
2.361822077089755112e+00
2.361822077089755112e+00
2.361822077089755112e+00
2.266944181646168399e+00
2.266944181646168399e+00
2.266944181646168399e+00
2.260756492812891150e+00
2.260756492812891150e+00
2.260756492812891150e+00
2.275756950590533290e+00
2.275756950590533290e+00
2.275756950590533290e+00
2.275756950590533290e+00
2.233193151646474028e+00
2.233193151646474028e+00
2.233193151646474028e+00
2.149003082369457029e+00
2.149003082369457029e+00
2.149003082369457029e+00
2.380010132145145896e+00
2.380010132145145896e+00
2.380010132145145896e+00
2.380010132145145896e+00
2.396135624256111374e+00
2.396135624256111374e+00
2.396135624256111374e+00
2.261694021423993561e+00
2.261694021423993561e+00
2.261694021423993561e+00
2.245568529313028083e+00
2.245568529313028083e+00
2.245568529313028083e+00
2.245568529313028083e+00
2.230568071535386387e+00
2.230568071535386387e+00
2.230568071535386387e+00
2.239380840479750834e+00
2.239380840479750834e+00
2.239380840479750834e+00
2.239005829035309869e+00
2.239005829035309869e+00
2.239005829035309869e+00
2.332758690145573244e+00
2.332758690145573244e+00
2.332758690145573244e+00
2.332758690145573244e+00
2.305570360423596643e+00
2.305570360423596643e+00
2.305570360423596643e+00
2.256818872646260132e+00
2.256818872646260132e+00
2.256818872646260132e+00
2.256818872646260132e+00
2.240880886257515137e+00
2.240880886257515137e+00
2.240880886257515137e+00
2.268819238868374111e+00
2.268819238868374111e+00
2.268819238868374111e+00
2.184254158146916147e+00
2.184254158146916147e+00
2.184254158146916147e+00
2.184254158146916147e+00
2.142440382091738371e+00
2.142440382091738371e+00
2.142440382091738371e+00
2.471137913144322074e+00
2.471137913144322074e+00
2.471137913144322074e+00
2.334258735923337547e+00
2.334258735923337547e+00
2.334258735923337547e+00
2.334258735923337547e+00
2.263944090090640238e+00
2.263944090090640238e+00
2.263944090090640238e+00
2.260943998535111632e+00
2.260943998535111632e+00
2.260943998535111632e+00
2.232443128757591655e+00
2.232443128757591655e+00
2.232443128757591655e+00
2.232443128757591655e+00
2.242568437757499922e+00
2.242568437757499922e+00
2.242568437757499922e+00
2.261694021423993561e+00
2.261694021423993561e+00
2.261694021423993561e+00
2.377010040589617734e+00
2.377010040589617734e+00
2.377010040589617734e+00
2.377010040589617734e+00
2.284569719534897736e+00
2.284569719534897736e+00
2.284569719534897736e+00
2.259818964201788294e+00
2.259818964201788294e+00
2.259818964201788294e+00
2.255506332590716312e+00
2.255506332590716312e+00
2.255506332590716312e+00
2.255506332590716312e+00
2.293194982757042144e+00
2.293194982757042144e+00
2.293194982757042144e+00
2.162691000091555793e+00
2.162691000091555793e+00
2.162691000091555793e+00
2.162691000091555793e+00
2.236380748924222672e+00
2.236380748924222672e+00
2.236380748924222672e+00
2.490075991088595231e+00
2.490075991088595231e+00
2.490075991088595231e+00
2.297695120090334608e+00
2.297695120090334608e+00
2.297695120090334608e+00
2.297695120090334608e+00
2.254193792535172935e+00
2.254193792535172935e+00
2.254193792535172935e+00
2.240693380535294654e+00
2.240693380535294654e+00
2.240693380535294654e+00
2.224192876979888212e+00
2.224192876979888212e+00
2.224192876979888212e+00
2.224192876979888212e+00
2.244255989257484707e+00
2.244255989257484707e+00
2.244255989257484707e+00
2.266006653035065987e+00
2.266006653035065987e+00
2.266006653035065987e+00
2.358821985534226506e+00
2.358821985534226506e+00
2.358821985534226506e+00
2.261694021423993561e+00
2.261694021423993561e+00
2.261694021423993561e+00
2.261694021423993561e+00
2.238255806146427940e+00
2.238255806146427940e+00
2.238255806146427940e+00
2.262256538590655452e+00
2.262256538590655452e+00
2.262256538590655452e+00
2.253631275368511044e+00
2.253631275368511044e+00
2.253631275368511044e+00
2.253631275368511044e+00
2.131377544480727693e+00
2.131377544480727693e+00
2.131377544480727693e+00
2.311383037812433372e+00
2.311383037812433372e+00
2.311383037812433372e+00
2.311383037812433372e+00
2.429886654255806189e+00
2.429886654255806189e+00
2.429886654255806189e+00
2.262631550035096417e+00
2.262631550035096417e+00
2.262631550035096417e+00
2.254943815424054865e+00
2.254943815424054865e+00
2.254943815424054865e+00
2.236193243202001746e+00
2.236193243202001746e+00
2.236193243202001746e+00
2.236193243202001746e+00
2.225692922757652514e+00
2.225692922757652514e+00
2.225692922757652514e+00
2.257756401257362544e+00
2.257756401257362544e+00
2.257756401257362544e+00
2.257756401257362544e+00
2.318883266701254442e+00
2.318883266701254442e+00
2.318883266701254442e+00
2.341946470534379099e+00
2.341946470534379099e+00
2.341946470534379099e+00
2.262819055757316900e+00
2.262819055757316900e+00
2.262819055757316900e+00
2.262819055757316900e+00
2.246881069368571904e+00
2.246881069368571904e+00
2.246881069368571904e+00
2.275569444868312807e+00
2.275569444868312807e+00
2.275569444868312807e+00
2.216505142368846659e+00
2.216505142368846659e+00
2.216505142368846659e+00
2.216505142368846659e+00
2.161940977202673420e+00
2.161940977202673420e+00
2.161940977202673420e+00
2.434199285866878171e+00
2.434199285866878171e+00
2.434199285866878171e+00
2.369697317423017147e+00
2.369697317423017147e+00
2.369697317423017147e+00
2.369697317423017147e+00
2.260568987090670667e+00
2.260568987090670667e+00
2.260568987090670667e+00
2.254006286812952009e+00
2.254006286812952009e+00
2.254006286812952009e+00
2.232630634479812137e+00
2.232630634479812137e+00
2.232630634479812137e+00
2.232630634479812137e+00
2.240505874813074172e+00
2.240505874813074172e+00
2.240505874813074172e+00
2.259443952757347329e+00
2.259443952757347329e+00
2.259443952757347329e+00
2.336508804589983779e+00
2.336508804589983779e+00
2.336508804589983779e+00
2.336508804589983779e+00
2.282507156590471986e+00
2.282507156590471986e+00
2.282507156590471986e+00
2.252881252479629115e+00
2.252881252479629115e+00
2.252881252479629115e+00
2.252881252479629115e+00
2.253068758201849597e+00
2.253068758201849597e+00
2.253068758201849597e+00
2.290757408368175430e+00
2.290757408368175430e+00
2.290757408368175430e+00
2.177878963591417971e+00
2.177878963591417971e+00
2.177878963591417971e+00
2.177878963591417971e+00
2.180879055146946577e+00
2.180879055146946577e+00
2.180879055146946577e+00
2.489888485366374749e+00
2.489888485366374749e+00
2.489888485366374749e+00
2.308007934812463802e+00
2.308007934812463802e+00
2.308007934812463802e+00
2.308007934812463802e+00
2.245193517868587563e+00
2.245193517868587563e+00
2.245193517868587563e+00
2.242193426313058957e+00
2.242193426313058957e+00
2.242193426313058957e+00
2.218567705313272853e+00
2.218567705313272853e+00
2.218567705313272853e+00
2.234130680257575996e+00
2.234130680257575996e+00
2.234130680257575996e+00
2.234130680257575996e+00
2.259256447035126847e+00
2.259256447035126847e+00
2.259256447035126847e+00
2.376260017700735361e+00
2.376260017700735361e+00
2.376260017700735361e+00
2.376260017700735361e+00
2.274631916257209951e+00
2.274631916257209951e+00
2.274631916257209951e+00
2.250631183812982439e+00
2.250631183812982439e+00
2.250631183812982439e+00
2.254193792535172935e+00
2.254193792535172935e+00
2.254193792535172935e+00
2.254193792535172935e+00
2.268069215979491737e+00
2.268069215979491737e+00
2.268069215979491737e+00
2.142627887813959298e+00
2.142627887813959298e+00
2.142627887813959298e+00
2.260193975646229259e+00
2.260193975646229259e+00
2.260193975646229259e+00
2.260193975646229259e+00
2.467575304422132465e+00
2.467575304422132465e+00
2.467575304422132465e+00
2.273131870479445649e+00
2.273131870479445649e+00
2.273131870479445649e+00
2.257006378368480615e+00
2.257006378368480615e+00
2.257006378368480615e+00
2.257006378368480615e+00
2.229818048646504014e+00
2.229818048646504014e+00
2.229818048646504014e+00
2.235068208868678852e+00
2.235068208868678852e+00
2.235068208868678852e+00
2.274069399090548504e+00
2.274069399090548504e+00
2.274069399090548504e+00
2.274069399090548504e+00
2.320758323923459709e+00
2.320758323923459709e+00
2.320758323923459709e+00
2.384510269478438804e+00
2.384510269478438804e+00
2.384510269478438804e+00
2.270694296090578934e+00
2.270694296090578934e+00
2.270694296090578934e+00
2.270694296090578934e+00
2.253818781090731527e+00
2.253818781090731527e+00
2.253818781090731527e+00
2.272756859035004684e+00
2.272756859035004684e+00
2.272756859035004684e+00
2.243130954924161813e+00
2.243130954924161813e+00
2.243130954924161813e+00
2.243130954924161813e+00
2.154065736869411385e+00
2.154065736869411385e+00
2.154065736869411385e+00
2.368759788811914291e+00
2.368759788811914291e+00
2.368759788811914291e+00
2.403260841700491479e+00
2.403260841700491479e+00
2.403260841700491479e+00
2.403260841700491479e+00
2.251193700979644330e+00
2.251193700979644330e+00
2.251193700979644330e+00
2.232068117313150690e+00
2.232068117313150690e+00
2.232068117313150690e+00
2.215942625202185212e+00
2.215942625202185212e+00
2.215942625202185212e+00
2.215942625202185212e+00
2.213880062257759462e+00
2.213880062257759462e+00
2.213880062257759462e+00
2.244255989257484707e+00
2.244255989257484707e+00
2.244255989257484707e+00
2.318883266701254442e+00
2.318883266701254442e+00
2.318883266701254442e+00
2.318883266701254442e+00
2.318508255256813033e+00
2.318508255256813033e+00
2.318508255256813033e+00
2.260568987090670667e+00
2.260568987090670667e+00
2.260568987090670667e+00
2.255881344035157721e+00
2.255881344035157721e+00
2.255881344035157721e+00
2.255881344035157721e+00
2.280257087923826198e+00
2.280257087923826198e+00
2.280257087923826198e+00
2.201692190313425002e+00
2.201692190313425002e+00
2.201692190313425002e+00
2.151815668202764709e+00
2.151815668202764709e+00
2.151815668202764709e+00
2.151815668202764709e+00
2.465137730033265306e+00
2.465137730033265306e+00
2.465137730033265306e+00
2.352446790978728330e+00
2.352446790978728330e+00
2.352446790978728330e+00
2.352446790978728330e+00
2.256631366924039650e+00
2.256631366924039650e+00
2.256631366924039650e+00
2.249318643757439062e+00
2.249318643757439062e+00
2.249318643757439062e+00
2.230380565813165905e+00
2.230380565813165905e+00
2.230380565813165905e+00
2.230380565813165905e+00
2.243318460646382295e+00
2.243318460646382295e+00
2.243318460646382295e+00
2.258318918424023991e+00
2.258318918424023991e+00
2.258318918424023991e+00
2.366322214423047576e+00
2.366322214423047576e+00
2.366322214423047576e+00
2.366322214423047576e+00
2.291319925534837321e+00
2.291319925534837321e+00
2.291319925534837321e+00
2.257193884090700653e+00
2.257193884090700653e+00
2.257193884090700653e+00
2.253818781090731527e+00
2.253818781090731527e+00
2.253818781090731527e+00
2.253818781090731527e+00
2.287757316812646824e+00
2.287757316812646824e+00
2.287757316812646824e+00
2.145627979369487459e+00
2.145627979369487459e+00
2.145627979369487459e+00
2.197754570146794428e+00
2.197754570146794428e+00
2.197754570146794428e+00
2.197754570146794428e+00
2.488950956755272337e+00
2.488950956755272337e+00
2.488950956755272337e+00
2.308195440534684284e+00
2.308195440534684284e+00
2.308195440534684284e+00
2.253068758201849597e+00
2.253068758201849597e+00
2.253068758201849597e+00
2.253068758201849597e+00
2.233943174535355514e+00
2.233943174535355514e+00
2.233943174535355514e+00
2.210692464980010374e+00
2.210692464980010374e+00
2.210692464980010374e+00
2.247443586535233351e+00
2.247443586535233351e+00
2.247443586535233351e+00
2.247443586535233351e+00
2.270319284646137969e+00
2.270319284646137969e+00
2.270319284646137969e+00
2.378135074922940628e+00
2.378135074922940628e+00
2.378135074922940628e+00
2.268819238868374111e+00
2.268819238868374111e+00
2.268819238868374111e+00
2.268819238868374111e+00
2.255693838312936794e+00
2.255693838312936794e+00
2.255693838312936794e+00
2.262631550035096417e+00
2.262631550035096417e+00
2.262631550035096417e+00
2.257006378368480615e+00
2.257006378368480615e+00
2.257006378368480615e+00
2.257006378368480615e+00
2.146940519425031280e+00
2.146940519425031280e+00
2.146940519425031280e+00
2.309132969145787140e+00
2.309132969145787140e+00
2.309132969145787140e+00
2.309132969145787140e+00
2.449199743644520311e+00
2.449199743644520311e+00
2.449199743644520311e+00
2.276694479201635701e+00
2.276694479201635701e+00
2.276694479201635701e+00
2.250443678090761956e+00
2.250443678090761956e+00
2.250443678090761956e+00
2.250443678090761956e+00
2.230380565813165905e+00
2.230380565813165905e+00
2.230380565813165905e+00
2.222880336924344391e+00
2.222880336924344391e+00
2.222880336924344391e+00
2.251381206701864812e+00
2.251381206701864812e+00
2.251381206701864812e+00
2.251381206701864812e+00
2.301820245979186552e+00
2.301820245979186552e+00
2.301820245979186552e+00
2.343259010589922919e+00
2.343259010589922919e+00
2.343259010589922919e+00
2.258693929868464956e+00
2.258693929868464956e+00
2.258693929868464956e+00
2.258693929868464956e+00
2.245943540757469048e+00
2.245943540757469048e+00
2.245943540757469048e+00
2.271631824701681346e+00
2.271631824701681346e+00
2.271631824701681346e+00
2.218567705313272853e+00
2.218567705313272853e+00
2.218567705313272853e+00
2.218567705313272853e+00
2.132502578814050587e+00
2.132502578814050587e+00
2.132502578814050587e+00
2.399135715811639535e+00
2.399135715811639535e+00
2.399135715811639535e+00
2.381697683645130681e+00
2.381697683645130681e+00
2.381697683645130681e+00
2.381697683645130681e+00
2.260756492812891150e+00
2.260756492812891150e+00
2.260756492812891150e+00
2.250068666646320992e+00
2.250068666646320992e+00
2.250068666646320992e+00
2.221380291146580532e+00
2.221380291146580532e+00
2.221380291146580532e+00
2.221380291146580532e+00
2.224380382702108694e+00
2.224380382702108694e+00
2.224380382702108694e+00
2.254381298257393418e+00
2.254381298257393418e+00
2.254381298257393418e+00
2.340071413312173831e+00
2.340071413312173831e+00
2.340071413312173831e+00
2.340071413312173831e+00
2.308007934812463802e+00
2.308007934812463802e+00
2.308007934812463802e+00
2.258693929868464956e+00
2.258693929868464956e+00
2.258693929868464956e+00
2.258693929868464956e+00
2.246693563646351421e+00
2.246693563646351421e+00
2.246693563646351421e+00
2.278007019257179522e+00
2.278007019257179522e+00
2.278007019257179522e+00
2.179941526535844165e+00
2.179941526535844165e+00
2.179941526535844165e+00
2.179941526535844165e+00
2.163253517258217240e+00
2.163253517258217240e+00
2.163253517258217240e+00
2.493638599810785283e+00
2.493638599810785283e+00
2.493638599810785283e+00
2.331633655812249906e+00
2.331633655812249906e+00
2.331633655812249906e+00
2.331633655812249906e+00
2.258693929868464956e+00
2.258693929868464956e+00
2.258693929868464956e+00
2.254943815424054865e+00
2.254943815424054865e+00
2.254943815424054865e+00
2.232068117313150690e+00
2.232068117313150690e+00
2.232068117313150690e+00
2.232068117313150690e+00
2.247818597979674760e+00
2.247818597979674760e+00
2.247818597979674760e+00
2.260943998535111632e+00
2.260943998535111632e+00
2.260943998535111632e+00
2.388260383922848895e+00
2.388260383922848895e+00
2.388260383922848895e+00
2.388260383922848895e+00
2.293757499923703591e+00
2.293757499923703591e+00
2.293757499923703591e+00
2.264506607257301685e+00
2.264506607257301685e+00
2.264506607257301685e+00
2.250818689535202921e+00
2.250818689535202921e+00
2.250818689535202921e+00
2.250818689535202921e+00
2.282882168034912951e+00
2.282882168034912951e+00
2.282882168034912951e+00
2.143940427869502674e+00
2.143940427869502674e+00
2.143940427869502674e+00
2.240318369090853690e+00
2.240318369090853690e+00
2.240318369090853690e+00
2.240318369090853690e+00
2.474888027588732609e+00
2.474888027588732609e+00
2.474888027588732609e+00
2.285319742423780109e+00
2.285319742423780109e+00
2.285319742423780109e+00
2.250068666646320992e+00
2.250068666646320992e+00
2.250068666646320992e+00
2.250068666646320992e+00
2.232818140202032620e+00
2.232818140202032620e+00
2.232818140202032620e+00
2.228505508590960638e+00
2.228505508590960638e+00
2.228505508590960638e+00
2.260756492812891150e+00
2.260756492812891150e+00
2.260756492812891150e+00
2.260756492812891150e+00
2.284944730979339145e+00
2.284944730979339145e+00
2.284944730979339145e+00
2.367072237311929506e+00
2.367072237311929506e+00
2.367072237311929506e+00
2.367072237311929506e+00
2.260381481368449741e+00
2.260381481368449741e+00
2.260381481368449741e+00
2.215942625202185212e+00
2.215942625202185212e+00
2.215942625202185212e+00
2.250443678090761956e+00
2.250443678090761956e+00
2.250443678090761956e+00
2.250443678090761956e+00
2.232443128757591655e+00
2.232443128757591655e+00
2.232443128757591655e+00
2.127814935758537640e+00
2.127814935758537640e+00
2.127814935758537640e+00
2.319445783867915889e+00
2.319445783867915889e+00
2.319445783867915889e+00
2.319445783867915889e+00
2.422948942533646566e+00
2.422948942533646566e+00
2.422948942533646566e+00
2.274256904812768987e+00
2.274256904812768987e+00
2.274256904812768987e+00
2.253068758201849597e+00
2.253068758201849597e+00
2.253068758201849597e+00
2.253068758201849597e+00
2.230755577257606870e+00
2.230755577257606870e+00
2.230755577257606870e+00
2.222880336924344391e+00
2.222880336924344391e+00
2.222880336924344391e+00
2.257193884090700653e+00
2.257193884090700653e+00
2.257193884090700653e+00
2.257193884090700653e+00
2.324695944090090727e+00
2.324695944090090727e+00
2.324695944090090727e+00
2.342321481978820064e+00
2.342321481978820064e+00
2.342321481978820064e+00
2.342321481978820064e+00
2.269381756035035114e+00
2.269381756035035114e+00
2.269381756035035114e+00
2.252881252479629115e+00
2.252881252479629115e+00
2.252881252479629115e+00
2.285694753868221074e+00
2.285694753868221074e+00
2.285694753868221074e+00
2.285694753868221074e+00
2.221567796868801015e+00
2.221567796868801015e+00
2.221567796868801015e+00
2.148253059480575100e+00
2.148253059480575100e+00
2.148253059480575100e+00
2.444137089144566399e+00
2.444137089144566399e+00
2.356384411145359792e+00
2.356384411145359792e+00
2.259631458479567812e+00
2.259631458479567812e+00
2.249881160924100509e+00
2.249881160924100509e+00
2.220630268257698603e+00
2.220630268257698603e+00
2.233943174535355514e+00
2.233943174535355514e+00
2.251381206701864812e+00
2.251381206701864812e+00
2.251381206701864812e+00
2.369884823145237629e+00
2.369884823145237629e+00
2.298445142979216982e+00
2.298445142979216982e+00
2.262444044312875935e+00
2.262444044312875935e+00
2.254006286812952009e+00
2.254006286812952009e+00
2.288132328257088233e+00
2.288132328257088233e+00
2.168316171758171151e+00
2.168316171758171151e+00
2.179379009369182274e+00
2.179379009369182274e+00
2.179379009369182274e+00
2.479200659199805035e+00
2.479200659199805035e+00
2.301632740256966070e+00
2.301632740256966070e+00
2.257568895535142062e+00
2.257568895535142062e+00
2.249881160924100509e+00
2.249881160924100509e+00
2.227755485702078264e+00
2.227755485702078264e+00
2.245568529313028083e+00
2.245568529313028083e+00
2.269006744590594149e+00
2.269006744590594149e+00
2.384322763756218322e+00
2.384322763756218322e+00
2.384322763756218322e+00
2.278382030701620931e+00
2.278382030701620931e+00
2.256443861201819168e+00
2.256443861201819168e+00
2.255693838312936794e+00
2.255693838312936794e+00
2.269569261757255596e+00
2.269569261757255596e+00
2.137002716147343495e+00
2.137002716147343495e+00
2.271069307535019899e+00
2.271069307535019899e+00
2.450512283700064131e+00
2.450512283700064131e+00
2.285132236701559627e+00
2.285132236701559627e+00
2.285132236701559627e+00
2.266381664479506952e+00
2.266381664479506952e+00
2.245756035035248566e+00
2.245756035035248566e+00
2.216692648091067142e+00
2.216692648091067142e+00
2.234130680257575996e+00
2.234130680257575996e+00
2.280632099368266719e+00
2.280632099368266719e+00
2.334071230201117064e+00
2.334071230201117064e+00
2.250818689535202921e+00
2.250818689535202921e+00
2.236943266090884119e+00
2.236943266090884119e+00
2.236943266090884119e+00
2.259443952757347329e+00
2.259443952757347329e+00
2.222505325479903426e+00
2.222505325479903426e+00
2.147690542313913653e+00
2.147690542313913653e+00
2.399323221533860018e+00
2.399323221533860018e+00
2.410761070589312105e+00
2.410761070589312105e+00
2.274819421979430434e+00
2.274819421979430434e+00
2.261131504257332114e+00
2.261131504257332114e+00
2.233943174535355514e+00
2.233943174535355514e+00
2.223817865535447247e+00
2.223817865535447247e+00
2.223817865535447247e+00
2.250068666646320992e+00
2.250068666646320992e+00
2.329946104312265120e+00
2.329946104312265120e+00
2.323758415478988315e+00
2.323758415478988315e+00
2.269944273201696561e+00
2.269944273201696561e+00
2.265069124423963132e+00
2.265069124423963132e+00
2.300320200201422249e+00
2.300320200201422249e+00
2.194754478591265823e+00
2.194754478591265823e+00
2.155378276924954761e+00
2.155378276924954761e+00
2.481075716422009858e+00
2.481075716422009858e+00
2.481075716422009858e+00
2.332946195867793726e+00
2.332946195867793726e+00
2.246506057924130939e+00
2.246506057924130939e+00
2.237880794701986531e+00
2.237880794701986531e+00
2.207692373424482213e+00
2.207692373424482213e+00
2.217630176702169997e+00
2.217630176702169997e+00
2.239755851924192243e+00
2.239755851924192243e+00
2.356571916867580274e+00
2.356571916867580274e+00
2.281382122257148648e+00
2.281382122257148648e+00
2.281382122257148648e+00
2.258318918424023991e+00
2.258318918424023991e+00
2.268069215979491737e+00
2.268069215979491737e+00
2.300320200201422249e+00
2.300320200201422249e+00
2.172816309091464060e+00
2.172816309091464060e+00
2.234318185979796478e+00
2.234318185979796478e+00
2.501326334421826836e+00
2.501326334421826836e+00
2.305945371868038052e+00
2.305945371868038052e+00
2.270319284646137969e+00
2.270319284646137969e+00
2.270319284646137969e+00
2.245381023590808045e+00
2.245381023590808045e+00
2.205629810480056463e+00
2.205629810480056463e+00
2.218567705313272853e+00
2.218567705313272853e+00
2.254006286812952009e+00
2.254006286812952009e+00
2.368197271645252844e+00
2.368197271645252844e+00
2.254568803979613900e+00
2.254568803979613900e+00
2.246693563646351421e+00
2.246693563646351421e+00
2.265069124423963132e+00
2.265069124423963132e+00
2.275381939146092325e+00
2.275381939146092325e+00
2.172816309091464060e+00
2.172816309091464060e+00
2.352634296700948813e+00
2.352634296700948813e+00
2.352634296700948813e+00
2.456887478255561863e+00
2.456887478255561863e+00
2.265069124423963132e+00
2.265069124423963132e+00
2.229068025757622085e+00
2.229068025757622085e+00
2.184254158146916147e+00
2.184254158146916147e+00
2.192504409924619146e+00
2.192504409924619146e+00
2.212755027924436124e+00
2.212755027924436124e+00
2.279132053590502860e+00
2.279132053590502860e+00
2.326946012756737403e+00
2.326946012756737403e+00
2.256631366924039650e+00
2.256631366924039650e+00
2.251756218146305777e+00
2.251756218146305777e+00
2.251756218146305777e+00
2.279132053590502860e+00
2.279132053590502860e+00
2.217817682424390480e+00
2.217817682424390480e+00
2.150503128147221332e+00
2.150503128147221332e+00
2.439261940366832526e+00
2.439261940366832526e+00
2.385260292367321178e+00
2.385260292367321178e+00
2.263569078646198829e+00
2.263569078646198829e+00
2.258131412701803509e+00
2.258131412701803509e+00
2.231318094424268317e+00
2.231318094424268317e+00
2.231318094424268317e+00
2.239755851924192243e+00
2.239755851924192243e+00
2.273319376201666131e+00
2.273319376201666131e+00
2.357134434034241721e+00
2.357134434034241721e+00
2.313445600756859122e+00
2.313445600756859122e+00
2.267694204535050773e+00
2.267694204535050773e+00
2.236193243202001746e+00
2.236193243202001746e+00
2.241818414868617992e+00
2.241818414868617992e+00
2.144315439313944083e+00
2.144315439313944083e+00
2.144315439313944083e+00
2.167941160313730187e+00
2.167941160313730187e+00
2.520451918088320475e+00
2.520451918088320475e+00
2.305757866145817125e+00
2.305757866145817125e+00
2.221192785424360050e+00
2.221192785424360050e+00
2.229818048646504014e+00
2.229818048646504014e+00
2.199254615924558287e+00
2.199254615924558287e+00
2.207317361980041248e+00
2.207317361980041248e+00
2.228318002868740155e+00
2.228318002868740155e+00
2.228318002868740155e+00
2.370822351756340485e+00
2.370822351756340485e+00
2.273319376201666131e+00
2.273319376201666131e+00
2.243505966368602778e+00
2.243505966368602778e+00
2.248756126590777171e+00
2.248756126590777171e+00
2.271256813257240381e+00
2.271256813257240381e+00
2.130627521591845319e+00
2.130627521591845319e+00
2.269756767479476078e+00
2.269756767479476078e+00
2.500388805810724424e+00
2.500388805810724424e+00
2.500388805810724424e+00
2.312320566423536228e+00
2.312320566423536228e+00
2.280069582201605716e+00
2.280069582201605716e+00
2.240318369090853690e+00
2.240318369090853690e+00
2.219692739646595747e+00
2.219692739646595747e+00
2.215567613757744247e+00
2.215567613757744247e+00
2.250256172368541474e+00
2.250256172368541474e+00
2.345321573534348669e+00
2.345321573534348669e+00
2.273319376201666131e+00
2.273319376201666131e+00
2.280819605090487201e+00
2.280819605090487201e+00
2.280819605090487201e+00
2.314008117923521013e+00
2.314008117923521013e+00
2.275569444868312807e+00
2.275569444868312807e+00
2.154065736869411385e+00
2.154065736869411385e+00
2.367822260200811879e+00
2.367822260200811879e+00
2.414136173589282119e+00
2.414136173589282119e+00
2.252693746757408633e+00
2.252693746757408633e+00
2.258881435590685438e+00
2.258881435590685438e+00
2.245756035035248566e+00
2.245756035035248566e+00
2.259818964201788294e+00
2.259818964201788294e+00
2.285132236701559627e+00
2.285132236701559627e+00
2.285132236701559627e+00
2.336883816034425188e+00
2.336883816034425188e+00
2.312508072145756710e+00
2.312508072145756710e+00
2.224005371257667729e+00
2.224005371257667729e+00
2.198504593035676358e+00
2.198504593035676358e+00
2.220067751091036712e+00
2.220067751091036712e+00
2.152565691091647082e+00
2.152565691091647082e+00
2.137565233314004942e+00
2.137565233314004942e+00
2.137565233314004942e+00
2.477888119144261214e+00
2.477888119144261214e+00
2.376635029145176325e+00
2.376635029145176325e+00
2.297695120090334608e+00
2.297695120090334608e+00
2.269756767479476078e+00
2.269756767479476078e+00
2.213692556535538980e+00
2.213692556535538980e+00
2.215380108035523765e+00
2.215380108035523765e+00
2.254381298257393418e+00
2.254381298257393418e+00
2.373822443311869090e+00
2.373822443311869090e+00
2.373822443311869090e+00
2.296382580034791232e+00
2.296382580034791232e+00
2.247631092257453833e+00
2.247631092257453833e+00
2.205629810480056463e+00
2.205629810480056463e+00
2.232630634479812137e+00
2.232630634479812137e+00
2.109439374980925930e+00
2.109439374980925930e+00
2.153878231147190458e+00
2.153878231147190458e+00
2.484263313699758946e+00
2.484263313699758946e+00
2.331821161534470832e+00
2.331821161534470832e+00
2.295257545701467894e+00
2.295257545701467894e+00
2.295257545701467894e+00
2.280069582201605716e+00
2.280069582201605716e+00
2.254568803979613900e+00
2.254568803979613900e+00
2.291319925534837321e+00
2.291319925534837321e+00
2.333883724478896582e+00
2.333883724478896582e+00
2.442262031922361132e+00
2.442262031922361132e+00
2.290757408368175430e+00
2.290757408368175430e+00
2.239193334757530351e+00
2.239193334757530351e+00
2.221755302591021497e+00
2.221755302591021497e+00
2.221755302591021497e+00
2.237318277535325084e+00
2.237318277535325084e+00
2.161940977202673420e+00
2.161940977202673420e+00
2.289632374034852091e+00
2.289632374034852091e+00
2.404948393200476264e+00
2.404948393200476264e+00
2.280069582201605716e+00
2.280069582201605716e+00
2.314945646534623425e+00
2.314945646534623425e+00
2.306695394756919981e+00
2.306695394756919981e+00
2.308945463423566213e+00
2.308945463423566213e+00
2.308945463423566213e+00
2.301820245979186552e+00
2.301820245979186552e+00
2.327508529923398850e+00
2.327508529923398850e+00
2.329008575701162709e+00
2.329008575701162709e+00
2.214067567979979945e+00
2.214067567979979945e+00
2.150503128147221332e+00
2.150503128147221332e+00
2.167378643147068740e+00
2.167378643147068740e+00
2.164191045869319652e+00
2.164191045869319652e+00
2.164191045869319652e+00
2.140190313425092139e+00
2.140190313425092139e+00
2.443574571977904952e+00
2.443574571977904952e+00
2.419011322367015993e+00
2.419011322367015993e+00
2.300507705923642732e+00
2.300507705923642732e+00
2.295820062868129341e+00
2.295820062868129341e+00
2.281007110812707683e+00
2.281007110812707683e+00
2.292069948423719250e+00
2.292069948423719250e+00
2.310633014923550999e+00
2.310633014923550999e+00
2.351696768089846401e+00
2.351696768089846401e+00
2.351696768089846401e+00
2.290757408368175430e+00
2.290757408368175430e+00
2.221567796868801015e+00
2.221567796868801015e+00
2.201879696035645484e+00
2.201879696035645484e+00
2.235443220313119816e+00
2.235443220313119816e+00
2.150128116702780368e+00
2.150128116702780368e+00
2.128564958647419569e+00
2.128564958647419569e+00
2.464012695699941968e+00
2.464012695699941968e+00
2.464012695699941968e+00
2.324508438367870244e+00
2.324508438367870244e+00
2.262631550035096417e+00
2.262631550035096417e+00
2.251381206701864812e+00
2.251381206701864812e+00
2.214630085146641392e+00
2.214630085146641392e+00
2.224005371257667729e+00
2.224005371257667729e+00
2.262069032868434526e+00
2.262069032868434526e+00
2.417136265144810281e+00
2.417136265144810281e+00
2.336321298867763296e+00
2.336321298867763296e+00
2.345696584978789634e+00
2.345696584978789634e+00
2.345696584978789634e+00
2.364447157200842309e+00
2.364447157200842309e+00
2.360697042756431774e+00
2.360697042756431774e+00
2.188566789757988129e+00
2.188566789757988129e+00
2.228318002868740155e+00
2.228318002868740155e+00
2.466825281533250092e+00
2.466825281533250092e+00
2.203942258980071234e+00
2.203942258980071234e+00
2.185754203924680450e+00
2.185754203924680450e+00
2.190629352702413879e+00
2.190629352702413879e+00
2.190629352702413879e+00
2.205817316202276945e+00
2.205817316202276945e+00
2.265444135868404540e+00
2.265444135868404540e+00
2.307445417645802355e+00
2.307445417645802355e+00
2.401573290200506694e+00
2.401573290200506694e+00
2.284382213812677254e+00
2.284382213812677254e+00
2.264881618701742649e+00
2.264881618701742649e+00
2.276131962034974254e+00
2.276131962034974254e+00
2.270319284646137969e+00
2.270319284646137969e+00
2.270319284646137969e+00
2.161190954313791490e+00
2.161190954313791490e+00
2.335571275978881367e+00
2.335571275978881367e+00
2.442262031922361132e+00
2.442262031922361132e+00
2.317758232367931104e+00
2.317758232367931104e+00
2.266756675923947917e+00
2.266756675923947917e+00
2.182941618091372327e+00
2.182941618091372327e+00
2.131752555925168657e+00
2.131752555925168657e+00
2.138127750480666833e+00
2.138127750480666833e+00
2.138127750480666833e+00
2.205442304757835537e+00
2.205442304757835537e+00
2.257193884090700653e+00
2.257193884090700653e+00
2.200004638813440216e+00
2.200004638813440216e+00
2.196067018646809643e+00
2.196067018646809643e+00
2.231505600146489243e+00
2.231505600146489243e+00
2.170378734702597345e+00
2.170378734702597345e+00
2.073438276314584883e+00
2.073438276314584883e+00
2.332571184423352761e+00
2.332571184423352761e+00
2.332571184423352761e+00
2.225505417035432032e+00
2.225505417035432032e+00
2.164378551591540134e+00
2.164378551591540134e+00
2.218942716757713818e+00
2.218942716757713818e+00
2.265069124423963132e+00
2.265069124423963132e+00
2.328071047090059853e+00
2.328071047090059853e+00
2.363884640034180418e+00
2.363884640034180418e+00
2.490451002533036640e+00
2.490451002533036640e+00
2.415636219367045978e+00
2.415636219367045978e+00
2.321695852534562121e+00
2.321695852534562121e+00
2.321695852534562121e+00
2.280632099368266719e+00
2.280632099368266719e+00
2.256631366924039650e+00
2.256631366924039650e+00
2.078500930814539238e+00
2.078500930814539238e+00
2.089001251258888470e+00
2.089001251258888470e+00
2.479013153477584552e+00
2.479013153477584552e+00
2.321133335367900674e+00
2.321133335367900674e+00
2.280069582201605716e+00
2.280069582201605716e+00
2.262256538590655452e+00
2.262256538590655452e+00
2.262256538590655452e+00
2.248006103701895242e+00
2.248006103701895242e+00
2.264881618701742649e+00
2.264881618701742649e+00
2.305570360423596643e+00
2.305570360423596643e+00
2.463825189977721486e+00
2.463825189977721486e+00
2.390697958311716054e+00
2.390697958311716054e+00
2.394635578478347071e+00
2.394635578478347071e+00
2.356946928312021239e+00
2.356946928312021239e+00
2.302007751701407035e+00
2.302007751701407035e+00
2.302007751701407035e+00
2.106439283425397324e+00
2.106439283425397324e+00
2.215755119479964730e+00
2.215755119479964730e+00
2.412073610644855925e+00
2.412073610644855925e+00
2.233193151646474028e+00
2.233193151646474028e+00
2.226817957090975852e+00
2.226817957090975852e+00
2.200192144535660699e+00
2.200192144535660699e+00
2.212755027924436124e+00
2.212755027924436124e+00
2.303882808923612302e+00
2.303882808923612302e+00
2.303882808923612302e+00
2.401010773033844803e+00
2.401010773033844803e+00
2.527389629810480098e+00
2.527389629810480098e+00
2.443574571977904952e+00
2.443574571977904952e+00
2.370259834589678594e+00
2.370259834589678594e+00
2.264506607257301685e+00
2.264506607257301685e+00
2.146190496536149350e+00
2.146190496536149350e+00
2.038374706259346247e+00
2.038374706259346247e+00
2.263569078646198829e+00
2.263569078646198829e+00
2.263569078646198829e+00
2.276881984923856628e+00
2.276881984923856628e+00
2.140940336313974068e+00
2.140940336313974068e+00
2.147690542313913653e+00
2.147690542313913653e+00
2.127252418591876193e+00
2.127252418591876193e+00
2.079625965147862576e+00
2.079625965147862576e+00
2.104751731925412539e+00
2.104751731925412539e+00
2.205067293313394572e+00
2.205067293313394572e+00
2.238630817590868904e+00
2.238630817590868904e+00
2.175441389202551257e+00
2.175441389202551257e+00
2.178628986480300345e+00
2.178628986480300345e+00
2.178628986480300345e+00
2.257193884090700653e+00
2.257193884090700653e+00
2.230005554368724940e+00
2.230005554368724940e+00
2.277069490646077110e+00
2.277069490646077110e+00
2.708707663197729598e+00
2.708707663197729598e+00
2.566203314310129269e+00
2.566203314310129269e+00
2.400635761589403838e+00
2.400635761589403838e+00
2.368197271645252844e+00
2.368197271645252844e+00
2.273506881923887057e+00
2.273506881923887057e+00
2.273506881923887057e+00
2.204692281868953607e+00
2.204692281868953607e+00
2.166441114535965884e+00
2.166441114535965884e+00
2.255131321146275347e+00
2.255131321146275347e+00
2.171503769035920239e+00
2.171503769035920239e+00
2.097814020203253360e+00
2.097814020203253360e+00
2.085626148258918899e+00
2.085626148258918899e+00
2.177316446424756524e+00
2.177316446424756524e+00
2.098751548814355772e+00
2.098751548814355772e+00
2.098751548814355772e+00
2.162503494369335311e+00
2.162503494369335311e+00
2.475638050477614982e+00
2.475638050477614982e+00
2.346446607867672007e+00
2.346446607867672007e+00
2.338008850367748082e+00
2.338008850367748082e+00
2.328071047090059853e+00
2.328071047090059853e+00
2.328633564256721744e+00
2.328633564256721744e+00
2.394073061311685624e+00
2.394073061311685624e+00
2.394073061311685624e+00
2.443949583422345917e+00
2.443949583422345917e+00
2.492513565477461945e+00
2.492513565477461945e+00
2.335196264534440402e+00
2.335196264534440402e+00
2.333696218756676100e+00
2.333696218756676100e+00
2.397448164311655194e+00
2.397448164311655194e+00
2.409261024811548246e+00
2.409261024811548246e+00
2.200754661702322146e+00
2.200754661702322146e+00
2.268444227423932702e+00
2.268444227423932702e+00
2.316070680867946319e+00
2.316070680867946319e+00
2.316070680867946319e+00
2.094063905758842381e+00
2.094063905758842381e+00
2.095563951536606684e+00
2.095563951536606684e+00
2.124814844203009478e+00
2.124814844203009478e+00
2.187441755424664791e+00
2.187441755424664791e+00
2.299570177312540320e+00
2.299570177312540320e+00
2.407948484756004870e+00
2.407948484756004870e+00
2.470200384533219218e+00
2.470200384533219218e+00
2.387135349589526001e+00
2.387135349589526001e+00
2.387135349589526001e+00
2.273319376201666131e+00
2.273319376201666131e+00
2.222130314035462462e+00
2.222130314035462462e+00
2.082251045258949329e+00
2.082251045258949329e+00
1.946121890926847176e+00
1.946121890926847176e+00
2.226255439924313961e+00
2.226255439924313961e+00
2.180879055146946577e+00
2.180879055146946577e+00
2.095001434369945237e+00
2.095001434369945237e+00
2.094438917203283790e+00
2.094438917203283790e+00
2.094438917203283790e+00
2.107001800592058771e+00
2.107001800592058771e+00
2.132127567369609622e+00
2.132127567369609622e+00
2.189316812646870059e+00
2.189316812646870059e+00
2.308007934812463802e+00
2.308007934812463802e+00
2.296007568590349823e+00
2.296007568590349823e+00
2.331071138645588459e+00
2.331071138645588459e+00
2.401198278756065729e+00
2.401198278756065729e+00
2.425949034089175171e+00
2.425949034089175171e+00
2.425949034089175171e+00
2.329196081423383191e+00
2.329196081423383191e+00
2.339508896145511940e+00
2.339508896145511940e+00
2.634455397198400828e+00
2.634455397198400828e+00
2.381135166478469234e+00
2.381135166478469234e+00
2.177691457869197489e+00
2.177691457869197489e+00
2.074375804925687294e+00
2.074375804925687294e+00
2.047187475203710694e+00
2.047187475203710694e+00
2.047187475203710694e+00
2.116189580980865070e+00
2.116189580980865070e+00
2.169066194647053525e+00
2.169066194647053525e+00
2.347196630756553937e+00
2.347196630756553937e+00
2.194004455702383449e+00
2.194004455702383449e+00
2.198129581591235393e+00
2.198129581591235393e+00
2.290569902645954947e+00
2.290569902645954947e+00
2.456699972533341381e+00
2.456699972533341381e+00
2.401385784478286212e+00
2.401385784478286212e+00
2.401385784478286212e+00
2.547077730643635629e+00
2.547077730643635629e+00
2.756146610919522733e+00
2.756146610919522733e+00
2.537514938810388809e+00
2.537514938810388809e+00
2.399698232978301426e+00
2.399698232978301426e+00
2.225130405590991067e+00
2.225130405590991067e+00
2.131565050202948175e+00
2.131565050202948175e+00
2.101001617481002448e+00
2.101001617481002448e+00
2.153503219702749494e+00
2.153503219702749494e+00
2.266381664479506952e+00
2.266381664479506952e+00
2.241068391979735619e+00
2.241068391979735619e+00
2.241068391979735619e+00
2.263569078646198829e+00
2.263569078646198829e+00
2.273506881923887057e+00
2.273506881923887057e+00
2.198317087313455875e+00
2.198317087313455875e+00
2.102126651814325342e+00
2.102126651814325342e+00
2.239755851924192243e+00
2.239755851924192243e+00
2.190629352702413879e+00
2.190629352702413879e+00
2.018311593981750196e+00
2.018311593981750196e+00
2.106814294869838289e+00
2.106814294869838289e+00
2.106814294869838289e+00
2.209192419202246516e+00
2.209192419202246516e+00
2.274256904812768987e+00
2.274256904812768987e+00
2.252506241035188150e+00
2.252506241035188150e+00
2.371759880367442896e+00
2.371759880367442896e+00
2.432699240089114312e+00
2.432699240089114312e+00
2.518014343699453761e+00
2.518014343699453761e+00
2.545390179143650844e+00
2.545390179143650844e+00
2.500388805810724424e+00
2.500388805810724424e+00
2.321695852534562121e+00
2.321695852534562121e+00
2.321695852534562121e+00
2.216880153813287624e+00
2.216880153813287624e+00
2.480513199255348411e+00
2.480513199255348411e+00
2.372697408978545752e+00
2.372697408978545752e+00
2.245568529313028083e+00
2.245568529313028083e+00
2.193629444257942485e+00
2.193629444257942485e+00
2.142252876369517889e+00
2.142252876369517889e+00
2.045499923703726353e+00
2.045499923703726353e+00
1.940121707815790408e+00
1.940121707815790408e+00
1.940121707815790408e+00
2.003498641926328094e+00
2.003498641926328094e+00
1.914620929593798593e+00
1.914620929593798593e+00
1.868494521927549057e+00
1.868494521927549057e+00
1.979310403759880321e+00
1.979310403759880321e+00
2.179191503646961792e+00
2.179191503646961792e+00
2.131002533036286284e+00
2.131002533036286284e+00
2.183504135258034218e+00
2.183504135258034218e+00
2.449012237922299828e+00
2.449012237922299828e+00
2.334446241645558029e+00
2.334446241645558029e+00
2.334446241645558029e+00
2.318883266701254442e+00
2.318883266701254442e+00
2.221942808313242423e+00
2.221942808313242423e+00
2.109251869258705447e+00
2.109251869258705447e+00
2.122002258369701355e+00
2.122002258369701355e+00
2.274069399090548504e+00
2.274069399090548504e+00
2.584953886532181944e+00
2.584953886532181944e+00
2.658831141087069305e+00
2.658831141087069305e+00
2.720520523697622650e+00
2.720520523697622650e+00
2.720520523697622650e+00
2.693144688253425567e+00
2.693144688253425567e+00
2.632392834253975078e+00
2.632392834253975078e+00
2.466075258644368162e+00
2.466075258644368162e+00
2.517826837977233279e+00
2.517826837977233279e+00
2.569015900143436948e+00
2.569015900143436948e+00
2.332383678701132279e+00
2.332383678701132279e+00
2.213880062257759462e+00
2.213880062257759462e+00
2.068375621814630971e+00
2.068375621814630971e+00
2.068375621814630971e+00
2.018686605426191161e+00
2.018686605426191161e+00
2.084313608203375079e+00
2.084313608203375079e+00
2.206754844813379357e+00
2.206754844813379357e+00
2.221755302591021497e+00
2.221755302591021497e+00
2.066500564592425260e+00
2.066500564592425260e+00
2.022811731315042216e+00
2.022811731315042216e+00
2.057312784203619849e+00
2.057312784203619849e+00
2.057312784203619849e+00
2.063312967314676172e+00
2.063312967314676172e+00
2.069500656147953865e+00
2.069500656147953865e+00
2.337446333201086635e+00
2.337446333201086635e+00
2.277632007812738557e+00
2.277632007812738557e+00
2.128752464369640052e+00
2.128752464369640052e+00
2.320945829645680192e+00
2.320945829645680192e+00
2.330696127201147494e+00
2.330696127201147494e+00
2.137565233314004942e+00
2.137565233314004942e+00
2.137565233314004942e+00
2.068188116092410045e+00
2.068188116092410045e+00
2.124439832758568070e+00
2.124439832758568070e+00
2.006873744926298109e+00
2.006873744926298109e+00
1.956434705648976147e+00
1.956434705648976147e+00
2.122377269814142320e+00
2.122377269814142320e+00
2.323383404034546906e+00
2.323383404034546906e+00
2.366509720145268059e+00
2.366509720145268059e+00
2.601079378643146978e+00
2.601079378643146978e+00
2.601079378643146978e+00
2.960527848139897333e+00
2.960527848139897333e+00
2.610454664754173315e+00
2.610454664754173315e+00
2.427824091311380439e+00
2.427824091311380439e+00
2.427261574144718992e+00
2.427261574144718992e+00
2.371759880367442896e+00
2.371759880367442896e+00
2.294882534257026929e+00
2.294882534257026929e+00
2.176191412091433186e+00
2.176191412091433186e+00
2.247443586535233351e+00
2.247443586535233351e+00
1.923996215704825152e+00
1.923996215704825152e+00
1.568672872096926740e+00
1.568672872096926740e+00
1.568672872096926740e+00
1.534359324930570256e+00
1.534359324930570256e+00
1.772304086428418968e+00
1.772304086428418968e+00
1.735177953428754583e+00
1.735177953428754583e+00
1.979685415204321286e+00
1.979685415204321286e+00
2.194941984313486305e+00
2.194941984313486305e+00
1.961309854426709798e+00
1.961309854426709798e+00
2.252881252479629115e+00
2.252881252479629115e+00
2.636892971587267542e+00
2.636892971587267542e+00
2.636892971587267542e+00
2.708332651753288634e+00
2.708332651753288634e+00
2.668581438642536607e+00
2.668581438642536607e+00
2.641018097476119486e+00
2.641018097476119486e+00
2.718270455030976418e+00
2.718270455030976418e+00
2.715832880642109259e+00
2.715832880642109259e+00
2.761584276863917609e+00
2.761584276863917609e+00
2.742083681752983004e+00
2.742083681752983004e+00
2.572391003143406518e+00
2.572391003143406518e+00
2.572391003143406518e+00
2.390510452589495571e+00
2.390510452589495571e+00
2.635205420087282757e+00
2.635205420087282757e+00
2.596954252754295922e+00
2.596954252754295922e+00
2.278382030701620931e+00
2.278382030701620931e+00
2.135127658925138228e+00
2.135127658925138228e+00
1.863056855983153737e+00
1.863056855983153737e+00
1.665800836207159685e+00
1.665800836207159685e+00
1.665800836207159685e+00
1.726927701651051361e+00
1.726927701651051361e+00
1.959247291482284048e+00
1.959247291482284048e+00
2.042312326425977265e+00
2.042312326425977265e+00
1.908995757927182790e+00
1.908995757927182790e+00
1.919683584093752948e+00
1.919683584093752948e+00
2.091251319925535146e+00
2.091251319925535146e+00
2.103814203314310571e+00
2.103814203314310571e+00
2.123689809869686140e+00
2.123689809869686140e+00
2.123689809869686140e+00
2.472075441755424485e+00
2.472075441755424485e+00
2.412823633533738299e+00
2.412823633533738299e+00
2.489325968199713301e+00
2.489325968199713301e+00
2.733645924253059523e+00
2.733645924253059523e+00
2.835836542863246379e+00
2.835836542863246379e+00
2.718832972197637865e+00
2.718832972197637865e+00
2.684894436475722568e+00
2.684894436475722568e+00
2.615517319254127671e+00
2.615517319254127671e+00
2.388260383922848895e+00
2.388260383922848895e+00
2.388260383922848895e+00
2.223067842646564873e+00
2.223067842646564873e+00
2.049625049592577852e+00
2.049625049592577852e+00
2.013436445204016323e+00
2.013436445204016323e+00
1.971622669148838769e+00
1.971622669148838769e+00
2.031061983092746104e+00
2.031061983092746104e+00
2.389385418256172233e+00
2.389385418256172233e+00
2.347571642200994901e+00
2.347571642200994901e+00
2.368009765923032361e+00
2.368009765923032361e+00
2.368009765923032361e+00
2.362572099978637485e+00
2.362572099978637485e+00
2.065188024536881883e+00
2.065188024536881883e+00
2.024686788537247928e+00
2.024686788537247928e+00
2.120314706869716570e+00
2.120314706869716570e+00
2.080750999481185470e+00
2.080750999481185470e+00
1.577860652485732595e+00
1.577860652485732595e+00
1.197974059266945446e+00
1.197974059266945446e+00
1.260225959044160238e+00
1.260225959044160238e+00
1.260225959044160238e+00
1.537921933652760531e+00
1.537921933652760531e+00
1.655675527207251418e+00
1.655675527207251418e+00
2.046624958037049247e+00
2.046624958037049247e+00
2.558515579699087716e+00
2.558515579699087716e+00
2.825898739585558594e+00
2.825898739585558594e+00
3.279475081637012845e+00
3.279475081637012845e+00
3.649423871578112433e+00
3.649423871578112433e+00
3.656174077578051129e+00
3.656174077578051129e+00
3.656174077578051129e+00
3.505044465468306392e+00
3.505044465468306392e+00
3.194347483748893879e+00
3.194347483748893879e+00
2.842024231696524073e+00
2.842024231696524073e+00
2.397823175756096159e+00
2.397823175756096159e+00
2.086563676870021755e+00
2.086563676870021755e+00
1.815430402539139898e+00
1.815430402539139898e+00
1.544109622486038003e+00
1.544109622486038003e+00
1.100471083712271536e+00
1.100471083712271536e+00
1.100471083712271536e+00
1.214099551377910702e+00
1.214099551377910702e+00
1.629424726096377452e+00
1.629424726096377452e+00
1.935059053315836053e+00
1.935059053315836053e+00
2.313258095034638639e+00
2.313258095034638639e+00
2.339508896145511940e+00
2.339508896145511940e+00
2.396323129978331856e+00
2.396323129978331856e+00
2.513139194921720332e+00
2.513139194921720332e+00
2.636705465865047060e+00
2.636705465865047060e+00
2.709270180364391045e+00
2.709270180364391045e+00
2.667268898586993231e+00
2.667268898586993231e+00
2.667268898586993231e+00
2.521389446699423331e+00
2.521389446699423331e+00
2.348696676534318240e+00
2.348696676534318240e+00
1.984560563982054937e+00
1.984560563982054937e+00
1.894182805871761355e+00
1.894182805871761355e+00
2.199067110202337361e+00
2.199067110202337361e+00
1.918371044038209350e+00
1.918371044038209350e+00
1.870369579149754324e+00
1.870369579149754324e+00
2.084876125370036970e+00
2.084876125370036970e+00
2.084876125370036970e+00
2.274444410534989469e+00
2.274444410534989469e+00
2.449574755088961275e+00
2.449574755088961275e+00
2.444324594866786882e+00
2.444324594866786882e+00
2.456137455366679934e+00
2.456137455366679934e+00
2.141690359202856442e+00
2.141690359202856442e+00
1.762741294595171926e+00
1.762741294595171926e+00
1.583860835596789585e+00
1.583860835596789585e+00
1.572610492263557980e+00
1.572610492263557980e+00
1.572610492263557980e+00
1.456919461653492842e+00
1.456919461653492842e+00
1.568297860652485554e+00
1.568297860652485554e+00
2.066125553147984295e+00
2.066125553147984295e+00
2.246318552201910457e+00
2.246318552201910457e+00
2.800585467085787705e+00
2.800585467085787705e+00
3.215348124637592786e+00
3.215348124637592786e+00
3.392728537858211268e+00
3.392728537858211268e+00
3.435667348246711494e+00
3.435667348246711494e+00
3.435667348246711494e+00
3.415229224524674478e+00
3.415229224524674478e+00
3.327101535081026462e+00
3.327101535081026462e+00
2.960340342417676407e+00
2.960340342417676407e+00
2.538077455977050256e+00
2.538077455977050256e+00
2.246318552201910457e+00
2.246318552201910457e+00
2.184816675313578038e+00
2.184816675313578038e+00
2.212567522202215642e+00
2.212567522202215642e+00
2.359009491256446989e+00
2.359009491256446989e+00
2.428199102755821404e+00
2.428199102755821404e+00
2.220442762535478121e+00
2.220442762535478121e+00
2.195692007202368234e+00
2.195692007202368234e+00
2.195692007202368234e+00
2.028999420148319910e+00
2.028999420148319910e+00
1.987748161259804025e+00
1.987748161259804025e+00
2.124064821314127105e+00
2.124064821314127105e+00
2.058250312814721816e+00
2.058250312814721816e+00
1.992060792870876229e+00
1.992060792870876229e+00
1.675551133762626987e+00
1.675551133762626987e+00
1.530609210486159943e+00
1.530609210486159943e+00
1.673863582262642202e+00
1.673863582262642202e+00
1.719052461317789327e+00
1.719052461317789327e+00
1.719052461317789327e+00
1.873369670705282708e+00
1.873369670705282708e+00
2.395573107089449927e+00
2.395573107089449927e+00
2.628642719809564543e+00
2.628642719809564543e+00
2.814835901974547472e+00
2.814835901974547472e+00
2.795335306863612868e+00
2.795335306863612868e+00
2.630892788476211219e+00
2.630892788476211219e+00
2.445824640644550740e+00
2.445824640644550740e+00
2.445824640644550740e+00
2.315883175145725836e+00
2.315883175145725836e+00
2.186691732535783306e+00
2.186691732535783306e+00
2.038937223426007694e+00
2.038937223426007694e+00
1.899432966093935971e+00
1.899432966093935971e+00
1.750740928373058169e+00
1.750740928373058169e+00
1.665050813318277534e+00
1.665050813318277534e+00
1.842431226538896016e+00
1.842431226538896016e+00
2.145815485091708386e+00
2.145815485091708386e+00
2.686581987975707353e+00
2.686581987975707353e+00
2.686581987975707353e+00
2.515576769310586602e+00
2.515576769310586602e+00
2.422386425366985119e+00
2.422386425366985119e+00
2.272569353312784202e+00
2.272569353312784202e+00
2.063875484481338063e+00
2.063875484481338063e+00
2.243130954924161813e+00
2.243130954924161813e+00
2.630142765587328846e+00
2.630142765587328846e+00
2.932026978362376912e+00
2.932026978362376912e+00
2.932026978362376912e+00
2.786522537919247977e+00
2.786522537919247977e+00
2.757459150975066553e+00
2.757459150975066553e+00
2.638955534531693736e+00
2.638955534531693736e+00
2.287007293923764895e+00
2.287007293923764895e+00
1.978935392315439357e+00
1.978935392315439357e+00
1.943496810815759979e+00
1.943496810815759979e+00
2.305195348979155678e+00
2.305195348979155678e+00
2.485013336588640875e+00
2.485013336588640875e+00
2.698394848475600405e+00
2.698394848475600405e+00
2.724645649586474594e+00
2.724645649586474594e+00
2.724645649586474594e+00
2.573141026032288892e+00
2.573141026032288892e+00
2.422948942533646566e+00
2.422948942533646566e+00
2.387322855311746483e+00
2.387322855311746483e+00
2.359759514145329362e+00
2.359759514145329362e+00
2.214067567979979945e+00
2.214067567979979945e+00
2.097251503036591469e+00
2.097251503036591469e+00
2.006123722037415735e+00
2.006123722037415735e+00
2.025436811426129857e+00
2.025436811426129857e+00
1.952309579760124647e+00
1.952309579760124647e+00
2.222317819757682944e+00
2.222317819757682944e+00
2.222317819757682944e+00
2.462137638477736701e+00
2.462137638477736701e+00
2.442262031922361132e+00
2.442262031922361132e+00
2.302757774590289408e+00
2.302757774590289408e+00
2.080000976592303541e+00
2.080000976592303541e+00
2.051312601092562637e+00
2.051312601092562637e+00
2.115814569536424106e+00
2.115814569536424106e+00
2.245006012146367080e+00
2.245006012146367080e+00
2.245006012146367080e+00
2.302195257423627517e+00
2.302195257423627517e+00
2.352259285256507848e+00
2.352259285256507848e+00
2.405323404644917229e+00
2.405323404644917229e+00
2.394448072756126589e+00
2.394448072756126589e+00
2.054312692648091243e+00
2.054312692648091243e+00
1.671426007873775488e+00
1.671426007873775488e+00
1.850118961149937347e+00
1.850118961149937347e+00
1.743053193762016839e+00
1.743053193762016839e+00
1.762553788872951444e+00
1.762553788872951444e+00
1.762553788872951444e+00
2.002936124759666647e+00
2.002936124759666647e+00
2.328258552812280335e+00
2.328258552812280335e+00
2.632017822809534113e+00
2.632017822809534113e+00
2.689019562364574512e+00
2.689019562364574512e+00
2.703269997253333834e+00
2.703269997253333834e+00
2.711332743308816795e+00
2.711332743308816795e+00
2.867149998474074479e+00
2.867149998474074479e+00
2.830773888363292468e+00
2.830773888363292468e+00
2.830773888363292468e+00
2.574266060365611786e+00
2.574266060365611786e+00
2.214630085146641392e+00
2.214630085146641392e+00
2.083001068147831703e+00
2.083001068147831703e+00
2.328258552812280335e+00
2.328258552812280335e+00
2.016624042481765411e+00
2.016624042481765411e+00
1.838493606372264777e+00
1.838493606372264777e+00
1.717552415540025024e+00
1.717552415540025024e+00
1.771741569261757299e+00
1.771741569261757299e+00
1.771741569261757299e+00
1.929246375926999768e+00
1.929246375926999768e+00
2.184629169591357556e+00
2.184629169591357556e+00
2.629205236976226434e+00
2.629205236976226434e+00
2.521951963866084778e+00
2.521951963866084778e+00
2.256631366924039650e+00
2.256631366924039650e+00
2.230755577257606870e+00
2.230755577257606870e+00
2.259818964201788294e+00
2.259818964201788294e+00
2.117877132480849411e+00
2.117877132480849411e+00
2.117877132480849411e+00
2.486513382366405178e+00
2.486513382366405178e+00
2.863774895474105353e+00
2.863774895474105353e+00
2.605767021698660368e+00
2.605767021698660368e+00
2.468700338755454915e+00
2.468700338755454915e+00
2.367259743034150432e+00
2.367259743034150432e+00
2.220255256813257638e+00
2.220255256813257638e+00
2.200379650257881181e+00
2.200379650257881181e+00
2.317195715201269657e+00
2.317195715201269657e+00
2.317195715201269657e+00
2.426699056978057101e+00
2.426699056978057101e+00
2.348134159367656792e+00
2.348134159367656792e+00
2.365197180089724238e+00
2.365197180089724238e+00
2.386947843867305519e+00
2.386947843867305519e+00
2.280632099368266719e+00
2.280632099368266719e+00
2.060500381481368493e+00
2.060500381481368493e+00
2.308195440534684284e+00
2.308195440534684284e+00
2.294695028534806447e+00
2.294695028534806447e+00
2.294695028534806447e+00
2.107001800592058771e+00
2.107001800592058771e+00
2.156878322702719064e+00
2.156878322702719064e+00
2.245193517868587563e+00
2.245193517868587563e+00
2.213880062257759462e+00
2.213880062257759462e+00
2.158003357036042402e+00
2.158003357036042402e+00
2.142440382091738371e+00
2.142440382091738371e+00
2.031999511703848516e+00
2.031999511703848516e+00
2.031999511703848516e+00
1.993935850093081497e+00
1.993935850093081497e+00
2.132877590258491995e+00
2.132877590258491995e+00
2.340071413312173831e+00
2.340071413312173831e+00
2.308195440534684284e+00
2.308195440534684284e+00
2.263194067201757864e+00
2.263194067201757864e+00
2.560203131199072502e+00
2.560203131199072502e+00
2.353946836756492633e+00
2.353946836756492633e+00
2.353946836756492633e+00
2.353946836756492633e+00
2.359009491256446989e+00
2.359009491256446989e+00
2.359009491256446989e+00
2.254193792535172935e+00
2.254193792535172935e+00
2.195692007202368234e+00
2.195692007202368234e+00
2.182379100924710880e+00
2.182379100924710880e+00
2.380385143589587305e+00
2.380385143589587305e+00
2.347384136478774419e+00
2.347384136478774419e+00
2.423136448255867048e+00
2.423136448255867048e+00
2.559640614032411055e+00
2.559640614032411055e+00
2.555140476699118146e+00
2.555140476699118146e+00
2.251381206701864812e+00
2.251381206701864812e+00
2.251381206701864812e+00
2.239943357646412725e+00
2.239943357646412725e+00
2.435511825922421991e+00
2.435511825922421991e+00
2.213130039368877089e+00
2.213130039368877089e+00
2.190816858424634361e+00
2.190816858424634361e+00
2.230943082979827352e+00
2.230943082979827352e+00
2.281944639423810539e+00
2.281944639423810539e+00
2.181629078035828950e+00
2.181629078035828950e+00
2.070438184759056277e+00
2.070438184759056277e+00
2.070438184759056277e+00
2.081126010925626435e+00
2.081126010925626435e+00
1.933371501815851268e+00
1.933371501815851268e+00
1.888182622760704366e+00
1.888182622760704366e+00
1.933371501815851268e+00
1.933371501815851268e+00
2.058250312814721816e+00
2.058250312814721816e+00
2.047937498092593067e+00
2.047937498092593067e+00
2.301632740256966070e+00
2.301632740256966070e+00
2.544640156254768470e+00
2.544640156254768470e+00
2.544640156254768470e+00
2.527577135532700581e+00
2.527577135532700581e+00
2.554765465254677181e+00
2.554765465254677181e+00
2.328633564256721744e+00
2.328633564256721744e+00
2.077938413647877791e+00
2.077938413647877791e+00
1.978935392315439357e+00
1.978935392315439357e+00
1.961122348704489093e+00
1.961122348704489093e+00
2.148440565202795582e+00
2.148440565202795582e+00
2.390322946867275089e+00
2.390322946867275089e+00
2.390322946867275089e+00
2.679456770531327248e+00
2.679456770531327248e+00
2.818211004974517042e+00
2.818211004974517042e+00
2.797585375530259100e+00
2.797585375530259100e+00
2.753521530808435092e+00
2.753521530808435092e+00
2.936714621417890303e+00
2.936714621417890303e+00
2.604641987365337030e+00
2.604641987365337030e+00
2.333321207312235135e+00
2.333321207312235135e+00
2.247068575090792386e+00
2.247068575090792386e+00
2.247068575090792386e+00
2.190629352702413879e+00
2.190629352702413879e+00
2.162128482924894346e+00
2.162128482924894346e+00
2.159690908536027187e+00
2.159690908536027187e+00
2.187816766869105756e+00
2.187816766869105756e+00
1.960747337260048351e+00
1.960747337260048351e+00
1.826305734427930538e+00
1.826305734427930538e+00
1.864556901760918040e+00
1.864556901760918040e+00
1.961122348704489093e+00
1.961122348704489093e+00
1.961122348704489093e+00
1.908620746482741826e+00
1.908620746482741826e+00
2.036312143314920498e+00
2.036312143314920498e+00
2.641205603198339968e+00
2.641205603198339968e+00
2.582891323587756194e+00
2.582891323587756194e+00
2.469637867366557771e+00
2.469637867366557771e+00
2.441512009033478758e+00
2.441512009033478758e+00
2.377197546311838217e+00
2.377197546311838217e+00
2.336696310312204705e+00
2.336696310312204705e+00
2.336696310312204705e+00
2.222880336924344391e+00
2.222880336924344391e+00
2.187816766869105756e+00
2.187816766869105756e+00
2.023749259926145072e+00
2.023749259926145072e+00
1.986998138370922096e+00
1.986998138370922096e+00
2.035187108981597159e+00
2.035187108981597159e+00
2.127439924314096675e+00
2.127439924314096675e+00
2.160628437147130043e+00
2.160628437147130043e+00
2.160628437147130043e+00
2.375134983367412023e+00
2.375134983367412023e+00
2.553452925199133361e+00
2.553452925199133361e+00
2.373259926145207199e+00
2.373259926145207199e+00
2.377197546311838217e+00
2.377197546311838217e+00
2.350384228034303025e+00
2.350384228034303025e+00
2.211067476424451339e+00
2.211067476424451339e+00
2.194754478591265823e+00
2.194754478591265823e+00
2.161003448591571008e+00
2.161003448591571008e+00
2.161003448591571008e+00
2.186316721091342341e+00
2.186316721091342341e+00
2.064625507370219992e+00
2.064625507370219992e+00
2.114314523758659803e+00
2.114314523758659803e+00
2.358821985534226506e+00
2.358821985534226506e+00
2.530014709921567295e+00
2.530014709921567295e+00
2.563765739921262110e+00
2.563765739921262110e+00
2.826648762474440968e+00
2.826648762474440968e+00
2.777147251808221640e+00
2.777147251808221640e+00
2.777147251808221640e+00
2.450887295144505096e+00
2.450887295144505096e+00
2.139815301980651618e+00
2.139815301980651618e+00
1.966372508926664153e+00
1.966372508926664153e+00
1.925308755760368751e+00
1.925308755760368751e+00
1.942746787926877827e+00
1.942746787926877827e+00
2.118439649647511303e+00
2.118439649647511303e+00
2.301445234534745587e+00
2.301445234534745587e+00
2.490263496810816157e+00
2.490263496810816157e+00
2.548952787865840897e+00
2.548952787865840897e+00
2.406635944700461049e+00
2.406635944700461049e+00
2.406635944700461049e+00
2.190254341257972914e+00
2.190254341257972914e+00
2.147128025147251762e+00
2.147128025147251762e+00
2.475263039033173573e+00
2.475263039033173573e+00
2.307257911923581428e+00
2.307257911923581428e+00
2.255693838312936794e+00
2.255693838312936794e+00
2.335758781701101849e+00
2.335758781701101849e+00
2.373072420422986717e+00
2.373072420422986717e+00
2.357321939756462204e+00
2.357321939756462204e+00
2.326383495590075512e+00
2.326383495590075512e+00
2.326383495590075512e+00
2.358259468367565059e+00
2.358259468367565059e+00
2.224005371257667729e+00
2.224005371257667729e+00
2.222317819757682944e+00
2.222317819757682944e+00
2.166628620258186366e+00
2.166628620258186366e+00
2.128189947202978605e+00
2.128189947202978605e+00
1.997123447370830363e+00
1.997123447370830363e+00
2.146190496536149350e+00
2.146190496536149350e+00
2.449574755088961275e+00
2.449574755088961275e+00
2.449574755088961275e+00
2.213505050813318054e+00
2.213505050813318054e+00
2.188379284035767647e+00
2.188379284035767647e+00
2.281382122257148648e+00
2.281382122257148648e+00
2.347759147923215384e+00
2.347759147923215384e+00
2.365572191534165203e+00
2.365572191534165203e+00
2.345134067812128187e+00
2.345134067812128187e+00
2.271631824701681346e+00
2.271631824701681346e+00
1.996185918759727951e+00
1.996185918759727951e+00
1.996185918759727951e+00
1.902058046205023389e+00
1.902058046205023389e+00
1.942184270760216158e+00
1.942184270760216158e+00
2.021499191259499284e+00
2.021499191259499284e+00
1.999373516037476817e+00
1.999373516037476817e+00
2.313445600756859122e+00
2.313445600756859122e+00
2.678894253364665801e+00
2.678894253364665801e+00
2.701394940031129011e+00
2.701394940031129011e+00
2.674769127475814301e+00
2.674769127475814301e+00
2.534139835810419239e+00
2.534139835810419239e+00
2.461387615588854771e+00
2.461387615588854771e+00
2.461387615588854771e+00
2.464387707144383377e+00
2.464387707144383377e+00
2.479575670644245999e+00
2.479575670644245999e+00
2.431011688589129527e+00
2.431011688589129527e+00
2.233193151646474028e+00
2.233193151646474028e+00
2.139815301980651618e+00
2.139815301980651618e+00
2.082251045258949329e+00
2.082251045258949329e+00
1.976497817926572642e+00
1.976497817926572642e+00
1.860431775872066540e+00
1.860431775872066540e+00
1.860431775872066540e+00
2.151815668202764709e+00
2.151815668202764709e+00
2.162315988647114828e+00
2.162315988647114828e+00
2.175441389202551257e+00
2.175441389202551257e+00
2.307070406201360946e+00
2.307070406201360946e+00
2.384322763756218322e+00
2.384322763756218322e+00
2.518764366588335690e+00
2.518764366588335690e+00
2.540890041810357936e+00
2.540890041810357936e+00
2.528327158421582510e+00
2.528327158421582510e+00
2.528327158421582510e+00
2.364447157200842309e+00
2.364447157200842309e+00
2.213317545091097571e+00
2.213317545091097571e+00
2.148815576647236547e+00
2.148815576647236547e+00
2.131377544480727693e+00
2.131377544480727693e+00
2.075313333536790150e+00
2.075313333536790150e+00
2.091438825647755628e+00
2.091438825647755628e+00
2.428386608478041886e+00
2.428386608478041886e+00
2.272569353312784202e+00
2.272569353312784202e+00
2.272569353312784202e+00
2.274631916257209951e+00
2.274631916257209951e+00
2.313070589312418157e+00
2.313070589312418157e+00
2.301257728812525105e+00
2.301257728812525105e+00
2.290757408368175430e+00
2.290757408368175430e+00
2.290569902645954947e+00
2.290569902645954947e+00
2.444324594866786882e+00
2.444324594866786882e+00
2.358446974089785542e+00
2.358446974089785542e+00
2.290944914090395912e+00
2.290944914090395912e+00
2.290944914090395912e+00
2.278944547868282378e+00
2.278944547868282378e+00
2.268256721701712220e+00
2.132502578814050587e+00
2.132502578814050587e+00
2.132502578814050587e+00
2.278382030701620931e+00
2.278382030701620931e+00
2.472637958922086376e+00
2.472637958922086376e+00
2.271256813257240381e+00
2.271256813257240381e+00
2.234130680257575996e+00
2.234130680257575996e+00
2.163628528702658205e+00
2.163628528702658205e+00
2.130627521591845319e+00
2.130627521591845319e+00
2.180691549424726094e+00
2.180691549424726094e+00
2.259068941312906365e+00
2.259068941312906365e+00
2.351884273812066883e+00
2.351884273812066883e+00
2.351884273812066883e+00
2.216880153813287624e+00
2.216880153813287624e+00
2.197192052980132537e+00
2.197192052980132537e+00
2.150878139591662741e+00
2.150878139591662741e+00
2.040999786370433888e+00
2.040999786370433888e+00
1.929433881649220250e+00
1.929433881649220250e+00
2.302945280312509890e+00
2.302945280312509890e+00
2.503201391644032547e+00
2.503201391644032547e+00
2.419573839533677440e+00
2.419573839533677440e+00
2.481825739310891787e+00
2.481825739310891787e+00
2.481825739310891787e+00
2.495138645588549586e+00
2.495138645588549586e+00
2.462700155644398592e+00
2.462700155644398592e+00
2.486700888088625661e+00
2.486700888088625661e+00
2.509014069032868388e+00
2.509014069032868388e+00
2.401760795922727176e+00
2.401760795922727176e+00
2.187441755424664791e+00
2.187441755424664791e+00
2.111876949369793088e+00
2.111876949369793088e+00
2.094626422925504272e+00
2.094626422925504272e+00
2.094626422925504272e+00
1.986623126926480909e+00
1.986623126926480909e+00
1.909558275093844459e+00
1.909558275093844459e+00
2.222317819757682944e+00
2.222317819757682944e+00
2.196817041535691573e+00
2.196817041535691573e+00
2.236380748924222672e+00
2.236380748924222672e+00
2.336508804589983779e+00
2.336508804589983779e+00
2.383385235145115466e+00
2.383385235145115466e+00
2.340071413312173831e+00
2.340071413312173831e+00
2.340071413312173831e+00
2.296382580034791232e+00
2.296382580034791232e+00
2.391072969756157018e+00
2.391072969756157018e+00
2.299382671590319838e+00
2.299382671590319838e+00
2.265631641590625023e+00
2.265631641590625023e+00
2.305570360423596643e+00
2.305570360423596643e+00
2.384135258033997840e+00
2.384135258033997840e+00
2.303507797479171337e+00
2.303507797479171337e+00
2.376635029145176325e+00
2.376635029145176325e+00
2.376635029145176325e+00
2.666518875698111302e+00
2.666518875698111302e+00
2.425011505478072316e+00
2.425011505478072316e+00
2.320758323923459709e+00
2.320758323923459709e+00
2.282882168034912951e+00
2.282882168034912951e+00
2.245756035035248566e+00
2.245756035035248566e+00
2.232255623035371173e+00
2.232255623035371173e+00
2.218380199591051927e+00
2.218380199591051927e+00
2.315883175145725836e+00
2.315883175145725836e+00
2.191191869869075770e+00
2.191191869869075770e+00
2.191191869869075770e+00
2.152003173924985191e+00
2.152003173924985191e+00
2.148253059480575100e+00
2.148253059480575100e+00
2.147690542313913653e+00
2.147690542313913653e+00
2.022624225592822178e+00
2.022624225592822178e+00
2.209942442091128445e+00
2.209942442091128445e+00
2.358634479812006024e+00
2.358634479812006024e+00
2.113189489425336465e+00
2.113189489425336465e+00
2.066875576036866669e+00
2.066875576036866669e+00
2.066875576036866669e+00
2.085813653981139382e+00
2.085813653981139382e+00
2.073250770592364400e+00
2.073250770592364400e+00
2.162878505813776275e+00
2.162878505813776275e+00
2.328633564256721744e+00
2.328633564256721744e+00
2.539952513199255080e+00
2.539952513199255080e+00
2.584016357921079532e+00
2.584016357921079532e+00
2.604829493087557513e+00
2.604829493087557513e+00
2.571078463087863142e+00
2.571078463087863142e+00
2.571078463087863142e+00
2.441512009033478758e+00
2.441512009033478758e+00
2.322070863979003530e+00
2.322070863979003530e+00
2.500201300088503942e+00
2.500201300088503942e+00
2.299757683034760802e+00
2.299757683034760802e+00
1.956997222815637594e+00
1.956997222815637594e+00
1.889682668538468668e+00
1.889682668538468668e+00
1.919121066927091501e+00
1.919121066927091501e+00
1.919121066927091501e+00
1.966185003204443671e+00
1.966185003204443671e+00
2.058437818536942299e+00
2.058437818536942299e+00
2.281382122257148648e+00
2.281382122257148648e+00
2.467012787255470574e+00
2.467012787255470574e+00
2.548015259254738041e+00
2.548015259254738041e+00
2.517451826532791870e+00
2.517451826532791870e+00
2.483888302255317981e+00
2.483888302255317981e+00
2.371197363200781449e+00
2.371197363200781449e+00
2.371197363200781449e+00
2.331633655812249906e+00
2.331633655812249906e+00
2.590766563921018228e+00
2.590766563921018228e+00
2.381322672200689716e+00
2.381322672200689716e+00
2.287382305368205859e+00
2.287382305368205859e+00
2.220255256813257638e+00
2.220255256813257638e+00
2.158565874202703849e+00
2.158565874202703849e+00
2.142252876369517889e+00
2.142252876369517889e+00
2.149753105258339403e+00
2.149753105258339403e+00
2.280069582201605716e+00
2.280069582201605716e+00
2.280069582201605716e+00
2.189691824091311467e+00
2.189691824091311467e+00
2.196254524369030126e+00
2.196254524369030126e+00
2.265819147312845505e+00
2.265819147312845505e+00
2.300882717368083696e+00
2.300882717368083696e+00
2.171503769035920239e+00
2.171503769035920239e+00
2.235630726035340299e+00
2.235630726035340299e+00
2.479763176366466482e+00
2.479763176366466482e+00
2.307820429090243319e+00
2.307820429090243319e+00
2.307820429090243319e+00
2.276131962034974254e+00
2.276131962034974254e+00
2.236193243202001746e+00
2.236193243202001746e+00
2.202629718924527857e+00
2.202629718924527857e+00
2.200192144535660699e+00
2.200192144535660699e+00
2.204317270424512643e+00
2.204317270424512643e+00
2.285319742423780109e+00
2.285319742423780109e+00
2.173378826258125951e+00
2.173378826258125951e+00
2.181254066591387542e+00
2.181254066591387542e+00
2.181254066591387542e+00
2.272194341868343237e+00
2.272194341868343237e+00
2.314945646534623425e+00
2.314945646534623425e+00
2.212192510757774677e+00
2.212192510757774677e+00
2.384510269478438804e+00
2.384510269478438804e+00
2.444137089144566399e+00
2.444137089144566399e+00
2.196067018646809643e+00
2.196067018646809643e+00
2.120127201147496088e+00
2.120127201147496088e+00
2.083751091036713632e+00
2.083751091036713632e+00
2.083751091036713632e+00
2.070250679036835795e+00
2.070250679036835795e+00
2.081876033814508364e+00
2.081876033814508364e+00
2.216317636646626177e+00
2.216317636646626177e+00
2.392948026978362286e+00
2.392948026978362286e+00
2.439261940366832526e+00
2.439261940366832526e+00
2.443574571977904952e+00
2.443574571977904952e+00
2.445637134922330258e+00
2.445637134922330258e+00
2.353009308145390222e+00
2.353009308145390222e+00
2.353009308145390222e+00
2.311570543534653854e+00
2.311570543534653854e+00
2.582328806421094747e+00
2.582328806421094747e+00
2.474513016144291644e+00
2.474513016144291644e+00
2.343634022034363884e+00
2.343634022034363884e+00
2.298070131534776017e+00
2.298070131534776017e+00
2.252506241035188150e+00
2.252506241035188150e+00
2.244068483535264225e+00
2.244068483535264225e+00
2.248381115146336207e+00
2.248381115146336207e+00
2.314945646534623425e+00
2.314945646534623425e+00
2.314945646534623425e+00
2.254756309701834383e+00
2.254756309701834383e+00
2.215192602313302839e+00
2.215192602313302839e+00
2.207879879146702695e+00
2.207879879146702695e+00
2.251193700979644330e+00
2.251193700979644330e+00
2.155190771202734279e+00
2.155190771202734279e+00
2.167566148869289222e+00
2.167566148869289222e+00
2.454074892422254184e+00
2.454074892422254184e+00
2.275006927701650916e+00
2.275006927701650916e+00
2.275006927701650916e+00
2.199817133091219734e+00
2.199817133091219734e+00
2.188941801202429094e+00
2.188941801202429094e+00
2.188566789757988129e+00
2.188566789757988129e+00
2.191754387035737217e+00
2.191754387035737217e+00
2.235818231757560781e+00
2.235818231757560781e+00
2.450137272255623166e+00
2.450137272255623166e+00
2.400073244422742391e+00
2.400073244422742391e+00
2.378135074922940628e+00
2.378135074922940628e+00
2.378135074922940628e+00
2.347571642200994901e+00
2.347571642200994901e+00
2.314570635090182460e+00
2.314570635090182460e+00
2.131752555925168657e+00
2.131752555925168657e+00
2.242568437757499922e+00
2.242568437757499922e+00
2.445449629200109776e+00
2.445449629200109776e+00
2.256068849757378203e+00
2.256068849757378203e+00
2.218005188146610962e+00
2.218005188146610962e+00
2.182941618091372327e+00
2.182941618091372327e+00
2.182941618091372327e+00
2.161940977202673420e+00
2.161940977202673420e+00
2.158003357036042402e+00
2.158003357036042402e+00
2.197942075869014911e+00
2.197942075869014911e+00
2.309695486312448587e+00
2.309695486312448587e+00
2.266194158757286470e+00
2.266194158757286470e+00
2.261881527146214044e+00
2.261881527146214044e+00
2.243318460646382295e+00
2.243318460646382295e+00
2.243318460646382295e+00
2.187629261146885273e+00
2.187629261146885273e+00
2.135127658925138228e+00
2.135127658925138228e+00
2.418823816644795066e+00
2.418823816644795066e+00
2.466825281533250092e+00
2.466825281533250092e+00
2.321320841090121156e+00
2.321320841090121156e+00
2.305570360423596643e+00
2.305570360423596643e+00
2.271069307535019899e+00
2.271069307535019899e+00
2.261131504257332114e+00
2.261131504257332114e+00
2.261131504257332114e+00
2.261694021423993561e+00
2.261694021423993561e+00
2.343259010589922919e+00
2.343259010589922919e+00
2.314383129367961978e+00
2.314383129367961978e+00
2.252318735312967224e+00
2.252318735312967224e+00
2.232443128757591655e+00
2.232443128757591655e+00
2.258506424146244473e+00
2.258506424146244473e+00
2.148815576647236547e+00
2.148815576647236547e+00
2.129689992980742907e+00
2.129689992980742907e+00
2.482013245033112270e+00
2.482013245033112270e+00
2.369697317423017147e+00
2.369697317423017147e+00
2.369697317423017147e+00
2.290194891201513983e+00
2.290194891201513983e+00
2.283257179479354360e+00
2.283257179479354360e+00
2.260381481368449741e+00
2.260381481368449741e+00
2.270881801812799416e+00
2.270881801812799416e+00
2.263194067201757864e+00
2.263194067201757864e+00
2.358259468367565059e+00
2.358259468367565059e+00
2.268631733146153184e+00
2.268631733146153184e+00
2.237880794701986531e+00
2.237880794701986531e+00
2.237880794701986531e+00
2.243505966368602778e+00
2.243505966368602778e+00
2.287569811090426342e+00
2.287569811090426342e+00
2.154628254036072832e+00
2.154628254036072832e+00
2.211442487868892304e+00
2.211442487868892304e+00
2.495513657032990551e+00
2.495513657032990551e+00
2.287194799645985377e+00
2.287194799645985377e+00
2.234318185979796478e+00
2.234318185979796478e+00
2.221192785424360050e+00
2.221192785424360050e+00
2.221192785424360050e+00
2.197942075869014911e+00
2.197942075869014911e+00
2.228318002868740155e+00
2.228318002868740155e+00
2.277819513534959039e+00
2.277819513534959039e+00
2.357884456923124095e+00
2.357884456923124095e+00
2.240693380535294654e+00
2.240693380535294654e+00
2.231880611590930208e+00
2.231880611590930208e+00
2.233005645924253102e+00
2.233005645924253102e+00
2.236568254646443155e+00
2.236568254646443155e+00
2.236568254646443155e+00
2.151253151036103706e+00
2.151253151036103706e+00
2.320758323923459709e+00
2.320758323923459709e+00
2.456324961088900860e+00
2.456324961088900860e+00
2.293757499923703591e+00
2.293757499923703591e+00
2.284007202368236289e+00
2.284007202368236289e+00
2.261506515701773079e+00
2.261506515701773079e+00
2.233193151646474028e+00
2.233193151646474028e+00
2.233193151646474028e+00
2.233193151646474028e+00
2.233193151646474028e+00
2.275756950590533290e+00
2.275756950590533290e+00
2.315320657979064389e+00
2.315320657979064389e+00
2.249693655201880027e+00
2.249693655201880027e+00
2.242005920590838475e+00
2.242005920590838475e+00
2.269944273201696561e+00
2.269944273201696561e+00
2.211067476424451339e+00
2.211067476424451339e+00
2.158378368480483367e+00
2.158378368480483367e+00
2.423136448255867048e+00
2.423136448255867048e+00
2.423136448255867048e+00
2.370447340311899076e+00
2.370447340311899076e+00
2.235255714590899334e+00
2.235255714590899334e+00
2.227005462813196335e+00
2.227005462813196335e+00
2.183504135258034218e+00
2.183504135258034218e+00
2.172066286202582130e+00
2.172066286202582130e+00
2.234880703146458369e+00
2.234880703146458369e+00
2.324695944090090727e+00
2.324695944090090727e+00
2.288882351145970162e+00
2.288882351145970162e+00
2.288882351145970162e+00
2.260756492812891150e+00
2.260756492812891150e+00
2.273319376201666131e+00
2.273319376201666131e+00
2.309882992034669069e+00
2.309882992034669069e+00
2.206004821924497428e+00
2.206004821924497428e+00
2.160628437147130043e+00
2.160628437147130043e+00
2.472825464644306859e+00
2.472825464644306859e+00
2.316258186590166801e+00
2.316258186590166801e+00
2.267694204535050773e+00
2.267694204535050773e+00
2.267694204535050773e+00
2.282507156590471986e+00
2.282507156590471986e+00
2.248943632312997654e+00
2.248943632312997654e+00
2.271819330423901828e+00
2.271819330423901828e+00
2.278382030701620931e+00
2.278382030701620931e+00
2.397635670033875677e+00
2.397635670033875677e+00
2.287382305368205859e+00
2.287382305368205859e+00
2.288507339701529197e+00
2.288507339701529197e+00
2.282882168034912951e+00
2.282882168034912951e+00
2.282882168034912951e+00
2.291319925534837321e+00
2.291319925534837321e+00
2.179379009369182274e+00
2.179379009369182274e+00
2.285319742423780109e+00
2.285319742423780109e+00
2.496263679921872480e+00
2.496263679921872480e+00
2.321695852534562121e+00
2.321695852534562121e+00
2.280069582201605716e+00
2.280069582201605716e+00
2.254193792535172935e+00
2.254193792535172935e+00
2.254193792535172935e+00
2.211817499313333268e+00
2.211817499313333268e+00
2.215755119479964730e+00
2.215755119479964730e+00
2.236193243202001746e+00
2.236193243202001746e+00
2.324883449812311209e+00
2.324883449812311209e+00
2.218942716757713818e+00
2.218942716757713818e+00
2.209567430646687480e+00
2.209567430646687480e+00
2.251381206701864812e+00
2.251381206701864812e+00
2.228880520035401602e+00
2.228880520035401602e+00
2.145252967925046494e+00
2.145252967925046494e+00
2.358821985534226506e+00
2.358821985534226506e+00
2.358821985534226506e+00
2.433824274422437206e+00
2.433824274422437206e+00
2.275381939146092325e+00
2.275381939146092325e+00
2.252506241035188150e+00
2.252506241035188150e+00
2.200379650257881181e+00
2.200379650257881181e+00
2.200754661702322146e+00
2.200754661702322146e+00
2.246881069368571904e+00
2.246881069368571904e+00
2.347384136478774419e+00
2.347384136478774419e+00
2.368572283089693808e+00
2.368572283089693808e+00
2.368572283089693808e+00
2.288694845423749680e+00
2.288694845423749680e+00
2.282694662312692468e+00
2.282694662312692468e+00
2.302570268868068482e+00
2.302570268868068482e+00
2.216130130924405695e+00
2.216130130924405695e+00
2.125377361369670925e+00
2.125377361369670925e+00
2.421261391033662225e+00
2.421261391033662225e+00
2.314195623645741495e+00
2.314195623645741495e+00
2.225130405590991067e+00
2.225130405590991067e+00
2.225130405590991067e+00
2.224005371257667729e+00
2.224005371257667729e+00
2.195692007202368234e+00
2.195692007202368234e+00
2.223630359813226764e+00
2.223630359813226764e+00
2.256818872646260132e+00
2.256818872646260132e+00
2.353009308145390222e+00
2.353009308145390222e+00
2.311945554979094819e+00
2.311945554979094819e+00
2.265444135868404540e+00
2.265444135868404540e+00
2.234130680257575996e+00
2.234130680257575996e+00
2.234130680257575996e+00
2.284007202368236289e+00
2.284007202368236289e+00
2.161565965758232455e+00
2.161565965758232455e+00
2.193629444257942485e+00
2.193629444257942485e+00
2.520826929532761884e+00
2.520826929532761884e+00
2.338383861812189490e+00
2.338383861812189490e+00
2.273694387646107540e+00
2.273694387646107540e+00
2.251193700979644330e+00
2.251193700979644330e+00
2.188941801202429094e+00
2.188941801202429094e+00
2.188941801202429094e+00
2.210317453535568966e+00
2.210317453535568966e+00
2.256256355479598685e+00
2.256256355479598685e+00
2.369322305978576182e+00
2.369322305978576182e+00
2.265069124423963132e+00
2.265069124423963132e+00
2.249506149479659545e+00
2.249506149479659545e+00
2.244255989257484707e+00
2.244255989257484707e+00
2.257381389812921579e+00
2.257381389812921579e+00
2.125939878536332373e+00
2.125939878536332373e+00
2.125939878536332373e+00
2.273881893368328022e+00
2.273881893368328022e+00
2.434386791589098653e+00
2.434386791589098653e+00
2.262069032868434526e+00
2.262069032868434526e+00
2.264319101535081202e+00
2.264319101535081202e+00
2.274444410534989469e+00
2.274444410534989469e+00
2.263756584368419311e+00
2.263756584368419311e+00
2.275944456312753772e+00
2.275944456312753772e+00
2.313820612201300086e+00
2.313820612201300086e+00
2.313820612201300086e+00
2.336133793145542814e+00
2.336133793145542814e+00
2.222692831202123909e+00
2.222692831202123909e+00
2.213130039368877089e+00
2.213130039368877089e+00
2.269194250312814631e+00
2.269194250312814631e+00
2.246131046479689974e+00
2.246131046479689974e+00
2.178441480758079862e+00
2.178441480758079862e+00
2.416573747978148834e+00
2.416573747978148834e+00
2.405323404644917229e+00
2.405323404644917229e+00
2.405323404644917229e+00
2.257568895535142062e+00
2.257568895535142062e+00
2.244443494979705633e+00
2.244443494979705633e+00
2.208817407757805107e+00
2.208817407757805107e+00
2.217442670979949515e+00
2.217442670979949515e+00
2.258881435590685438e+00
2.258881435590685438e+00
2.363884640034180418e+00
2.363884640034180418e+00
2.338383861812189490e+00
2.338383861812189490e+00
2.338383861812189490e+00
2.269944273201696561e+00
2.269944273201696561e+00
2.267319193090609808e+00
2.267319193090609808e+00
2.265444135868404540e+00
2.265444135868404540e+00
2.169816217535935454e+00
2.169816217535935454e+00
2.136440198980682048e+00
2.136440198980682048e+00
2.466262764366588645e+00
2.466262764366588645e+00
2.319820795312356854e+00
2.319820795312356854e+00
2.237130771813104602e+00
2.237130771813104602e+00
2.237130771813104602e+00
2.243880977813043742e+00
2.243880977813043742e+00
2.212567522202215642e+00
2.212567522202215642e+00
2.238068300424207457e+00
2.238068300424207457e+00
2.268256721701712220e+00
2.268256721701712220e+00
2.380947660756248752e+00
2.380947660756248752e+00
2.284944730979339145e+00
2.284944730979339145e+00
2.264131595812860720e+00
2.264131595812860720e+00
2.275006927701650916e+00
2.275006927701650916e+00
2.308945463423566213e+00
2.308945463423566213e+00
2.308945463423566213e+00
2.168691183202612560e+00
2.168691183202612560e+00
2.228880520035401602e+00
2.228880520035401602e+00
2.469825373088778253e+00
2.469825373088778253e+00
2.272756859035004684e+00
2.272756859035004684e+00
2.233193151646474028e+00
2.233193151646474028e+00
2.225880428479872997e+00
2.225880428479872997e+00
2.215192602313302839e+00
2.215192602313302839e+00
2.247818597979674760e+00
2.247818597979674760e+00
2.247818597979674760e+00
2.248193609424115724e+00
2.248193609424115724e+00
2.336508804589983779e+00
2.336508804589983779e+00
2.237130771813104602e+00
2.237130771813104602e+00
2.235443220313119816e+00
2.235443220313119816e+00
2.260568987090670667e+00
2.260568987090670667e+00
2.250256172368541474e+00
2.250256172368541474e+00
2.151815668202764709e+00
2.151815668202764709e+00
2.343446516312143402e+00
2.343446516312143402e+00
2.435136814477980582e+00
2.435136814477980582e+00
2.435136814477980582e+00
2.264694112979522167e+00
2.264694112979522167e+00
2.244631000701926116e+00
2.244631000701926116e+00
2.240693380535294654e+00
2.240693380535294654e+00
2.242755943479720404e+00
2.242755943479720404e+00
2.275194433423871843e+00
2.275194433423871843e+00
2.334821253089998994e+00
2.334821253089998994e+00
2.343634022034363884e+00
2.343634022034363884e+00
2.264131595812860720e+00
2.264131595812860720e+00
2.264131595812860720e+00
2.236568254646443155e+00
2.236568254646443155e+00
2.276506973479415219e+00
2.276506973479415219e+00
2.207879879146702695e+00
2.207879879146702695e+00
2.151440656758324188e+00
2.151440656758324188e+00
2.435511825922421991e+00
2.435511825922421991e+00
2.350571733756523507e+00
2.350571733756523507e+00
2.245568529313028083e+00
2.245568529313028083e+00
2.246881069368571904e+00
2.246881069368571904e+00
2.246881069368571904e+00
2.235255714590899334e+00
2.235255714590899334e+00
2.229068025757622085e+00
2.229068025757622085e+00
2.249131138035218136e+00
2.249131138035218136e+00
2.353759331034272151e+00
2.353759331034272151e+00
2.293007477034821662e+00
2.293007477034821662e+00
2.259631458479567812e+00
2.259631458479567812e+00
2.252506241035188150e+00
2.252506241035188150e+00
2.282132145146031021e+00
2.282132145146031021e+00
2.282132145146031021e+00
2.166441114535965884e+00
2.166441114535965884e+00
2.169066194647053525e+00
2.169066194647053525e+00
2.473950498977630197e+00
2.473950498977630197e+00
2.296570085757011714e+00
2.296570085757011714e+00
2.240318369090853690e+00
2.240318369090853690e+00
2.250068666646320992e+00
2.250068666646320992e+00
2.229068025757622085e+00
2.229068025757622085e+00
2.250818689535202921e+00
2.250818689535202921e+00
2.250818689535202921e+00
2.271819330423901828e+00
2.271819330423901828e+00
2.389572923978392716e+00
2.389572923978392716e+00
2.281194616534928166e+00
2.281194616534928166e+00
2.251381206701864812e+00
2.251381206701864812e+00
2.258693929868464956e+00
2.258693929868464956e+00
2.270881801812799416e+00
2.270881801812799416e+00
2.142065370647297406e+00
2.142065370647297406e+00
2.255881344035157721e+00
2.255881344035157721e+00
2.442074526200140649e+00
2.442074526200140649e+00
2.442074526200140649e+00
2.262256538590655452e+00
2.262256538590655452e+00
2.264694112979522167e+00
2.264694112979522167e+00
2.260193975646229259e+00
2.260193975646229259e+00
2.244631000701926116e+00
2.244631000701926116e+00
2.268444227423932702e+00
2.268444227423932702e+00
2.308570451979125249e+00
2.308570451979125249e+00
2.356384411145359792e+00
2.356384411145359792e+00
2.260381481368449741e+00
2.260381481368449741e+00
2.260381481368449741e+00
2.241068391979735619e+00
2.241068391979735619e+00
2.264131595812860720e+00
2.264131595812860720e+00
2.221380291146580532e+00
2.221380291146580532e+00
2.127439924314096675e+00
2.127439924314096675e+00
2.351696768089846401e+00
2.351696768089846401e+00
2.379635120700704931e+00
2.379635120700704931e+00
2.233943174535355514e+00
2.233943174535355514e+00
2.233943174535355514e+00
2.245568529313028083e+00
2.245568529313028083e+00
2.244255989257484707e+00
2.244255989257484707e+00
2.226442945646534444e+00
2.226442945646534444e+00
2.252131229590746742e+00
2.252131229590746742e+00
2.340446424756614796e+00
2.340446424756614796e+00
2.339321390423291458e+00
2.339321390423291458e+00
2.281944639423810539e+00
2.281944639423810539e+00
2.266381664479506952e+00
2.266381664479506952e+00
2.294695028534806447e+00
2.294695028534806447e+00
2.205817316202276945e+00
2.205817316202276945e+00
2.205817316202276945e+00
2.160440931424909561e+00
2.160440931424909561e+00
2.470012878810998735e+00
2.470012878810998735e+00
2.350946745200964472e+00
2.350946745200964472e+00
2.260568987090670667e+00
2.260568987090670667e+00
2.254193792535172935e+00
2.254193792535172935e+00
2.239193334757530351e+00
2.239193334757530351e+00
2.248381115146336207e+00
2.248381115146336207e+00
2.246506057924130939e+00
2.246506057924130939e+00
2.246506057924130939e+00
2.343634022034363884e+00
2.343634022034363884e+00
2.272194341868343237e+00
2.272194341868343237e+00
2.251193700979644330e+00
2.251193700979644330e+00
2.257756401257362544e+00
2.257756401257362544e+00
2.289069856868190644e+00
2.289069856868190644e+00
2.149565599536118921e+00
2.149565599536118921e+00
2.188941801202429094e+00
2.188941801202429094e+00
2.466637775811029609e+00
2.466637775811029609e+00
2.466637775811029609e+00
2.287569811090426342e+00
2.287569811090426342e+00
2.244818506424146598e+00
2.244818506424146598e+00
2.241255897701956545e+00
2.241255897701956545e+00
2.225692922757652514e+00
2.225692922757652514e+00
2.247068575090792386e+00
2.247068575090792386e+00
2.282132145146031021e+00
2.282132145146031021e+00
2.388260383922848895e+00
2.388260383922848895e+00
2.286819788201544412e+00
2.286819788201544412e+00
2.286819788201544412e+00
2.263006561479537382e+00
2.263006561479537382e+00
2.261881527146214044e+00
2.261881527146214044e+00
2.245381023590808045e+00
2.245381023590808045e+00
2.145252967925046494e+00
2.145252967925046494e+00
2.299195165868098911e+00
2.299195165868098911e+00
2.410573564867091623e+00
2.410573564867091623e+00
2.265069124423963132e+00
2.265069124423963132e+00
2.238068300424207457e+00
2.238068300424207457e+00
2.228505508590960638e+00
2.228505508590960638e+00
2.213505050813318054e+00
2.213505050813318054e+00
2.248193609424115724e+00
2.248193609424115724e+00
2.248193609424115724e+00
2.307070406201360946e+00
2.307070406201360946e+00
2.347196630756553937e+00
2.347196630756553937e+00
2.266006653035065987e+00
2.266006653035065987e+00
2.251193700979644330e+00
2.251193700979644330e+00
2.273694387646107540e+00
2.273694387646107540e+00
2.229255531479842567e+00
2.229255531479842567e+00
2.163816034424878687e+00
2.163816034424878687e+00
2.430824182866909045e+00
2.430824182866909045e+00
2.430824182866909045e+00
2.387510361033966966e+00
2.387510361033966966e+00
2.258131412701803509e+00
2.258131412701803509e+00
2.247631092257453833e+00
2.247631092257453833e+00
2.239193334757530351e+00
2.239193334757530351e+00
2.227380474257637299e+00
2.227380474257637299e+00
2.257006378368480615e+00
2.257006378368480615e+00
2.353009308145390222e+00
2.353009308145390222e+00
2.315695669423505798e+00
2.315695669423505798e+00
2.315695669423505798e+00
2.269756767479476078e+00
2.269756767479476078e+00
2.254193792535172935e+00
2.254193792535172935e+00
2.289632374034852091e+00
2.289632374034852091e+00
2.186504226813562823e+00
2.186504226813562823e+00
2.163253517258217240e+00
2.163253517258217240e+00
2.472825464644306859e+00
2.472825464644306859e+00
2.310445509201330516e+00
2.310445509201330516e+00
2.230568071535386387e+00
2.230568071535386387e+00
2.230568071535386387e+00
2.242005920590838475e+00
2.242005920590838475e+00
2.238068300424207457e+00
2.238068300424207457e+00
2.248943632312997654e+00
2.248943632312997654e+00
2.263944090090640238e+00
2.263944090090640238e+00
2.381885189367351607e+00
2.381885189367351607e+00
2.277444502090518075e+00
2.277444502090518075e+00
2.246506057924130939e+00
2.246506057924130939e+00
2.241443403424177028e+00
2.241443403424177028e+00
2.241443403424177028e+00
2.271819330423901828e+00
2.271819330423901828e+00
2.141315347758415477e+00
2.141315347758415477e+00
2.246318552201910457e+00
2.246318552201910457e+00
2.471137913144322074e+00
2.471137913144322074e+00
2.281007110812707683e+00
2.281007110812707683e+00
2.244631000701926116e+00
2.244631000701926116e+00
2.236005737479781263e+00
2.236005737479781263e+00
2.216130130924405695e+00
2.216130130924405695e+00
2.216130130924405695e+00
2.239568346201971760e+00
2.239568346201971760e+00
2.269944273201696561e+00
2.269944273201696561e+00
2.359384502700888397e+00
2.359384502700888397e+00
2.272381847590563719e+00
2.272381847590563719e+00
2.258318918424023991e+00
2.258318918424023991e+00
2.268819238868374111e+00
2.268819238868374111e+00
2.244818506424146598e+00
2.244818506424146598e+00
2.140377819147312621e+00
2.140377819147312621e+00
2.361259559923093665e+00
2.361259559923093665e+00
2.437386883144627259e+00
2.437386883144627259e+00
2.437386883144627259e+00
2.284007202368236289e+00
2.284007202368236289e+00
2.254193792535172935e+00
2.254193792535172935e+00
2.238630817590868904e+00
2.238630817590868904e+00
2.234130680257575996e+00
2.234130680257575996e+00
2.273131870479445649e+00
2.273131870479445649e+00
2.331071138645588459e+00
2.331071138645588459e+00
2.323945921201208797e+00
2.323945921201208797e+00
2.261694021423993561e+00
2.261694021423993561e+00
2.261694021423993561e+00
2.257381389812921579e+00
2.257381389812921579e+00
2.280819605090487201e+00
2.280819605090487201e+00
2.198504593035676358e+00
2.198504593035676358e+00
2.142440382091738371e+00
2.142440382091738371e+00
2.450887295144505096e+00
2.450887295144505096e+00
2.352634296700948813e+00
2.352634296700948813e+00
2.244818506424146598e+00
2.244818506424146598e+00
2.236755760368663637e+00
2.236755760368663637e+00
2.236755760368663637e+00
2.229068025757622085e+00
2.229068025757622085e+00
2.230005554368724940e+00
2.230005554368724940e+00
2.255506332590716312e+00
2.255506332590716312e+00
2.341196447645496725e+00
2.341196447645496725e+00
2.278194524979400004e+00
2.278194524979400004e+00
2.260006469924008776e+00
2.260006469924008776e+00
2.277632007812738557e+00
2.277632007812738557e+00
2.313070589312418157e+00
2.313070589312418157e+00
2.313070589312418157e+00
2.179754020813623683e+00
2.179754020813623683e+00
2.195879512924588717e+00
2.195879512924588717e+00
2.492701071199682428e+00
2.492701071199682428e+00
2.316820703756828248e+00
2.316820703756828248e+00
2.256068849757378203e+00
2.256068849757378203e+00
2.226067934202093479e+00
2.226067934202093479e+00
2.218942716757713818e+00
2.218942716757713818e+00
2.240880886257515137e+00
2.240880886257515137e+00
2.240880886257515137e+00
2.272756859035004684e+00
2.272756859035004684e+00
2.378135074922940628e+00
2.378135074922940628e+00
2.260381481368449741e+00
2.260381481368449741e+00
2.251568712424085295e+00
2.251568712424085295e+00
2.254381298257393418e+00
2.254381298257393418e+00
2.253631275368511044e+00
2.253631275368511044e+00
2.138877773369548763e+00
2.138877773369548763e+00
2.286632282479323930e+00
2.286632282479323930e+00
2.454637409588916075e+00
2.454637409588916075e+00
2.454637409588916075e+00
2.276319467757194737e+00
2.276319467757194737e+00
2.255506332590716312e+00
2.255506332590716312e+00
2.244443494979705633e+00
2.244443494979705633e+00
2.241443403424177028e+00
2.241443403424177028e+00
2.254193792535172935e+00
2.254193792535172935e+00
2.292257454145939732e+00
2.292257454145939732e+00
2.332946195867793726e+00
2.332946195867793726e+00
2.332946195867793726e+00
2.231693105868709726e+00
2.231693105868709726e+00
2.210692464980010374e+00
2.210692464980010374e+00
2.257381389812921579e+00
2.257381389812921579e+00
2.221567796868801015e+00
2.221567796868801015e+00
2.142815393536179780e+00
2.142815393536179780e+00
2.375885006256294396e+00
2.375885006256294396e+00
2.387885372478407930e+00
2.387885372478407930e+00
2.266944181646168399e+00
2.266944181646168399e+00
2.256068849757378203e+00
2.256068849757378203e+00
2.256068849757378203e+00
2.235630726035340299e+00
2.235630726035340299e+00
2.239568346201971760e+00
2.239568346201971760e+00
2.278569536423841413e+00
2.278569536423841413e+00
2.365009674367503756e+00
2.365009674367503756e+00
2.330133610034486047e+00
2.330133610034486047e+00
2.272194341868343237e+00
2.272194341868343237e+00
2.257381389812921579e+00
2.257381389812921579e+00
2.278944547868282378e+00
2.278944547868282378e+00
2.278944547868282378e+00
2.193441938535722002e+00
2.193441938535722002e+00
2.160815942869350526e+00
2.160815942869350526e+00
2.484825830866420393e+00
2.484825830866420393e+00
2.339696401867732423e+00
2.339696401867732423e+00
2.239755851924192243e+00
2.239755851924192243e+00
2.227380474257637299e+00
2.227380474257637299e+00
2.218005188146610962e+00
2.218005188146610962e+00
2.220817773979919085e+00
2.220817773979919085e+00
2.220817773979919085e+00
2.235068208868678852e+00
2.235068208868678852e+00
2.335946287423322332e+00
2.335946287423322332e+00
2.265819147312845505e+00
2.265819147312845505e+00
2.268819238868374111e+00
2.268819238868374111e+00
2.263569078646198829e+00
2.263569078646198829e+00
2.283444685201574842e+00
2.283444685201574842e+00
2.152753196813867564e+00
2.152753196813867564e+00
2.245756035035248566e+00
2.245756035035248566e+00
2.509201574755088870e+00
2.509201574755088870e+00
2.509201574755088870e+00
2.314008117923521013e+00
2.314008117923521013e+00
2.271819330423901828e+00
2.271819330423901828e+00
2.258881435590685438e+00
2.258881435590685438e+00
2.240318369090853690e+00
2.240318369090853690e+00
2.244818506424146598e+00
2.244818506424146598e+00
2.271256813257240381e+00
2.271256813257240381e+00
2.368947294534135217e+00
2.368947294534135217e+00
2.248943632312997654e+00
2.248943632312997654e+00
2.248943632312997654e+00
2.250068666646320992e+00
2.250068666646320992e+00
2.264131595812860720e+00
2.264131595812860720e+00
2.260006469924008776e+00
2.260006469924008776e+00
2.149753105258339403e+00
2.149753105258339403e+00
2.324133426923429280e+00
2.324133426923429280e+00
2.429886654255806189e+00
2.429886654255806189e+00
2.279319559312723342e+00
2.279319559312723342e+00
2.273131870479445649e+00
2.273131870479445649e+00
2.273131870479445649e+00
2.223630359813226764e+00
2.223630359813226764e+00
2.221380291146580532e+00
2.221380291146580532e+00
2.254756309701834383e+00
2.254756309701834383e+00
2.321133335367900674e+00
2.321133335367900674e+00
2.354321848200934042e+00
2.354321848200934042e+00
2.274256904812768987e+00
2.274256904812768987e+00
2.247631092257453833e+00
2.247631092257453833e+00
2.265069124423963132e+00
2.265069124423963132e+00
2.265069124423963132e+00
2.204129764702292160e+00
2.204129764702292160e+00
2.146940519425031280e+00
2.146940519425031280e+00
2.434949308755760100e+00
2.434949308755760100e+00
2.344946562089907705e+00
2.344946562089907705e+00
2.244631000701926116e+00
2.244631000701926116e+00
2.250443678090761956e+00
2.250443678090761956e+00
2.205817316202276945e+00
