2.393135532700583212e+00
2.393135532700583212e+00
2.276881984923856628e+00
2.276881984923856628e+00
2.276881984923856628e+00
2.276881984923856628e+00
2.231130588702047834e+00
2.231130588702047834e+00
2.231130588702047834e+00
2.237693288979766049e+00
2.237693288979766049e+00
2.237693288979766049e+00
2.287194799645985377e+00
2.287194799645985377e+00
2.287194799645985377e+00
2.287194799645985377e+00
2.141502853480635959e+00
2.141502853480635959e+00
2.141502853480635959e+00
2.176566423535874595e+00
2.176566423535874595e+00
2.176566423535874595e+00
2.538827478865932186e+00
2.538827478865932186e+00
2.538827478865932186e+00
2.538827478865932186e+00
2.309507980590228104e+00
2.309507980590228104e+00
2.309507980590228104e+00
2.246506057924130939e+00
2.246506057924130939e+00
2.246506057924130939e+00
2.235818231757560781e+00
2.235818231757560781e+00
2.235818231757560781e+00
2.235818231757560781e+00
2.216880153813287624e+00
2.216880153813287624e+00
2.216880153813287624e+00
2.244443494979705633e+00
2.244443494979705633e+00
2.244443494979705633e+00
2.244443494979705633e+00
2.280069582201605716e+00
2.280069582201605716e+00
2.280069582201605716e+00
2.412636127811517817e+00
2.412636127811517817e+00
2.412636127811517817e+00
2.255318826868495830e+00
2.255318826868495830e+00
2.255318826868495830e+00
2.255318826868495830e+00
2.239943357646412725e+00
2.239943357646412725e+00
2.239943357646412725e+00
2.251568712424085295e+00
2.251568712424085295e+00
2.251568712424085295e+00
2.248943632312997654e+00
2.248943632312997654e+00
2.248943632312997654e+00
2.248943632312997654e+00
2.111876949369793088e+00
2.111876949369793088e+00
2.111876949369793088e+00
2.301632740256966070e+00
2.301632740256966070e+00
2.301632740256966070e+00
2.487263405255287552e+00
2.487263405255287552e+00
2.487263405255287552e+00
2.487263405255287552e+00
2.268069215979491737e+00
2.268069215979491737e+00
2.268069215979491737e+00
2.252318735312967224e+00
2.252318735312967224e+00
2.252318735312967224e+00
2.241630909146397510e+00
2.241630909146397510e+00
2.241630909146397510e+00
2.241630909146397510e+00
2.226255439924313961e+00
2.226255439924313961e+00
2.226255439924313961e+00
2.248756126590777171e+00
2.248756126590777171e+00
2.248756126590777171e+00
2.310633014923550999e+00
2.310633014923550999e+00
2.310633014923550999e+00
2.344384044923245813e+00
2.344384044923245813e+00
2.344384044923245813e+00
2.232255623035371173e+00
2.232255623035371173e+00
2.232255623035371173e+00
2.232255623035371173e+00
2.234880703146458369e+00
2.234880703146458369e+00
2.234880703146458369e+00
2.275944456312753772e+00
2.275944456312753772e+00
2.275944456312753772e+00
2.220255256813257638e+00
2.220255256813257638e+00
2.220255256813257638e+00
2.220255256813257638e+00
2.124814844203009478e+00
2.124814844203009478e+00
2.124814844203009478e+00
2.437574388866847741e+00
2.437574388866847741e+00
2.437574388866847741e+00
2.403635853144932444e+00
2.403635853144932444e+00
2.403635853144932444e+00
2.251193700979644330e+00
2.251193700979644330e+00
2.251193700979644330e+00
2.251193700979644330e+00
2.239943357646412725e+00
2.239943357646412725e+00
2.239943357646412725e+00
2.227005462813196335e+00
2.227005462813196335e+00
2.227005462813196335e+00
2.221380291146580532e+00
2.221380291146580532e+00
2.221380291146580532e+00
2.221380291146580532e+00
2.253443769646290562e+00
2.253443769646290562e+00
2.253443769646290562e+00
2.374009949034089573e+00
2.374009949034089573e+00
2.374009949034089573e+00
2.317383220923490139e+00
2.317383220923490139e+00
2.317383220923490139e+00
2.257381389812921579e+00
2.257381389812921579e+00
2.257381389812921579e+00
2.257381389812921579e+00
2.257943906979583026e+00
2.257943906979583026e+00
2.257943906979583026e+00
2.306507889034699499e+00
2.306507889034699499e+00
2.306507889034699499e+00
2.170003723258155937e+00
2.170003723258155937e+00
2.170003723258155937e+00
2.170003723258155937e+00
2.131565050202948175e+00
2.131565050202948175e+00
2.131565050202948175e+00
2.520639423810540958e+00
2.520639423810540958e+00
2.520639423810540958e+00
2.326571001312295994e+00
2.326571001312295994e+00
2.326571001312295994e+00
2.326571001312295994e+00
2.243880977813043742e+00
2.243880977813043742e+00
2.243880977813043742e+00
2.228880520035401602e+00
2.228880520035401602e+00
2.228880520035401602e+00
2.206379833368938392e+00
2.206379833368938392e+00
2.206379833368938392e+00
2.206379833368938392e+00
2.241630909146397510e+00
2.241630909146397510e+00
2.241630909146397510e+00
2.264694112979522167e+00
2.264694112979522167e+00
2.264694112979522167e+00
2.407010956144902014e+00
2.407010956144902014e+00
2.407010956144902014e+00
2.407010956144902014e+00
2.285132236701559627e+00
2.285132236701559627e+00
2.285132236701559627e+00
2.261506515701773079e+00
2.261506515701773079e+00
2.261506515701773079e+00
2.251193700979644330e+00
2.251193700979644330e+00
2.251193700979644330e+00
2.251193700979644330e+00
2.266569170201727434e+00
2.266569170201727434e+00
2.266569170201727434e+00
2.117877132480849411e+00
2.117877132480849411e+00
2.117877132480849411e+00
2.117877132480849411e+00
2.244631000701926116e+00
2.244631000701926116e+00
2.244631000701926116e+00
2.531889767143772563e+00
2.531889767143772563e+00
2.531889767143772563e+00
2.299382671590319838e+00
2.299382671590319838e+00
2.299382671590319838e+00
2.299382671590319838e+00
2.258506424146244473e+00
2.258506424146244473e+00
2.258506424146244473e+00
2.235630726035340299e+00
2.235630726035340299e+00
2.235630726035340299e+00
2.214630085146641392e+00
2.214630085146641392e+00
2.214630085146641392e+00
2.214630085146641392e+00
2.235068208868678852e+00
2.235068208868678852e+00
2.235068208868678852e+00
2.272006836146122755e+00
2.272006836146122755e+00
2.272006836146122755e+00
2.372322397534104788e+00
2.372322397534104788e+00
2.372322397534104788e+00
2.372322397534104788e+00
2.247443586535233351e+00
2.247443586535233351e+00
2.247443586535233351e+00
2.238443311868648422e+00
2.238443311868648422e+00
2.238443311868648422e+00
2.262069032868434526e+00
2.262069032868434526e+00
2.262069032868434526e+00
2.262069032868434526e+00
2.207317361980041248e+00
2.207317361980041248e+00
2.207317361980041248e+00
2.101376628925443413e+00
2.101376628925443413e+00
2.101376628925443413e+00
2.347009125034333454e+00
2.347009125034333454e+00
2.347009125034333454e+00
2.347009125034333454e+00
2.442824549089022579e+00
2.442824549089022579e+00
2.442824549089022579e+00
2.278944547868282378e+00
2.278944547868282378e+00
2.278944547868282378e+00
2.272381847590563719e+00
2.272381847590563719e+00
2.272381847590563719e+00
2.272381847590563719e+00
2.250068666646320992e+00
2.250068666646320992e+00
2.250068666646320992e+00
2.244255989257484707e+00
2.244255989257484707e+00
2.244255989257484707e+00
2.270694296090578934e+00
2.270694296090578934e+00
2.270694296090578934e+00
2.270694296090578934e+00
2.353759331034272151e+00
2.353759331034272151e+00
2.353759331034272151e+00
2.353946836756492633e+00
2.353946836756492633e+00
2.353946836756492633e+00
2.258131412701803509e+00
2.258131412701803509e+00
2.258131412701803509e+00
2.258131412701803509e+00
2.241818414868617992e+00
2.241818414868617992e+00
2.241818414868617992e+00
2.254756309701834383e+00
2.254756309701834383e+00
2.254756309701834383e+00
2.188566789757988129e+00
2.188566789757988129e+00
2.188566789757988129e+00
2.188566789757988129e+00
2.132877590258491995e+00
2.132877590258491995e+00
2.132877590258491995e+00
2.481075716422009858e+00
2.481075716422009858e+00
2.481075716422009858e+00
2.481075716422009858e+00
2.360697042756431774e+00
2.360697042756431774e+00
2.360697042756431774e+00
2.231880611590930208e+00
2.231880611590930208e+00
2.231880611590930208e+00
2.229443037202063049e+00
2.229443037202063049e+00
2.229443037202063049e+00
2.229443037202063049e+00
2.231130588702047834e+00
2.231130588702047834e+00
2.231130588702047834e+00
2.243693472090823260e+00
2.243693472090823260e+00
2.243693472090823260e+00
2.265444135868404540e+00
2.265444135868404540e+00
2.265444135868404540e+00
2.265444135868404540e+00
2.396885647144993747e+00
2.396885647144993747e+00
2.396885647144993747e+00
2.302382763145847999e+00
2.302382763145847999e+00
2.302382763145847999e+00
2.257381389812921579e+00
2.257381389812921579e+00
2.257381389812921579e+00
2.257381389812921579e+00
2.246693563646351421e+00
2.246693563646351421e+00
2.246693563646351421e+00
2.275006927701650916e+00
2.275006927701650916e+00
2.275006927701650916e+00
2.128377452925199087e+00
2.128377452925199087e+00
2.128377452925199087e+00
2.128377452925199087e+00
2.173191320535905025e+00
2.173191320535905025e+00
2.173191320535905025e+00
2.537139927365947845e+00
2.537139927365947845e+00
2.537139927365947845e+00
2.307445417645802355e+00
2.307445417645802355e+00
2.307445417645802355e+00
2.307445417645802355e+00
2.253443769646290562e+00
2.253443769646290562e+00
2.253443769646290562e+00
2.242193426313058957e+00
2.242193426313058957e+00
2.242193426313058957e+00
2.221567796868801015e+00
2.221567796868801015e+00
2.221567796868801015e+00
2.221567796868801015e+00
2.226442945646534444e+00
2.226442945646534444e+00
2.226442945646534444e+00
2.244443494979705633e+00
2.244443494979705633e+00
2.244443494979705633e+00
2.244443494979705633e+00
2.384885280922879769e+00
2.384885280922879769e+00
2.384885280922879769e+00
2.236380748924222672e+00
2.236380748924222672e+00
2.236380748924222672e+00
2.219130222479934300e+00
2.219130222479934300e+00
2.219130222479934300e+00
2.219130222479934300e+00
2.238630817590868904e+00
2.238630817590868904e+00
2.238630817590868904e+00
2.246131046479689974e+00
2.246131046479689974e+00
2.246131046479689974e+00
2.128002441480758122e+00
2.128002441480758122e+00
2.128002441480758122e+00
2.128002441480758122e+00
2.309507980590228104e+00
2.309507980590228104e+00
2.309507980590228104e+00
2.511639149143956029e+00
2.511639149143956029e+00
2.511639149143956029e+00
2.298445142979216982e+00
2.298445142979216982e+00
2.298445142979216982e+00
2.298445142979216982e+00
2.282507156590471986e+00
2.282507156590471986e+00
2.282507156590471986e+00
2.263944090090640238e+00
2.263944090090640238e+00
2.263944090090640238e+00
2.245756035035248566e+00
2.245756035035248566e+00
2.245756035035248566e+00
2.245756035035248566e+00
2.262256538590655452e+00
2.262256538590655452e+00
2.262256538590655452e+00
2.323945921201208797e+00
2.323945921201208797e+00
2.323945921201208797e+00
2.358259468367565059e+00
2.358259468367565059e+00
2.358259468367565059e+00
2.358259468367565059e+00
2.236943266090884119e+00
2.236943266090884119e+00
2.236943266090884119e+00
2.225505417035432032e+00
2.225505417035432032e+00
2.225505417035432032e+00
2.251381206701864812e+00
2.251381206701864812e+00
2.251381206701864812e+00
2.251381206701864812e+00
2.190629352702413879e+00
2.190629352702413879e+00
2.190629352702413879e+00
2.099501571703238145e+00
2.099501571703238145e+00
2.099501571703238145e+00
2.415073702200384531e+00
2.415073702200384531e+00
2.415073702200384531e+00
2.415073702200384531e+00
2.399698232978301426e+00
2.399698232978301426e+00
2.399698232978301426e+00
2.262256538590655452e+00
2.262256538590655452e+00
2.262256538590655452e+00
2.258131412701803509e+00
2.258131412701803509e+00
2.258131412701803509e+00
2.258131412701803509e+00
2.235818231757560781e+00
2.235818231757560781e+00
2.235818231757560781e+00
2.227380474257637299e+00
2.227380474257637299e+00
2.227380474257637299e+00
2.269006744590594149e+00
2.269006744590594149e+00
2.269006744590594149e+00
2.269006744590594149e+00
2.376447523422955843e+00
2.376447523422955843e+00
2.376447523422955843e+00
2.318695760979033516e+00
2.318695760979033516e+00
2.318695760979033516e+00
2.243130954924161813e+00
2.243130954924161813e+00
2.243130954924161813e+00
2.243130954924161813e+00
2.226255439924313961e+00
2.226255439924313961e+00
2.226255439924313961e+00
2.263569078646198829e+00
2.263569078646198829e+00
2.263569078646198829e+00
2.263569078646198829e+00
2.152565691091647082e+00
2.152565691091647082e+00
2.152565691091647082e+00
2.125002349925229961e+00
2.125002349925229961e+00
2.125002349925229961e+00
2.528889675588243957e+00
2.528889675588243957e+00
2.528889675588243957e+00
2.528889675588243957e+00
2.337446333201086635e+00
2.337446333201086635e+00
2.337446333201086635e+00
2.254943815424054865e+00
2.254943815424054865e+00
2.254943815424054865e+00
2.259256447035126847e+00
2.259256447035126847e+00
2.259256447035126847e+00
2.259256447035126847e+00
2.245193517868587563e+00
2.245193517868587563e+00
2.245193517868587563e+00
2.253068758201849597e+00
2.253068758201849597e+00
2.253068758201849597e+00
2.267506698812830290e+00
2.267506698812830290e+00
2.267506698812830290e+00
2.267506698812830290e+00
2.396323129978331856e+00
2.396323129978331856e+00
2.396323129978331856e+00
2.267881710257271255e+00
2.267881710257271255e+00
2.267881710257271255e+00
2.249506149479659545e+00
2.249506149479659545e+00
2.249506149479659545e+00
2.249506149479659545e+00
2.263381572923978347e+00
2.263381572923978347e+00
2.263381572923978347e+00
2.270506790368358452e+00
2.270506790368358452e+00
2.270506790368358452e+00
2.100251594592120075e+00
2.100251594592120075e+00
2.100251594592120075e+00
2.100251594592120075e+00
2.208629902035584625e+00
2.208629902035584625e+00
2.208629902035584625e+00
2.507139011810663121e+00
2.507139011810663121e+00
2.507139011810663121e+00
2.285132236701559627e+00
2.285132236701559627e+00
2.285132236701559627e+00
2.285132236701559627e+00
2.263194067201757864e+00
2.263194067201757864e+00
2.263194067201757864e+00
2.246881069368571904e+00
2.246881069368571904e+00
2.246881069368571904e+00
2.224380382702108694e+00
2.224380382702108694e+00
2.224380382702108694e+00
2.224380382702108694e+00
2.260943998535111632e+00
2.260943998535111632e+00
2.260943998535111632e+00
2.313070589312418157e+00
2.313070589312418157e+00
2.313070589312418157e+00
2.313070589312418157e+00
2.417136265144810281e+00
2.417136265144810281e+00
2.417136265144810281e+00
2.272194341868343237e+00
2.272194341868343237e+00
2.272194341868343237e+00
2.246506057924130939e+00
2.246506057924130939e+00
2.246506057924130939e+00
2.246506057924130939e+00
2.264694112979522167e+00
2.264694112979522167e+00
2.264694112979522167e+00
2.228130497146519229e+00
2.228130497146519229e+00
2.228130497146519229e+00
2.105689260536515395e+00
2.105689260536515395e+00
2.105689260536515395e+00
2.105689260536515395e+00
2.339883907589953349e+00
2.339883907589953349e+00
2.339883907589953349e+00
2.430449171422468080e+00
2.430449171422468080e+00
2.430449171422468080e+00
2.247068575090792386e+00
2.247068575090792386e+00
2.247068575090792386e+00
2.247068575090792386e+00
2.244443494979705633e+00
2.244443494979705633e+00
2.244443494979705633e+00
2.210504959257789892e+00
2.210504959257789892e+00
2.210504959257789892e+00
2.210504959257789892e+00
2.205629810480056463e+00
2.205629810480056463e+00
2.205629810480056463e+00
2.238818323313089387e+00
2.238818323313089387e+00
2.238818323313089387e+00
2.335758781701101849e+00
2.335758781701101849e+00
2.335758781701101849e+00
2.335758781701101849e+00
2.344009033478804849e+00
2.344009033478804849e+00
2.344009033478804849e+00
2.266569170201727434e+00
2.266569170201727434e+00
2.266569170201727434e+00
2.267694204535050773e+00
2.267694204535050773e+00
2.267694204535050773e+00
2.267694204535050773e+00
2.290569902645954947e+00
2.290569902645954947e+00
2.290569902645954947e+00
2.178441480758079862e+00
2.178441480758079862e+00
2.178441480758079862e+00
2.101751640369884377e+00
2.101751640369884377e+00
2.101751640369884377e+00
2.101751640369884377e+00
2.473575487533188788e+00
2.473575487533188788e+00
2.473575487533188788e+00
2.374384960478530537e+00
2.374384960478530537e+00
2.374384960478530537e+00
2.271444318979460864e+00
2.271444318979460864e+00
2.271444318979460864e+00
2.271444318979460864e+00
2.275756950590533290e+00
2.275756950590533290e+00
2.275756950590533290e+00
2.254943815424054865e+00
2.254943815424054865e+00
2.254943815424054865e+00
2.254943815424054865e+00
2.248006103701895242e+00
2.248006103701895242e+00
2.248006103701895242e+00
2.259818964201788294e+00
2.259818964201788294e+00
2.259818964201788294e+00
2.380760155034028269e+00
2.380760155034028269e+00
2.380760155034028269e+00
2.380760155034028269e+00
2.290194891201513983e+00
2.290194891201513983e+00
2.290194891201513983e+00
2.246881069368571904e+00
2.246881069368571904e+00
2.246881069368571904e+00
2.239193334757530351e+00
2.239193334757530351e+00
2.239193334757530351e+00
2.239193334757530351e+00
2.267881710257271255e+00
2.267881710257271255e+00
2.267881710257271255e+00
2.124627338480788552e+00
2.124627338480788552e+00
2.124627338480788552e+00
2.162128482924894346e+00
2.162128482924894346e+00
2.162128482924894346e+00
2.162128482924894346e+00
2.539765007477034597e+00
2.539765007477034597e+00
2.539765007477034597e+00
2.306695394756919981e+00
2.306695394756919981e+00
2.306695394756919981e+00
2.232630634479812137e+00
2.232630634479812137e+00
2.232630634479812137e+00
2.232630634479812137e+00
2.221005279702139568e+00
2.221005279702139568e+00
2.221005279702139568e+00
2.210317453535568966e+00
2.210317453535568966e+00
2.210317453535568966e+00
2.232818140202032620e+00
2.232818140202032620e+00
2.232818140202032620e+00
2.232818140202032620e+00
2.250818689535202921e+00
2.250818689535202921e+00
2.250818689535202921e+00
2.393885555589465142e+00
2.393885555589465142e+00
2.393885555589465142e+00
2.248193609424115724e+00
2.248193609424115724e+00
2.248193609424115724e+00
2.248193609424115724e+00
2.237505783257545566e+00
2.237505783257545566e+00
2.237505783257545566e+00
2.274069399090548504e+00
2.274069399090548504e+00
2.274069399090548504e+00
2.288319833979308715e+00
2.288319833979308715e+00
2.288319833979308715e+00
2.288319833979308715e+00
2.162128482924894346e+00
2.162128482924894346e+00
2.162128482924894346e+00
2.319820795312356854e+00
2.319820795312356854e+00
2.319820795312356854e+00
2.500951322977385871e+00
2.500951322977385871e+00
2.500951322977385871e+00
2.500951322977385871e+00
2.278194524979400004e+00
2.278194524979400004e+00
2.278194524979400004e+00
2.254193792535172935e+00
2.254193792535172935e+00
2.254193792535172935e+00
2.225317911313211550e+00
2.225317911313211550e+00
2.225317911313211550e+00
2.225317911313211550e+00
2.211442487868892304e+00
2.211442487868892304e+00
2.211442487868892304e+00
2.254193792535172935e+00
2.254193792535172935e+00
2.254193792535172935e+00
2.314758140812402942e+00
2.314758140812402942e+00
2.314758140812402942e+00
2.314758140812402942e+00
2.358821985534226506e+00
2.358821985534226506e+00
2.358821985534226506e+00
2.255693838312936794e+00
2.255693838312936794e+00
2.255693838312936794e+00
2.255693838312936794e+00
2.244255989257484707e+00
2.244255989257484707e+00
2.244255989257484707e+00
2.272756859035004684e+00
2.272756859035004684e+00
2.272756859035004684e+00
2.209192419202246516e+00
2.209192419202246516e+00
2.209192419202246516e+00
2.209192419202246516e+00
2.114127018036439321e+00
2.114127018036439321e+00
2.114127018036439321e+00
2.413198644978179264e+00
2.413198644978179264e+00
2.413198644978179264e+00
2.412261116367076408e+00
2.412261116367076408e+00
2.412261116367076408e+00
2.412261116367076408e+00
2.256443861201819168e+00
2.256443861201819168e+00
2.256443861201819168e+00
2.241443403424177028e+00
2.241443403424177028e+00
2.241443403424177028e+00
2.224567888424329176e+00
2.224567888424329176e+00
2.224567888424329176e+00
2.224567888424329176e+00
2.217442670979949515e+00
2.217442670979949515e+00
2.217442670979949515e+00
2.245006012146367080e+00
2.245006012146367080e+00
2.245006012146367080e+00
2.351321756645405436e+00
2.351321756645405436e+00
2.351321756645405436e+00
2.351321756645405436e+00
2.308007934812463802e+00
2.308007934812463802e+00
2.308007934812463802e+00
2.240505874813074172e+00
2.240505874813074172e+00
2.240505874813074172e+00
2.240505874813074172e+00
2.242380932035279439e+00
2.242380932035279439e+00
2.242380932035279439e+00
2.291132419812616394e+00
2.291132419812616394e+00
2.291132419812616394e+00
2.153128208258308529e+00
2.153128208258308529e+00
2.153128208258308529e+00
2.153128208258308529e+00
2.113939512314218838e+00
2.113939512314218838e+00
2.113939512314218838e+00
2.536014893032624506e+00
2.536014893032624506e+00
2.536014893032624506e+00
2.350384228034303025e+00
2.350384228034303025e+00
2.350384228034303025e+00
2.350384228034303025e+00
2.266756675923947917e+00
2.266756675923947917e+00
2.266756675923947917e+00
2.263756584368419311e+00
2.263756584368419311e+00
2.263756584368419311e+00
2.231318094424268317e+00
2.231318094424268317e+00
2.231318094424268317e+00
2.231318094424268317e+00
2.295257545701467894e+00
2.295257545701467894e+00
2.295257545701467894e+00
2.249693655201880027e+00
2.249693655201880027e+00
2.249693655201880027e+00
2.387135349589526001e+00
2.387135349589526001e+00
2.387135349589526001e+00
2.387135349589526001e+00
2.261506515701773079e+00
2.261506515701773079e+00
2.261506515701773079e+00
2.237693288979766049e+00
2.237693288979766049e+00
2.237693288979766049e+00
2.233193151646474028e+00
2.233193151646474028e+00
2.233193151646474028e+00
2.233193151646474028e+00
2.260193975646229259e+00
2.260193975646229259e+00
2.260193975646229259e+00
2.117314615314187964e+00
2.117314615314187964e+00
2.117314615314187964e+00
2.232630634479812137e+00
2.232630634479812137e+00
2.232630634479812137e+00
2.232630634479812137e+00
2.548952787865840897e+00
2.548952787865840897e+00
2.548952787865840897e+00
2.309507980590228104e+00
2.309507980590228104e+00
2.309507980590228104e+00
2.257756401257362544e+00
2.257756401257362544e+00
2.257756401257362544e+00
2.257756401257362544e+00
2.255506332590716312e+00
2.255506332590716312e+00
2.255506332590716312e+00
2.235255714590899334e+00
2.235255714590899334e+00
2.235255714590899334e+00
2.237693288979766049e+00
2.237693288979766049e+00
2.237693288979766049e+00
2.237693288979766049e+00
2.263006561479537382e+00
2.263006561479537382e+00
2.263006561479537382e+00
2.388447889645069822e+00
2.388447889645069822e+00
2.388447889645069822e+00
2.388447889645069822e+00
2.255693838312936794e+00
2.255693838312936794e+00
2.255693838312936794e+00
2.245943540757469048e+00
2.245943540757469048e+00
2.245943540757469048e+00
2.266569170201727434e+00
2.266569170201727434e+00
2.266569170201727434e+00
2.266569170201727434e+00
2.217442670979949515e+00
2.217442670979949515e+00
2.217442670979949515e+00
2.101001617481002448e+00
2.101001617481002448e+00
2.101001617481002448e+00
2.339321390423291458e+00
2.339321390423291458e+00
2.339321390423291458e+00
2.339321390423291458e+00
2.455387432477798004e+00
2.455387432477798004e+00
2.455387432477798004e+00
2.258131412701803509e+00
2.258131412701803509e+00
2.258131412701803509e+00
2.239380840479750834e+00
2.239380840479750834e+00
2.239380840479750834e+00
2.239380840479750834e+00
2.232255623035371173e+00
2.232255623035371173e+00
2.232255623035371173e+00
2.227005462813196335e+00
2.227005462813196335e+00
2.227005462813196335e+00
2.256818872646260132e+00
2.256818872646260132e+00
2.256818872646260132e+00
2.256818872646260132e+00
2.340071413312173831e+00
2.340071413312173831e+00
2.340071413312173831e+00
2.346634113589892490e+00
2.346634113589892490e+00
2.346634113589892490e+00
2.264881618701742649e+00
2.264881618701742649e+00
2.264881618701742649e+00
2.264881618701742649e+00
2.241443403424177028e+00
2.241443403424177028e+00
2.241443403424177028e+00
2.279882076479384789e+00
2.279882076479384789e+00
2.279882076479384789e+00
2.180316537980285130e+00
2.180316537980285130e+00
2.180316537980285130e+00
2.180316537980285130e+00
2.100251594592120075e+00
2.100251594592120075e+00
2.100251594592120075e+00
2.465512741477706271e+00
2.465512741477706271e+00
2.465512741477706271e+00
2.465512741477706271e+00
2.360322031311990809e+00
2.360322031311990809e+00
2.360322031311990809e+00
2.248193609424115724e+00
2.248193609424115724e+00
2.248193609424115724e+00
2.253631275368511044e+00
2.253631275368511044e+00
2.253631275368511044e+00
2.253631275368511044e+00
2.252881252479629115e+00
2.252881252479629115e+00
2.252881252479629115e+00
2.237505783257545566e+00
2.237505783257545566e+00
2.237505783257545566e+00
2.261319009979552597e+00
2.261319009979552597e+00
2.261319009979552597e+00
2.261319009979552597e+00
2.374197454756310055e+00
2.374197454756310055e+00
2.374197454756310055e+00
2.297695120090334608e+00
2.297695120090334608e+00
2.297695120090334608e+00
2.263569078646198829e+00
2.263569078646198829e+00
2.263569078646198829e+00
2.250443678090761956e+00
2.250443678090761956e+00
2.250443678090761956e+00
2.250443678090761956e+00
2.270881801812799416e+00
2.270881801812799416e+00
2.270881801812799416e+00
2.125189855647450443e+00
2.125189855647450443e+00
2.125189855647450443e+00
2.154628254036072832e+00
2.154628254036072832e+00
2.154628254036072832e+00
2.154628254036072832e+00
2.550265327921384717e+00
2.550265327921384717e+00
2.550265327921384717e+00
2.319258278145695407e+00
2.319258278145695407e+00
2.319258278145695407e+00
2.244631000701926116e+00
2.244631000701926116e+00
2.244631000701926116e+00
2.244631000701926116e+00
2.235818231757560781e+00
2.235818231757560781e+00
2.235818231757560781e+00
2.216317636646626177e+00
2.216317636646626177e+00
2.216317636646626177e+00
2.243130954924161813e+00
2.243130954924161813e+00
2.243130954924161813e+00
2.243130954924161813e+00
2.266381664479506952e+00
2.266381664479506952e+00
2.266381664479506952e+00
2.414698690755943566e+00
2.414698690755943566e+00
2.414698690755943566e+00
2.270131778923917043e+00
2.270131778923917043e+00
2.270131778923917043e+00
2.270131778923917043e+00
2.243130954924161813e+00
2.243130954924161813e+00
2.243130954924161813e+00
2.262819055757316900e+00
2.262819055757316900e+00
2.262819055757316900e+00
2.262819055757316900e+00
2.269006744590594149e+00
2.269006744590594149e+00
2.269006744590594149e+00
2.113752006591998356e+00
2.113752006591998356e+00
2.113752006591998356e+00
2.281382122257148648e+00
2.281382122257148648e+00
2.281382122257148648e+00
2.281382122257148648e+00
2.497951231421857266e+00
2.497951231421857266e+00
2.497951231421857266e+00
2.270506790368358452e+00
2.270506790368358452e+00
2.270506790368358452e+00
2.230568071535386387e+00
2.230568071535386387e+00
2.230568071535386387e+00
2.230568071535386387e+00
2.209567430646687480e+00
2.209567430646687480e+00
2.209567430646687480e+00
2.196629535813471090e+00
2.196629535813471090e+00
2.196629535813471090e+00
2.216317636646626177e+00
2.216317636646626177e+00
2.216317636646626177e+00
2.216317636646626177e+00
2.273319376201666131e+00
2.273319376201666131e+00
2.273319376201666131e+00
2.358821985534226506e+00
2.358821985534226506e+00
2.358821985534226506e+00
2.256443861201819168e+00
2.256443861201819168e+00
2.256443861201819168e+00
2.256443861201819168e+00
2.269756767479476078e+00
2.269756767479476078e+00
2.269756767479476078e+00
2.321508346812341639e+00
2.321508346812341639e+00
2.321508346812341639e+00
2.256631366924039650e+00
2.256631366924039650e+00
2.256631366924039650e+00
2.256631366924039650e+00
2.139815301980651618e+00
2.139815301980651618e+00
2.139815301980651618e+00
2.433824274422437206e+00
2.433824274422437206e+00
2.433824274422437206e+00
2.433636768700216724e+00
2.433636768700216724e+00
2.433636768700216724e+00
2.433636768700216724e+00
2.274069399090548504e+00
2.274069399090548504e+00
2.274069399090548504e+00
2.255693838312936794e+00
2.255693838312936794e+00
2.255693838312936794e+00
2.226442945646534444e+00
2.226442945646534444e+00
2.226442945646534444e+00
2.226442945646534444e+00
2.230568071535386387e+00
2.230568071535386387e+00
2.230568071535386387e+00
2.258693929868464956e+00
2.258693929868464956e+00
2.258693929868464956e+00
2.355259376812036454e+00
2.355259376812036454e+00
2.355259376812036454e+00
2.355259376812036454e+00
2.302570268868068482e+00
2.302570268868068482e+00
2.302570268868068482e+00
2.231318094424268317e+00
2.231318094424268317e+00
2.231318094424268317e+00
2.236005737479781263e+00
2.236005737479781263e+00
2.236005737479781263e+00
2.236005737479781263e+00
2.275569444868312807e+00
2.275569444868312807e+00
2.275569444868312807e+00
2.153128208258308529e+00
2.153128208258308529e+00
2.153128208258308529e+00
2.153128208258308529e+00
2.103064180425428198e+00
2.103064180425428198e+00
2.103064180425428198e+00
2.518951872310556173e+00
2.518951872310556173e+00
2.518951872310556173e+00
2.344759056367687222e+00
2.344759056367687222e+00
2.344759056367687222e+00
2.258506424146244473e+00
2.258506424146244473e+00
2.258506424146244473e+00
2.258506424146244473e+00
2.248006103701895242e+00
2.248006103701895242e+00
2.248006103701895242e+00
2.221942808313242423e+00
2.221942808313242423e+00
2.221942808313242423e+00
2.221942808313242423e+00
2.242755943479720404e+00
2.242755943479720404e+00
2.242755943479720404e+00
2.271444318979460864e+00
2.271444318979460864e+00
2.271444318979460864e+00
2.413948667867061193e+00
2.413948667867061193e+00
2.413948667867061193e+00
2.413948667867061193e+00
2.289632374034852091e+00
2.289632374034852091e+00
2.289632374034852091e+00
2.254568803979613900e+00
2.254568803979613900e+00
2.254568803979613900e+00
2.241443403424177028e+00
2.241443403424177028e+00
2.241443403424177028e+00
2.241443403424177028e+00
2.272381847590563719e+00
2.272381847590563719e+00
2.272381847590563719e+00
2.100251594592120075e+00
2.100251594592120075e+00
2.100251594592120075e+00
2.197942075869014911e+00
2.197942075869014911e+00
2.197942075869014911e+00
2.197942075869014911e+00
2.516889309366130423e+00
2.516889309366130423e+00
2.516889309366130423e+00
2.294132511368144556e+00
2.294132511368144556e+00
2.294132511368144556e+00
2.257193884090700653e+00
2.257193884090700653e+00
2.257193884090700653e+00
2.257193884090700653e+00
2.241443403424177028e+00
2.241443403424177028e+00
2.241443403424177028e+00
2.224380382702108694e+00
2.224380382702108694e+00
2.224380382702108694e+00
2.224380382702108694e+00
2.240693380535294654e+00
2.240693380535294654e+00
2.240693380535294654e+00
2.280819605090487201e+00
2.280819605090487201e+00
2.280819605090487201e+00
2.397823175756096159e+00
2.397823175756096159e+00
2.397823175756096159e+00
2.397823175756096159e+00
2.250443678090761956e+00
2.250443678090761956e+00
2.250443678090761956e+00
2.235818231757560781e+00
2.235818231757560781e+00
2.235818231757560781e+00
2.242380932035279439e+00
2.242380932035279439e+00
2.242380932035279439e+00
2.242380932035279439e+00
2.206379833368938392e+00
2.206379833368938392e+00
2.206379833368938392e+00
2.108689352092044000e+00
2.108689352092044000e+00
2.108689352092044000e+00
2.373072420422986717e+00
2.373072420422986717e+00
2.373072420422986717e+00
2.373072420422986717e+00
2.484450819421979428e+00
2.484450819421979428e+00
2.484450819421979428e+00
2.288319833979308715e+00
2.288319833979308715e+00
2.288319833979308715e+00
2.266944181646168399e+00
2.266944181646168399e+00
2.266944181646168399e+00
2.266944181646168399e+00
2.229255531479842567e+00
2.229255531479842567e+00
2.229255531479842567e+00
2.215380108035523765e+00
2.215380108035523765e+00
2.215380108035523765e+00
2.241818414868617992e+00
2.241818414868617992e+00
2.241818414868617992e+00
2.241818414868617992e+00
2.320383312479018745e+00
2.320383312479018745e+00
2.320383312479018745e+00
2.340821436201055761e+00
2.340821436201055761e+00
2.340821436201055761e+00
2.244818506424146598e+00
2.244818506424146598e+00
2.244818506424146598e+00
2.244818506424146598e+00
2.224005371257667729e+00
2.224005371257667729e+00
2.224005371257667729e+00
2.265819147312845505e+00
2.265819147312845505e+00
2.265819147312845505e+00
2.188004272591326682e+00
2.188004272591326682e+00
2.188004272591326682e+00
2.188004272591326682e+00
2.125377361369670925e+00
2.125377361369670925e+00
2.125377361369670925e+00
2.489513473921933784e+00
2.489513473921933784e+00
2.489513473921933784e+00
2.391072969756157018e+00
2.391072969756157018e+00
2.391072969756157018e+00
2.391072969756157018e+00
2.261881527146214044e+00
2.261881527146214044e+00
2.261881527146214044e+00
2.253631275368511044e+00
2.253631275368511044e+00
2.253631275368511044e+00
2.242005920590838475e+00
2.242005920590838475e+00
2.242005920590838475e+00
2.242005920590838475e+00
2.243130954924161813e+00
2.243130954924161813e+00
2.243130954924161813e+00
2.256256355479598685e+00
2.256256355479598685e+00
2.256256355479598685e+00
2.371947386089663379e+00
2.371947386089663379e+00
2.371947386089663379e+00
2.371947386089663379e+00
2.293194982757042144e+00
2.293194982757042144e+00
2.293194982757042144e+00
2.245006012146367080e+00
2.245006012146367080e+00
2.245006012146367080e+00
2.245006012146367080e+00
2.237880794701986531e+00
2.237880794701986531e+00
2.237880794701986531e+00
2.283444685201574842e+00
2.283444685201574842e+00
2.283444685201574842e+00
2.144502945036164565e+00
2.144502945036164565e+00
2.144502945036164565e+00
2.144502945036164565e+00
2.160253425702688634e+00
2.160253425702688634e+00
2.160253425702688634e+00
2.532452284310434454e+00
2.532452284310434454e+00
2.532452284310434454e+00
2.329946104312265120e+00
2.329946104312265120e+00
2.329946104312265120e+00
2.329946104312265120e+00
2.265444135868404540e+00
2.265444135868404540e+00
2.265444135868404540e+00
2.257381389812921579e+00
2.257381389812921579e+00
2.257381389812921579e+00
2.240505874813074172e+00
2.240505874813074172e+00
2.240505874813074172e+00
2.240505874813074172e+00
2.259068941312906365e+00
2.259068941312906365e+00
2.259068941312906365e+00
2.265819147312845505e+00
2.265819147312845505e+00
2.265819147312845505e+00
2.403073335978270997e+00
2.403073335978270997e+00
2.403073335978270997e+00
2.403073335978270997e+00
2.259818964201788294e+00
2.259818964201788294e+00
2.259818964201788294e+00
2.245381023590808045e+00
2.245381023590808045e+00
2.245381023590808045e+00
2.253443769646290562e+00
2.253443769646290562e+00
2.253443769646290562e+00
2.253443769646290562e+00
2.256818872646260132e+00
2.256818872646260132e+00
2.256818872646260132e+00
2.095563951536606684e+00
2.095563951536606684e+00
2.095563951536606684e+00
2.270881801812799416e+00
2.270881801812799416e+00
2.270881801812799416e+00
2.270881801812799416e+00
2.497201208532975336e+00
2.497201208532975336e+00
2.497201208532975336e+00
2.283819696646015807e+00
2.283819696646015807e+00
2.283819696646015807e+00
2.283819696646015807e+00
2.251756218146305777e+00
2.251756218146305777e+00
2.251756218146305777e+00
2.236755760368663637e+00
2.236755760368663637e+00
2.236755760368663637e+00
2.217442670979949515e+00
2.217442670979949515e+00
2.217442670979949515e+00
2.217442670979949515e+00
2.227755485702078264e+00
2.227755485702078264e+00
2.227755485702078264e+00
2.297507614368114126e+00
2.297507614368114126e+00
2.297507614368114126e+00
2.373634937589648164e+00
2.373634937589648164e+00
2.373634937589648164e+00
2.373634937589648164e+00
2.258131412701803509e+00
2.258131412701803509e+00
2.258131412701803509e+00
2.250256172368541474e+00
2.250256172368541474e+00
2.250256172368541474e+00
2.280444593646046680e+00
2.280444593646046680e+00
2.280444593646046680e+00
2.280444593646046680e+00
2.212755027924436124e+00
2.212755027924436124e+00
2.212755027924436124e+00
2.111126926480910715e+00
2.111126926480910715e+00
2.111126926480910715e+00
2.404760887478255782e+00
2.404760887478255782e+00
2.404760887478255782e+00
2.404760887478255782e+00
2.421261391033662225e+00
2.421261391033662225e+00
2.421261391033662225e+00
2.260756492812891150e+00
2.260756492812891150e+00
2.260756492812891150e+00
2.249693655201880027e+00
2.249693655201880027e+00
2.249693655201880027e+00
2.249693655201880027e+00
2.226817957090975852e+00
2.226817957090975852e+00
2.226817957090975852e+00
2.221005279702139568e+00
2.221005279702139568e+00
2.221005279702139568e+00
2.259256447035126847e+00
2.259256447035126847e+00
2.259256447035126847e+00
2.259256447035126847e+00
2.363697134311959935e+00
2.363697134311959935e+00
2.363697134311959935e+00
2.331633655812249906e+00
2.331633655812249906e+00
2.331633655812249906e+00
2.331633655812249906e+00
2.244631000701926116e+00
2.244631000701926116e+00
2.244631000701926116e+00
2.230380565813165905e+00
2.230380565813165905e+00
2.230380565813165905e+00
2.269381756035035114e+00
2.269381756035035114e+00
2.269381756035035114e+00
2.269381756035035114e+00
2.151440656758324188e+00
2.151440656758324188e+00
2.151440656758324188e+00
2.105689260536515395e+00
2.105689260536515395e+00
2.105689260536515395e+00
2.503576403088473068e+00
2.503576403088473068e+00
2.503576403088473068e+00
2.503576403088473068e+00
2.337258827478866152e+00
2.337258827478866152e+00
2.337258827478866152e+00
2.243693472090823260e+00
2.243693472090823260e+00
2.243693472090823260e+00
2.231505600146489243e+00
2.231505600146489243e+00
2.231505600146489243e+00
2.231505600146489243e+00
2.213505050813318054e+00
2.213505050813318054e+00
2.213505050813318054e+00
2.233755668813135031e+00
2.233755668813135031e+00
2.233755668813135031e+00
2.256443861201819168e+00
2.256443861201819168e+00
2.256443861201819168e+00
2.256443861201819168e+00
2.401198278756065729e+00
2.401198278756065729e+00
2.401198278756065729e+00
2.295257545701467894e+00
2.295257545701467894e+00
2.295257545701467894e+00
2.295257545701467894e+00
2.276131962034974254e+00
2.276131962034974254e+00
2.276131962034974254e+00
2.271631824701681346e+00
2.271631824701681346e+00
2.271631824701681346e+00
2.297507614368114126e+00
2.297507614368114126e+00
2.297507614368114126e+00
2.297507614368114126e+00
2.122377269814142320e+00
2.122377269814142320e+00
2.122377269814142320e+00
2.206942350535599839e+00
2.206942350535599839e+00
2.206942350535599839e+00
2.532827295754875419e+00
2.532827295754875419e+00
2.532827295754875419e+00
2.532827295754875419e+00
2.303882808923612302e+00
2.303882808923612302e+00
2.303882808923612302e+00
2.260756492812891150e+00
2.260756492812891150e+00
2.260756492812891150e+00
2.242755943479720404e+00
2.242755943479720404e+00
2.242755943479720404e+00
2.242755943479720404e+00
2.223067842646564873e+00
2.223067842646564873e+00
2.223067842646564873e+00
2.244255989257484707e+00
2.244255989257484707e+00
2.244255989257484707e+00
2.270694296090578934e+00
2.270694296090578934e+00
2.270694296090578934e+00
2.270694296090578934e+00
2.390697958311716054e+00
2.390697958311716054e+00
2.390697958311716054e+00
2.254381298257393418e+00
2.254381298257393418e+00
2.254381298257393418e+00
2.242005920590838475e+00
2.242005920590838475e+00
2.242005920590838475e+00
2.242005920590838475e+00
2.261506515701773079e+00
2.261506515701773079e+00
2.261506515701773079e+00
2.226630451368755370e+00
2.226630451368755370e+00
2.226630451368755370e+00
2.099126560258797181e+00
2.099126560258797181e+00
2.099126560258797181e+00
2.099126560258797181e+00
2.324883449812311209e+00
2.324883449812311209e+00
2.324883449812311209e+00
2.461950132755516218e+00
2.461950132755516218e+00
2.461950132755516218e+00
2.276694479201635701e+00
2.276694479201635701e+00
2.276694479201635701e+00
2.276694479201635701e+00
2.267881710257271255e+00
2.267881710257271255e+00
2.267881710257271255e+00
2.256631366924039650e+00
2.256631366924039650e+00
2.256631366924039650e+00
2.253256263924070080e+00
2.253256263924070080e+00
2.253256263924070080e+00
2.253256263924070080e+00
2.278569536423841413e+00
2.278569536423841413e+00
2.278569536423841413e+00
2.352071779534287366e+00
2.352071779534287366e+00
2.352071779534287366e+00
2.368384777367473326e+00
2.368384777367473326e+00
2.368384777367473326e+00
2.368384777367473326e+00
2.260381481368449741e+00
2.260381481368449741e+00
2.260381481368449741e+00
2.242005920590838475e+00
2.242005920590838475e+00
2.242005920590838475e+00
2.259818964201788294e+00
2.259818964201788294e+00
2.259818964201788294e+00
2.259818964201788294e+00
2.173378826258125951e+00
2.173378826258125951e+00
2.173378826258125951e+00
2.101939146092104860e+00
2.101939146092104860e+00
2.101939146092104860e+00
2.460825098422192880e+00
2.460825098422192880e+00
2.375509994811853431e+00
2.375509994811853431e+00
2.247631092257453833e+00
2.247631092257453833e+00
2.256443861201819168e+00
2.256443861201819168e+00
2.256443861201819168e+00
2.236193243202001746e+00
2.236193243202001746e+00
2.230380565813165905e+00
2.230380565813165905e+00
2.259631458479567812e+00
2.259631458479567812e+00
2.384135258033997840e+00
2.384135258033997840e+00
2.304820337534714714e+00
2.304820337534714714e+00
2.257943906979583026e+00
2.257943906979583026e+00
2.243880977813043742e+00
2.243880977813043742e+00
2.281382122257148648e+00
2.281382122257148648e+00
2.281382122257148648e+00
2.131940061647389140e+00
2.131940061647389140e+00
2.142627887813959298e+00
2.142627887813959298e+00
2.534139835810419239e+00
2.534139835810419239e+00
2.316445692312387283e+00
2.316445692312387283e+00
2.257193884090700653e+00
2.257193884090700653e+00
2.251193700979644330e+00
2.251193700979644330e+00
2.236380748924222672e+00
2.236380748924222672e+00
2.256631366924039650e+00
2.256631366924039650e+00
2.256631366924039650e+00
2.268069215979491737e+00
2.268069215979491737e+00
2.403260841700491479e+00
2.403260841700491479e+00
2.247256080813012868e+00
2.247256080813012868e+00
2.230380565813165905e+00
2.230380565813165905e+00
2.238255806146427940e+00
2.238255806146427940e+00
2.260193975646229259e+00
2.260193975646229259e+00
2.096126468703268575e+00
2.096126468703268575e+00
2.257756401257362544e+00
2.257756401257362544e+00
2.257756401257362544e+00
2.496826197088534371e+00
2.496826197088534371e+00
2.264881618701742649e+00
2.264881618701742649e+00
2.238630817590868904e+00
2.238630817590868904e+00
2.217442670979949515e+00
2.217442670979949515e+00
2.216505142368846659e+00
2.216505142368846659e+00
2.258506424146244473e+00
2.258506424146244473e+00
2.320758323923459709e+00
2.320758323923459709e+00
2.405323404644917229e+00
2.405323404644917229e+00
2.405323404644917229e+00
2.275194433423871843e+00
2.275194433423871843e+00
2.265819147312845505e+00
2.265819147312845505e+00
2.285319742423780109e+00
2.285319742423780109e+00
2.222130314035462462e+00
2.222130314035462462e+00
2.090876308481094181e+00
2.090876308481094181e+00
2.369322305978576182e+00
2.369322305978576182e+00
2.432886745811334794e+00
2.432886745811334794e+00
2.271444318979460864e+00
2.271444318979460864e+00
2.271444318979460864e+00
2.255506332590716312e+00
2.255506332590716312e+00
2.212005005035553751e+00
2.212005005035553751e+00
2.204504776146733125e+00
2.204504776146733125e+00
2.230380565813165905e+00
2.230380565813165905e+00
2.332946195867793726e+00
2.332946195867793726e+00
2.311383037812433372e+00
2.311383037812433372e+00
2.242755943479720404e+00
2.242755943479720404e+00
2.242755943479720404e+00
2.228130497146519229e+00
2.228130497146519229e+00
2.263944090090640238e+00
2.263944090090640238e+00
2.153315713980529011e+00
2.153315713980529011e+00
2.092001342814417075e+00
2.092001342814417075e+00
2.485950865199743731e+00
2.485950865199743731e+00
2.311383037812433372e+00
2.311383037812433372e+00
2.225692922757652514e+00
2.225692922757652514e+00
2.231880611590930208e+00
2.231880611590930208e+00
2.207317361980041248e+00
2.207317361980041248e+00
2.207317361980041248e+00
2.233380657368694511e+00
2.233380657368694511e+00
2.262444044312875935e+00
2.262444044312875935e+00
2.372884914700766235e+00
2.372884914700766235e+00
2.260943998535111632e+00
2.260943998535111632e+00
2.261694021423993561e+00
2.261694021423993561e+00
2.272944364757225166e+00
2.272944364757225166e+00
2.311008026367992407e+00
2.311008026367992407e+00
2.139252784813989727e+00
2.139252784813989727e+00
2.236943266090884119e+00
2.236943266090884119e+00
2.575016083254493715e+00
2.575016083254493715e+00
2.575016083254493715e+00
2.329571092867824156e+00
2.329571092867824156e+00
2.273694387646107540e+00
2.273694387646107540e+00
2.240318369090853690e+00
2.240318369090853690e+00
2.206754844813379357e+00
2.206754844813379357e+00
2.207692373424482213e+00
2.207692373424482213e+00
2.208442396313364142e+00
2.208442396313364142e+00
2.334258735923337547e+00
2.334258735923337547e+00
2.197192052980132537e+00
2.197192052980132537e+00
2.197192052980132537e+00
2.196442030091250608e+00
2.196442030091250608e+00
2.222692831202123909e+00
2.222692831202123909e+00
2.212192510757774677e+00
2.212192510757774677e+00
2.086376171147801273e+00
2.086376171147801273e+00
2.326383495590075512e+00
2.326383495590075512e+00
2.487450910977508034e+00
2.487450910977508034e+00
2.277069490646077110e+00
2.277069490646077110e+00
2.233755668813135031e+00
2.233755668813135031e+00
2.233755668813135031e+00
2.202254707480086449e+00
2.202254707480086449e+00
2.179941526535844165e+00
2.179941526535844165e+00
2.203192236091189304e+00
2.203192236091189304e+00
2.313070589312418157e+00
2.313070589312418157e+00
2.348509170812097757e+00
2.348509170812097757e+00
2.268819238868374111e+00
2.268819238868374111e+00
2.282694662312692468e+00
2.282694662312692468e+00
2.301632740256966070e+00
2.301632740256966070e+00
2.301632740256966070e+00
2.223630359813226764e+00
2.223630359813226764e+00
2.170753746147038310e+00
2.170753746147038310e+00
2.551765373699148576e+00
2.551765373699148576e+00
2.481075716422009858e+00
2.481075716422009858e+00
2.325258461256752618e+00
2.325258461256752618e+00
2.289632374034852091e+00
2.289632374034852091e+00
2.212005005035553751e+00
2.212005005035553751e+00
2.177878963591417971e+00
2.177878963591417971e+00
2.193816949980162967e+00
2.193816949980162967e+00
2.193816949980162967e+00
2.330321115756706529e+00
2.251381206701864812e+00
2.251381206701864812e+00
2.251381206701864812e+00
2.221567796868801015e+00
2.221567796868801015e+00
2.254006286812952009e+00
2.254006286812952009e+00
2.291507431257057803e+00
2.291507431257057803e+00
2.112626972258675018e+00
2.112626972258675018e+00
2.080750999481185470e+00
2.080750999481185470e+00
2.524014526810510528e+00
2.524014526810510528e+00
2.355259376812036454e+00
2.355259376812036454e+00
2.331821161534470832e+00
2.331821161534470832e+00
2.331821161534470832e+00
2.321133335367900674e+00
2.321133335367900674e+00
2.273131870479445649e+00
2.273131870479445649e+00
2.304445326090273749e+00
2.304445326090273749e+00
2.318320749534592551e+00
2.318320749534592551e+00
2.398010681478316641e+00
2.398010681478316641e+00
2.213880062257759462e+00
2.213880062257759462e+00
2.212192510757774677e+00
2.212192510757774677e+00
2.246131046479689974e+00
2.246131046479689974e+00
2.246131046479689974e+00
2.299195165868098911e+00
2.299195165868098911e+00
2.134752647480697263e+00
2.134752647480697263e+00
2.251568712424085295e+00
2.251568712424085295e+00
2.500013794366283459e+00
2.500013794366283459e+00
2.310445509201330516e+00
2.310445509201330516e+00
2.316820703756828248e+00
2.316820703756828248e+00
2.306507889034699499e+00
2.306507889034699499e+00
2.305945371868038052e+00
2.305945371868038052e+00
2.305945371868038052e+00
2.384135258033997840e+00
2.384135258033997840e+00
2.400073244422742391e+00
2.400073244422742391e+00
2.388822901089510786e+00
2.388822901089510786e+00
2.227005462813196335e+00
2.227005462813196335e+00
2.206754844813379357e+00
2.206754844813379357e+00
2.213880062257759462e+00
2.213880062257759462e+00
2.153503219702749494e+00
2.153503219702749494e+00
2.044562395092623941e+00
2.044562395092623941e+00
2.361447065645314147e+00
2.361447065645314147e+00
2.361447065645314147e+00
2.422011413922543710e+00
2.422011413922543710e+00
2.252506241035188150e+00
2.252506241035188150e+00
2.263756584368419311e+00
2.263756584368419311e+00
2.257756401257362544e+00
2.257756401257362544e+00
2.234318185979796478e+00
2.234318185979796478e+00
2.248381115146336207e+00
2.248381115146336207e+00
2.344196539201025331e+00
2.344196539201025331e+00
2.327696035645618888e+00
2.327696035645618888e+00
2.327696035645618888e+00
2.242755943479720404e+00
2.242755943479720404e+00
2.241255897701956545e+00
2.241255897701956545e+00
2.302570268868068482e+00
2.302570268868068482e+00
2.182566606646931362e+00
2.182566606646931362e+00
2.107751823480941145e+00
2.107751823480941145e+00
2.515389263588366120e+00
2.515389263588366120e+00
2.364259651478621826e+00
2.364259651478621826e+00
2.274631916257209951e+00
2.274631916257209951e+00
2.296007568590349823e+00
2.296007568590349823e+00
2.269006744590594149e+00
2.269006744590594149e+00
2.269006744590594149e+00
2.232255623035371173e+00
2.232255623035371173e+00
2.206754844813379357e+00
2.206754844813379357e+00
2.332758690145573244e+00
2.332758690145573244e+00
2.222505325479903426e+00
2.222505325479903426e+00
2.206567339091158875e+00
2.206567339091158875e+00
2.225317911313211550e+00
2.225317911313211550e+00
2.269756767479476078e+00
2.269756767479476078e+00
2.124627338480788552e+00
2.124627338480788552e+00
2.207129856257820322e+00
2.207129856257820322e+00
2.207129856257820322e+00
2.567890865810114054e+00
2.567890865810114054e+00
2.356009399700918827e+00
2.356009399700918827e+00
2.281569627979369130e+00
2.281569627979369130e+00
2.259631458479567812e+00
2.259631458479567812e+00
2.221005279702139568e+00
2.221005279702139568e+00
2.229068025757622085e+00
2.229068025757622085e+00
2.244255989257484707e+00
2.244255989257484707e+00
2.244255989257484707e+00
2.387135349589526001e+00
2.387135349589526001e+00
2.252506241035188150e+00
2.252506241035188150e+00
2.227192968535416817e+00
2.227192968535416817e+00
2.251193700979644330e+00
2.251193700979644330e+00
2.227005462813196335e+00
2.227005462813196335e+00
2.130627521591845319e+00
2.130627521591845319e+00
2.296382580034791232e+00
2.296382580034791232e+00
2.400823267311624321e+00
2.400823267311624321e+00
2.203004730368968822e+00
2.203004730368968822e+00
2.203004730368968822e+00
2.209567430646687480e+00
2.209567430646687480e+00
2.207504867702261730e+00
2.207504867702261730e+00
2.234318185979796478e+00
2.234318185979796478e+00
2.271444318979460864e+00
2.271444318979460864e+00
2.363134617145298488e+00
2.363134617145298488e+00
2.432699240089114312e+00
2.432699240089114312e+00
2.302945280312509890e+00
2.302945280312509890e+00
2.257756401257362544e+00
2.257756401257362544e+00
2.257756401257362544e+00
2.288882351145970162e+00
2.288882351145970162e+00
2.205629810480056463e+00
2.205629810480056463e+00
2.119189672536393232e+00
2.119189672536393232e+00
2.471137913144322074e+00
2.471137913144322074e+00
2.382447706534013054e+00
2.382447706534013054e+00
2.253443769646290562e+00
2.253443769646290562e+00
2.280444593646046680e+00
2.280444593646046680e+00
2.302945280312509890e+00
2.302945280312509890e+00
2.302945280312509890e+00
2.323570909756767389e+00
2.323570909756767389e+00
2.329571092867824156e+00
2.329571092867824156e+00
2.445449629200109776e+00
2.445449629200109776e+00
2.356946928312021239e+00
2.356946928312021239e+00
2.250631183812982439e+00
2.250631183812982439e+00
2.251943723868526259e+00
2.251943723868526259e+00
2.314945646534623425e+00
2.314945646534623425e+00
2.168316171758171151e+00
2.168316171758171151e+00
2.168316171758171151e+00
2.146378002258369833e+00
2.146378002258369833e+00
2.519701895199438546e+00
2.519701895199438546e+00
2.277819513534959039e+00
2.277819513534959039e+00
2.200567155980101663e+00
2.200567155980101663e+00
2.215005096591082356e+00
2.215005096591082356e+00
2.209567430646687480e+00
2.209567430646687480e+00
2.205629810480056463e+00
2.205629810480056463e+00
2.187816766869105756e+00
2.187816766869105756e+00
2.187816766869105756e+00
2.336133793145542814e+00
2.336133793145542814e+00
2.226067934202093479e+00
2.226067934202093479e+00
2.216692648091067142e+00
2.216692648091067142e+00
2.215380108035523765e+00
2.215380108035523765e+00
2.196817041535691573e+00
2.196817041535691573e+00
2.022436719870601696e+00
2.022436719870601696e+00
2.172066286202582130e+00
2.172066286202582130e+00
2.470575395977660182e+00
2.470575395977660182e+00
2.470575395977660182e+00
2.345134067812128187e+00
2.345134067812128187e+00
2.290757408368175430e+00
2.290757408368175430e+00
2.233943174535355514e+00
2.233943174535355514e+00
2.227005462813196335e+00
2.227005462813196335e+00
2.255131321146275347e+00
2.255131321146275347e+00
2.317570726645710621e+00
2.317570726645710621e+00
2.405323404644917229e+00
2.405323404644917229e+00
2.247256080813012868e+00
2.247256080813012868e+00
2.170753746147038310e+00
2.170753746147038310e+00
2.155565782647175688e+00
2.155565782647175688e+00
2.066125553147984295e+00
2.066125553147984295e+00
1.920996124149296547e+00
1.920996124149296547e+00
2.152003173924985191e+00
2.152003173924985191e+00
2.259818964201788294e+00
2.259818964201788294e+00
2.259818964201788294e+00
2.186879238258003344e+00
2.186879238258003344e+00
2.271631824701681346e+00
2.271631824701681346e+00
2.298820154423657947e+00
2.298820154423657947e+00
2.299382671590319838e+00
2.299382671590319838e+00
2.366509720145268059e+00
2.366509720145268059e+00
2.500763817255165389e+00
2.500763817255165389e+00
2.479388164922025517e+00
2.479388164922025517e+00
2.364634662923062791e+00
2.364634662923062791e+00
2.364634662923062791e+00
2.319820795312356854e+00
2.319820795312356854e+00
2.363884640034180418e+00
2.363884640034180418e+00
2.240130863368633207e+00
2.240130863368633207e+00
2.153690725424969976e+00
2.153690725424969976e+00
2.577828669087801838e+00
2.577828669087801838e+00
2.425199011200292798e+00
2.425199011200292798e+00
2.314383129367961978e+00
2.314383129367961978e+00
2.313445600756859122e+00
2.313445600756859122e+00
2.283069673757133433e+00
2.261506515701773079e+00
2.261506515701773079e+00
2.300695211645863214e+00
2.476950590533158358e+00
2.476950590533158358e+00
2.369134800256355700e+00
2.369134800256355700e+00
2.272381847590563719e+00
2.182004089480269915e+00
2.182004089480269915e+00
2.188004272591326682e+00
2.029749443037202283e+00
2.029749443037202283e+00
2.095001434369945237e+00
2.460450086977751916e+00
2.460450086977751916e+00
2.223442854091006282e+00
2.187816766869105756e+00
2.187816766869105756e+00
2.193254432813501520e+00
2.204504776146733125e+00
2.204504776146733125e+00
2.274819421979430434e+00
2.350196722312082542e+00
2.350196722312082542e+00
2.473762993255409270e+00
2.285319742423780109e+00
2.285319742423780109e+00
2.250631183812982439e+00
2.215380108035523765e+00
2.215380108035523765e+00
2.067063081759087151e+00
1.865119418927579709e+00
1.865119418927579709e+00
2.038562211981566730e+00
2.186691732535783306e+00
2.186691732535783306e+00
2.033687063203833301e+00
2.104939237647633021e+00
2.104939237647633021e+00
2.199442121646778769e+00
2.268444227423932702e+00
2.268444227423932702e+00
2.409448530533769173e+00
2.590204046754356337e+00
2.590204046754356337e+00
2.659018646809289788e+00
2.587016449476607249e+00
2.587016449476607249e+00
2.524952055421613384e+00
2.455199926755577522e+00
2.455199926755577522e+00
2.269381756035035114e+00
2.064625507370219992e+00
2.064625507370219992e+00
2.372134891811884305e+00
2.358821985534226506e+00
2.358821985534226506e+00
2.224380382702108694e+00
2.205817316202276945e+00
2.205817316202276945e+00
2.208067384868923178e+00
2.250068666646320992e+00
2.250068666646320992e+00
2.280444593646046680e+00
2.370259834589678594e+00
2.370259834589678594e+00
2.260006469924008776e+00
2.176003906369212704e+00
2.176003906369212704e+00
2.170191228980376863e+00
2.193441938535722002e+00
2.193441938535722002e+00
2.051875118259224084e+00
2.062562944425794242e+00
2.062562944425794242e+00
2.483513290810876573e+00
2.328446058534500818e+00
2.328446058534500818e+00
2.316445692312387283e+00
2.414698690755943566e+00
2.414698690755943566e+00
2.463825189977721486e+00
2.487825922421948999e+00
2.487825922421948999e+00
2.457074983977782345e+00
2.529264687032685366e+00
2.529264687032685366e+00
2.307820429090243319e+00
2.198879604480116878e+00
2.198879604480116878e+00
2.161565965758232455e+00
2.226817957090975852e+00
2.226817957090975852e+00
2.085626148258918899e+00
2.228880520035401602e+00
2.228880520035401602e+00
2.500201300088503942e+00
2.279132053590502860e+00
2.279132053590502860e+00
2.250631183812982439e+00
2.193816949980162967e+00
2.193816949980162967e+00
2.133627613147373925e+00
2.148253059480575100e+00
2.148253059480575100e+00
2.230380565813165905e+00
2.318320749534592551e+00
2.318320749534592551e+00
2.207692373424482213e+00
2.198317087313455875e+00
2.198317087313455875e+00
2.246318552201910457e+00
2.203004730368968822e+00
2.203004730368968822e+00
2.052250129703665493e+00
2.226817957090975852e+00
2.226817957090975852e+00
2.266006653035065987e+00
2.175816400646992221e+00
2.175816400646992221e+00
2.201692190313425002e+00
2.201692190313425002e+00
2.112439466536454535e+00
2.112439466536454535e+00
2.116377086703085553e+00
2.116377086703085553e+00
2.284194708090456771e+00
2.284194708090456771e+00
2.472450453199865894e+00
2.472450453199865894e+00
2.500951322977385871e+00
2.500951322977385871e+00
2.348884182256538722e+00
2.348884182256538722e+00
2.193629444257942485e+00
2.193629444257942485e+00
2.182566606646931362e+00
2.182566606646931362e+00
2.182566606646931362e+00
2.063687978759117581e+00
2.063687978759117581e+00
2.127814935758537640e+00
2.127814935758537640e+00
2.668393932920316125e+00
2.668393932920316125e+00
2.602204412976470316e+00
2.602204412976470316e+00
2.447324686422315043e+00
2.447324686422315043e+00
2.389760429700613198e+00
2.389760429700613198e+00
2.263569078646198829e+00
2.263569078646198829e+00
2.263569078646198829e+00
2.156503311258278099e+00
2.156503311258278099e+00
2.130065004425183872e+00
2.130065004425183872e+00
2.235255714590899334e+00
2.235255714590899334e+00
2.184441663869136629e+00
2.184441663869136629e+00
2.141877864925076924e+00
2.141877864925076924e+00
2.045687429425947279e+00
2.045687429425947279e+00
2.048312509537034032e+00
2.048312509537034032e+00
1.944246833704641908e+00
1.944246833704641908e+00
2.098939054536576698e+00
2.098939054536576698e+00
2.098939054536576698e+00
2.593766655476546834e+00
2.593766655476546834e+00
2.473575487533188788e+00
2.473575487533188788e+00
2.494201116977446731e+00
2.494201116977446731e+00
2.450512283700064131e+00
2.450512283700064131e+00
2.397448164311655194e+00
2.397448164311655194e+00
2.406448438978240567e+00
2.406448438978240567e+00
2.452387340922269399e+00
2.452387340922269399e+00
2.595641712698752102e+00
2.595641712698752102e+00
2.595641712698752102e+00
2.402698324533829588e+00
2.402698324533829588e+00
2.320008301034577336e+00
2.320008301034577336e+00
2.302757774590289408e+00
2.302757774590289408e+00
2.278569536423841413e+00
2.278569536423841413e+00
2.140940336313974068e+00
2.140940336313974068e+00
2.328258552812280335e+00
2.328258552812280335e+00
2.458387524033326166e+00
2.458387524033326166e+00
2.240318369090853690e+00
2.240318369090853690e+00
2.240318369090853690e+00
2.123502304147465658e+00
2.123502304147465658e+00
1.935246559038056535e+00
1.935246559038056535e+00
1.813180333872493666e+00
1.813180333872493666e+00
1.910870815149388058e+00
1.910870815149388058e+00
2.045687429425947279e+00
2.045687429425947279e+00
2.067250587481307633e+00
2.067250587481307633e+00
2.060687887203588975e+00
2.060687887203588975e+00
2.281194616534928166e+00
2.281194616534928166e+00
2.281194616534928166e+00
2.425199011200292798e+00
2.425199011200292798e+00
2.414511185033723084e+00
2.414511185033723084e+00
2.385260292367321178e+00
2.385260292367321178e+00
2.773959654530472552e+00
2.773959654530472552e+00
2.652830957976012538e+00
2.652830957976012538e+00
2.376260017700735361e+00
2.376260017700735361e+00
2.290569902645954947e+00
2.290569902645954947e+00
2.257568895535142062e+00
2.257568895535142062e+00
2.257568895535142062e+00
2.209192419202246516e+00
2.209192419202246516e+00
2.193629444257942485e+00
2.193629444257942485e+00
2.290382396923734465e+00
2.290382396923734465e+00
2.257943906979583026e+00
2.257943906979583026e+00
2.192504409924619146e+00
2.192504409924619146e+00
2.175441389202551257e+00
2.175441389202551257e+00
2.083376079592272667e+00
2.083376079592272667e+00
1.982685506759849892e+00
1.982685506759849892e+00
2.000311044648579006e+00
2.000311044648579006e+00
2.353196813867610704e+00
2.353196813867610704e+00
2.353196813867610704e+00
2.125377361369670925e+00
2.125377361369670925e+00
2.095563951536606684e+00
2.095563951536606684e+00
2.087126194036683202e+00
2.087126194036683202e+00
2.082251045258949329e+00
2.082251045258949329e+00
2.223630359813226764e+00
2.223630359813226764e+00
2.326195989867855030e+00
2.326195989867855030e+00
2.447324686422315043e+00
2.447324686422315043e+00
2.313258095034638639e+00
2.313258095034638639e+00
2.313258095034638639e+00
2.326383495590075512e+00
2.326383495590075512e+00
2.421261391033662225e+00
2.421261391033662225e+00
2.489325968199713301e+00
2.489325968199713301e+00
2.262256538590655452e+00
2.262256538590655452e+00
2.300695211645863214e+00
2.300695211645863214e+00
2.540890041810357936e+00
2.540890041810357936e+00
2.353946836756492633e+00
2.353946836756492633e+00
2.296945097201452679e+00
2.296945097201452679e+00
2.296945097201452679e+00
2.300132694479201767e+00
2.300132694479201767e+00
2.300132694479201767e+00
2.300132694479201767e+00
2.399510727256080500e+00
2.399510727256080500e+00
2.430824182866909045e+00
2.430824182866909045e+00
2.428949125644703777e+00
2.428949125644703777e+00
2.213880062257759462e+00
2.213880062257759462e+00
2.153503219702749494e+00
2.153503219702749494e+00
2.191004364146854844e+00
2.191004364146854844e+00
2.191004364146854844e+00
2.230568071535386387e+00
2.230568071535386387e+00
2.184816675313578038e+00
2.184816675313578038e+00
2.468325327311013950e+00
2.468325327311013950e+00
2.528139652699362028e+00
2.528139652699362028e+00
2.380572649311807787e+00
2.380572649311807787e+00
2.383760246589556875e+00
2.383760246589556875e+00
2.272756859035004684e+00
2.272756859035004684e+00
2.092376354258858040e+00
2.092376354258858040e+00
2.092376354258858040e+00
2.072875759147922992e+00
2.072875759147922992e+00
2.095001434369945237e+00
2.095001434369945237e+00
1.956059694204534960e+00
1.956059694204534960e+00
1.778304269539475735e+00
1.778304269539475735e+00
1.679676259651478709e+00
1.679676259651478709e+00
1.758616168706320426e+00
1.758616168706320426e+00
1.869807061983092877e+00
1.869807061983092877e+00
2.044749900814844423e+00
2.044749900814844423e+00
2.524014526810510528e+00
2.524014526810510528e+00
2.198504593035676358e+00
2.198504593035676358e+00
2.198504593035676358e+00
2.003311136204107612e+00
2.003311136204107612e+00
2.193629444257942485e+00
2.193629444257942485e+00
2.379635120700704931e+00
2.379635120700704931e+00
2.463262672811060039e+00
2.463262672811060039e+00
2.593391644032105425e+00
2.593391644032105425e+00
2.851024506363109445e+00
2.851024506363109445e+00
2.863212378307443462e+00
2.863212378307443462e+00
2.947402447584460017e+00
2.947402447584460017e+00
2.947402447584460017e+00
2.892088259529404404e+00
2.892088259529404404e+00
2.881400433362834690e+00
2.881400433362834690e+00
2.498138737144077748e+00
2.498138737144077748e+00
2.257193884090700653e+00
2.257193884090700653e+00
2.436261848811303921e+00
2.436261848811303921e+00
2.153878231147190458e+00
2.153878231147190458e+00
2.192316904202398664e+00
2.192316904202398664e+00
2.192316904202398664e+00
2.179941526535844165e+00
2.179941526535844165e+00
2.150128116702780368e+00
2.150128116702780368e+00
2.130440015869624837e+00
2.130440015869624837e+00
2.114689535203100768e+00
2.114689535203100768e+00
2.080563493758964988e+00
2.080563493758964988e+00
1.923433698538163483e+00
1.923433698538163483e+00
1.965247474593341037e+00
1.965247474593341037e+00
2.102126651814325342e+00
2.102126651814325342e+00
2.102126651814325342e+00
2.281007110812707683e+00
2.281007110812707683e+00
2.308570451979125249e+00
2.308570451979125249e+00
2.542390087588122238e+00
2.542390087588122238e+00
2.516326792199468976e+00
2.516326792199468976e+00
2.072125736259041062e+00
2.072125736259041062e+00
2.003873653370769503e+00
2.003873653370769503e+00
2.048687520981474997e+00
2.048687520981474997e+00
2.034062074648274265e+00
2.034062074648274265e+00
2.034062074648274265e+00
2.109814386425366894e+00
2.109814386425366894e+00
2.245568529313028083e+00
2.245568529313028083e+00
2.434761803033539618e+00
2.434761803033539618e+00
2.438136906033509188e+00
2.438136906033509188e+00
2.404948393200476264e+00
2.404948393200476264e+00
2.268819238868374111e+00
2.268819238868374111e+00
2.170753746147038310e+00
2.170753746147038310e+00
2.062375438703573760e+00
2.062375438703573760e+00
2.388822901089510786e+00
2.388822901089510786e+00
2.388822901089510786e+00
2.290944914090395912e+00
2.290944914090395912e+00
2.110564409314249268e+00
2.110564409314249268e+00
2.188191778313547164e+00
2.188191778313547164e+00
2.239568346201971760e+00
2.239568346201971760e+00
2.300132694479201767e+00
2.300132694479201767e+00
2.434199285866878171e+00
2.434199285866878171e+00
2.469262855922116806e+00
2.469262855922116806e+00
2.199067110202337361e+00
2.199067110202337361e+00
1.970685140537736135e+00
1.970685140537736135e+00
1.970685140537736135e+00
1.938246650593584919e+00
1.938246650593584919e+00
1.996560930204168693e+00
1.996560930204168693e+00
1.934684041871395088e+00
1.934684041871395088e+00
2.001623584704122827e+00
2.001623584704122827e+00
2.566578325754570233e+00
2.566578325754570233e+00
2.455574938200018487e+00
2.455574938200018487e+00
2.320008301034577336e+00
2.320008301034577336e+00
2.302570268868068482e+00
2.302570268868068482e+00
2.302570268868068482e+00
2.330133610034486047e+00
2.330133610034486047e+00
2.400073244422742391e+00
2.400073244422742391e+00
2.158378368480483367e+00
2.158378368480483367e+00
2.037249671926022909e+00
2.037249671926022909e+00
2.035749626148258606e+00
2.035749626148258606e+00
2.161190954313791490e+00
2.161190954313791490e+00
2.344384044923245813e+00
2.344384044923245813e+00
2.647580797753837700e+00
2.647580797753837700e+00
2.647580797753837700e+00
2.637830500198370398e+00
2.637830500198370398e+00
2.743021210364085860e+00
2.743021210364085860e+00
2.911026337473678005e+00
2.911026337473678005e+00
2.530389721366008260e+00
2.530389721366008260e+00
2.268444227423932702e+00
2.268444227423932702e+00
2.074938322092349186e+00
2.074938322092349186e+00
2.012123905148472502e+00
2.012123905148472502e+00
2.003498641926328094e+00
2.003498641926328094e+00
2.003498641926328094e+00
1.926246284371471162e+00
1.926246284371471162e+00
2.156690816980498582e+00
2.156690816980498582e+00
2.362197088534196077e+00
2.362197088534196077e+00
2.639518051698355183e+00
2.639518051698355183e+00
2.709270180364391045e+00
2.709270180364391045e+00
2.578578691976683768e+00
2.578578691976683768e+00
2.259818964201788294e+00
2.259818964201788294e+00
2.418261299478133619e+00
2.418261299478133619e+00
2.217442670979949515e+00
2.217442670979949515e+00
1.834368480483413277e+00
1.834368480483413277e+00
1.834368480483413277e+00
1.847118869594408963e+00
1.847118869594408963e+00
1.764803857539597898e+00
1.764803857539597898e+00
1.646112735374004377e+00
1.646112735374004377e+00
1.641612598040711690e+00
1.641612598040711690e+00
1.798179876094851526e+00
1.798179876094851526e+00
1.948934476760155077e+00
1.948934476760155077e+00
1.929621387371440955e+00
1.929621387371440955e+00
2.098564043092135289e+00
2.098564043092135289e+00
2.098564043092135289e+00
2.693707205420087014e+00
2.693707205420087014e+00
2.957715262306589210e+00
2.957715262306589210e+00
3.031217505417035163e+00
3.031217505417035163e+00
3.522857509079256655e+00
3.522857509079256655e+00
3.189659840693380488e+00
3.189659840693380488e+00
2.875400250251777923e+00
2.875400250251777923e+00
2.679831781975768212e+00
2.679831781975768212e+00
2.373259926145207199e+00
2.373259926145207199e+00
2.373259926145207199e+00
2.163253517258217240e+00
2.163253517258217240e+00
2.180316537980285130e+00
2.180316537980285130e+00
2.377010040589617734e+00
2.377010040589617734e+00
2.290382396923734465e+00
2.290382396923734465e+00
2.175253883480330774e+00
2.175253883480330774e+00
2.079625965147862576e+00
2.079625965147862576e+00
2.233380657368694511e+00
2.233380657368694511e+00
2.184816675313578038e+00
2.184816675313578038e+00
2.184816675313578038e+00
2.378322580645161111e+00
2.378322580645161111e+00
2.767209448530533855e+00
2.767209448530533855e+00
2.263006561479537382e+00
2.263006561479537382e+00
1.974060243537705706e+00
1.974060243537705706e+00
1.887057588427381249e+00
1.887057588427381249e+00
1.846556352427747516e+00
1.846556352427747516e+00
2.029936948759422766e+00
2.029936948759422766e+00
2.123127292703024249e+00
2.123127292703024249e+00
2.123127292703024249e+00
2.413011139255958781e+00
2.413011139255958781e+00
2.217442670979949515e+00
2.217442670979949515e+00
1.956809717093417111e+00
1.956809717093417111e+00
1.882182439649647598e+00
1.882182439649647598e+00
2.004623676259651432e+00
2.004623676259651432e+00
1.700864406262398099e+00
1.700864406262398099e+00
1.702739463484603588e+00
1.702739463484603588e+00
1.848431409649952784e+00
1.848431409649952784e+00
1.855369121372112406e+00
1.855369121372112406e+00
2.109439374980925930e+00
2.109439374980925930e+00
2.407385967589342979e+00
2.407385967589342979e+00
2.407385967589342979e+00
2.746958830530716877e+00
2.746958830530716877e+00
2.926776818140202074e+00
2.926776818140202074e+00
3.095906979583117113e+00
3.095906979583117113e+00
3.095906979583117113e+00
3.095906979583117113e+00
2.860024781029694374e+00
2.860024781029694374e+00
2.610829676198614280e+00
2.610829676198614280e+00
2.434949308755760100e+00
2.434949308755760100e+00
2.375697500534073914e+00
2.375697500534073914e+00
2.375697500534073914e+00
2.369134800256355700e+00
2.369134800256355700e+00
2.382260200811792572e+00
2.382260200811792572e+00
2.065375530259102366e+00
2.065375530259102366e+00
2.036124637592700015e+00
2.036124637592700015e+00
2.150878139591662741e+00
2.150878139591662741e+00
2.185191686758019003e+00
2.185191686758019003e+00
2.230755577257606870e+00
2.230755577257606870e+00
2.387322855311746483e+00
2.387322855311746483e+00
2.387322855311746483e+00
2.573891048921170377e+00
2.573891048921170377e+00
2.417323770867030763e+00
2.417323770867030763e+00
2.303507797479171337e+00
2.303507797479171337e+00
2.082251045258949329e+00
2.082251045258949329e+00
2.142252876369517889e+00
2.142252876369517889e+00
2.157628345591601438e+00
2.157628345591601438e+00
2.101564134647663895e+00
2.101564134647663895e+00
2.476200567644276429e+00
2.476200567644276429e+00
2.476200567644276429e+00
2.299757683034760802e+00
2.299757683034760802e+00
2.238255806146427940e+00
2.238255806146427940e+00
2.240130863368633207e+00
2.240130863368633207e+00
2.102876674703207716e+00
2.102876674703207716e+00
1.955684682760093995e+00
1.955684682760093995e+00
1.846556352427747516e+00
1.846556352427747516e+00
1.865306924649800191e+00
1.865306924649800191e+00
1.680988799707022308e+00
1.680988799707022308e+00
1.585735892818994852e+00
1.585735892818994852e+00
1.585735892818994852e+00
1.608236579485458062e+00
1.608236579485458062e+00
1.744740745262001402e+00
1.744740745262001402e+00
1.749803399761955758e+00
1.749803399761955758e+00
2.009123813592944341e+00
2.009123813592944341e+00
2.269756767479476078e+00
2.269756767479476078e+00
2.281569627979369130e+00
2.281569627979369130e+00
2.772834620197149658e+00
2.772834620197149658e+00
3.271224829859309846e+00
3.271224829859309846e+00
3.331039155247657924e+00
3.331039155247657924e+00
3.331039155247657924e+00
3.122345286416211785e+00
3.122345286416211785e+00
2.896025879696035865e+00
2.896025879696035865e+00
2.768521988586077676e+00
2.768521988586077676e+00
2.395385601367229444e+00
2.395385601367229444e+00
2.260568987090670667e+00
2.260568987090670667e+00
2.264319101535081202e+00
2.264319101535081202e+00
2.168691183202612560e+00
2.168691183202612560e+00
2.092376354258858040e+00
2.092376354258858040e+00
2.092376354258858040e+00
2.258506424146244473e+00
2.258506424146244473e+00
2.209567430646687480e+00
2.209567430646687480e+00
2.087126194036683202e+00
2.087126194036683202e+00
1.972560197759941625e+00
1.972560197759941625e+00
1.815992919705801567e+00
1.815992919705801567e+00
1.896432874538407587e+00
1.896432874538407587e+00
1.939371684926908257e+00
1.939371684926908257e+00
2.205817316202276945e+00
2.205817316202276945e+00
2.205817316202276945e+00
2.544265144810327506e+00
2.544265144810327506e+00
2.889650685140538133e+00
2.889650685140538133e+00
2.969715628528702744e+00
2.969715628528702744e+00
2.794022766808069491e+00
2.794022766808069491e+00
2.516514297921689458e+00
2.516514297921689458e+00
2.225692922757652514e+00
2.225692922757652514e+00
2.501513840144047762e+00
2.501513840144047762e+00
2.287569811090426342e+00
2.287569811090426342e+00
2.287569811090426342e+00
2.161003448591571008e+00
2.161003448591571008e+00
2.101751640369884377e+00
2.101751640369884377e+00
1.949309488204596263e+00
1.949309488204596263e+00
1.586485915707876782e+00
1.586485915707876782e+00
1.193098910489211573e+00
1.193098910489211573e+00
1.021531174657429819e+00
1.021531174657429819e+00
1.107971312601092606e+00
1.107971312601092606e+00
1.660925687429426034e+00
1.660925687429426034e+00
1.660925687429426034e+00
2.308570451979125249e+00
2.308570451979125249e+00
3.003654164250618042e+00
3.003654164250618042e+00
3.264849635303812114e+00
3.264849635303812114e+00
3.311726065858943802e+00
3.311726065858943802e+00
3.569733939634388342e+00
3.569733939634388342e+00
3.135095675527207693e+00
3.135095675527207693e+00
2.890775719473860583e+00
2.890775719473860583e+00
2.579141209143345659e+00
2.579141209143345659e+00
2.144690450758385047e+00
2.144690450758385047e+00
1.945371868037965024e+00
1.945371868037965024e+00
1.945371868037965024e+00
1.977810357982116241e+00
1.977810357982116241e+00
2.082438550981169811e+00
2.082438550981169811e+00
1.879744865260780662e+00
1.879744865260780662e+00
1.885182531205175982e+00
1.885182531205175982e+00
1.943121799371318792e+00
1.943121799371318792e+00
1.923058687093722297e+00
1.923058687093722297e+00
2.053187658314767905e+00
2.053187658314767905e+00
2.053187658314767905e+00
2.293757499923703591e+00
2.293757499923703591e+00
2.488575945310831372e+00
2.488575945310831372e+00
2.209754936368907963e+00
2.209754936368907963e+00
2.211629993591112786e+00
2.211629993591112786e+00
2.342883999145481511e+00
2.342883999145481511e+00
2.533764824365978274e+00
2.533764824365978274e+00
2.557765556810205343e+00
2.557765556810205343e+00
2.627517685476241649e+00
2.627517685476241649e+00
2.888900662251655760e+00
2.888900662251655760e+00
2.888900662251655760e+00
2.704020020142216207e+00
2.704020020142216207e+00
2.524014526810510528e+00
2.524014526810510528e+00
2.422948942533646566e+00
2.422948942533646566e+00
2.161190954313791490e+00
2.161190954313791490e+00
1.740428113650929198e+00
1.740428113650929198e+00
1.458232001709036441e+00
1.458232001709036441e+00
1.285351725821710867e+00
1.285351725821710867e+00
1.215787102877895487e+00
1.215787102877895487e+00
1.215787102877895487e+00
1.361479049043244904e+00
1.361479049043244904e+00
1.377979552598651125e+00
1.377979552598651125e+00
1.650237861262856098e+00
1.650237861262856098e+00
2.055437726981414581e+00
2.055437726981414581e+00
2.545390179143650844e+00
2.545390179143650844e+00
2.948902493362224320e+00
2.948902493362224320e+00
3.241223914304025566e+00
3.241223914304025566e+00
3.466980803857539595e+00
3.466980803857539595e+00
3.466980803857539595e+00
3.448605243079927885e+00
3.448605243079927885e+00
3.050155583361308764e+00
3.050155583361308764e+00
2.839961668752098323e+00
2.839961668752098323e+00
3.015467024750511538e+00
3.015467024750511538e+00
2.548015259254738041e+00
2.548015259254738041e+00
2.203567247535630269e+00
2.203567247535630269e+00
2.037999694814905283e+00
2.037999694814905283e+00
2.004623676259651432e+00
2.004623676259651432e+00
2.004623676259651432e+00
2.010998870815149164e+00
2.010998870815149164e+00
2.102314157536546269e+00
2.102314157536546269e+00
2.484263313699758946e+00
2.484263313699758946e+00
2.490451002533036640e+00
2.490451002533036640e+00
2.451074800866725578e+00
2.451074800866725578e+00
2.254943815424054865e+00
2.254943815424054865e+00
1.917246009704886012e+00
1.917246009704886012e+00
1.243350444044312830e+00
1.243350444044312830e+00
1.243350444044312830e+00
1.211099459822382096e+00
1.211099459822382096e+00
1.769866512039552031e+00
1.769866512039552031e+00
1.883119968260750232e+00
1.883119968260750232e+00
2.044937406537064906e+00
2.044937406537064906e+00
2.424823999755851833e+00
2.424823999755851833e+00
2.587391460921048658e+00
2.587391460921048658e+00
2.627142674031800240e+00
2.627142674031800240e+00
2.673269081698049998e+00
2.673269081698049998e+00
2.673269081698049998e+00
2.800585467085787705e+00
2.800585467085787705e+00
2.654706015198217806e+00
2.654706015198217806e+00
2.548765282143620414e+00
2.548765282143620414e+00
2.515576769310586602e+00
2.515576769310586602e+00
2.534514847254860204e+00
2.534514847254860204e+00
2.487263405255287552e+00
2.487263405255287552e+00
2.585703909421063873e+00
2.585703909421063873e+00
2.585703909421063873e+00
2.566390820032349751e+00
2.566390820032349751e+00
2.179379009369182274e+00
2.179379009369182274e+00
2.130815027314065802e+00
2.130815027314065802e+00
2.088813745536667987e+00
2.088813745536667987e+00
2.066125553147984295e+00
2.066125553147984295e+00
2.065750541703543330e+00
2.065750541703543330e+00
2.162691000091555793e+00
2.162691000091555793e+00
2.340258919034394314e+00
2.340258919034394314e+00
2.340258919034394314e+00
2.437199377422406776e+00
2.437199377422406776e+00
2.444699606311227846e+00
2.444699606311227846e+00
2.373072420422986717e+00
2.373072420422986717e+00
2.149378093813898438e+00
2.149378093813898438e+00
1.951559556871242496e+00
1.951559556871242496e+00
2.273881893368328022e+00
2.273881893368328022e+00
2.113189489425336465e+00
2.113189489425336465e+00
2.001436078981902345e+00
2.001436078981902345e+00
2.032749534592730889e+00
2.032749534592730889e+00
2.143752922147282192e+00
2.143752922147282192e+00
2.230193060090945423e+00
2.230193060090945423e+00
2.230193060090945423e+00
2.276694479201635701e+00
2.276694479201635701e+00
2.470387890255439700e+00
2.470387890255439700e+00
2.256256355479598685e+00
2.256256355479598685e+00
2.188379284035767647e+00
2.188379284035767647e+00
2.286819788201544412e+00
2.286819788201544412e+00
2.368947294534135217e+00
2.368947294534135217e+00
2.083376079592272667e+00
2.083376079592272667e+00
2.083376079592272667e+00
2.013248939481795396e+00
2.013248939481795396e+00
2.360697042756431774e+00
2.360697042756431774e+00
2.063125461592455689e+00
2.063125461592455689e+00
1.923996215704825152e+00
1.923996215704825152e+00
1.989060701315347846e+00
1.989060701315347846e+00
2.226067934202093479e+00
2.226067934202093479e+00
2.390510452589495571e+00
2.390510452589495571e+00
2.606892056031983707e+00
2.606892056031983707e+00
2.841274208807642143e+00
2.841274208807642143e+00
2.841274208807642143e+00
2.719770500808740721e+00
2.719770500808740721e+00
2.611017181920834762e+00
2.611017181920834762e+00
2.371759880367442896e+00
2.371759880367442896e+00
2.245568529313028083e+00
2.245568529313028083e+00
1.995810907315286764e+00
1.995810907315286764e+00
2.155940794091616652e+00
2.155940794091616652e+00
2.359947019867549844e+00
2.359947019867549844e+00
2.257943906979583026e+00
2.257943906979583026e+00
2.257943906979583026e+00
2.386572832422864110e+00
2.386572832422864110e+00
2.428761619922483295e+00
2.428761619922483295e+00
2.417698782311472172e+00
2.417698782311472172e+00
2.465512741477706271e+00
2.465512741477706271e+00
2.449387249366740793e+00
2.449387249366740793e+00
2.357321939756462204e+00
2.357321939756462204e+00
2.141315347758415477e+00
2.141315347758415477e+00
2.141315347758415477e+00
2.130252510147404355e+00
2.130252510147404355e+00
2.110001892147587377e+00
2.110001892147587377e+00
2.022999237037263143e+00
2.022999237037263143e+00
1.990935758537552891e+00
1.990935758537552891e+00
2.389760429700613198e+00
2.389760429700613198e+00
2.403823358867152926e+00
2.403823358867152926e+00
2.331821161534470832e+00
2.331821161534470832e+00
2.329196081423383191e+00
2.329196081423383191e+00
2.225692922757652514e+00
2.225692922757652514e+00
2.225692922757652514e+00
2.078500930814539238e+00
2.078500930814539238e+00
2.007998779259621003e+00
2.007998779259621003e+00
2.065188024536881883e+00
2.065188024536881883e+00
2.085438642536698417e+00
2.085438642536698417e+00
2.100626606036561483e+00
2.100626606036561483e+00
2.205442304757835537e+00
2.205442304757835537e+00
2.450699789422284613e+00
2.450699789422284613e+00
2.387135349589526001e+00
2.387135349589526001e+00
2.387135349589526001e+00
2.242568437757499922e+00
2.242568437757499922e+00
2.521951963866084778e+00
2.521951963866084778e+00
2.191941892757957699e+00
2.191941892757957699e+00
1.948559465315714112e+00
1.948559465315714112e+00
1.851431501205481167e+00
1.851431501205481167e+00
1.920621112704855360e+00
1.920621112704855360e+00
2.132502578814050587e+00
2.132502578814050587e+00
2.352446790978728330e+00
2.352446790978728330e+00
2.352446790978728330e+00
2.691644642475661264e+00
2.691644642475661264e+00
2.747521347697378769e+00
2.747521347697378769e+00
2.716957914975432598e+00
2.716957914975432598e+00
2.592641621143223496e+00
2.592641621143223496e+00
2.567515854365672645e+00
2.567515854365672645e+00
2.321695852534562121e+00
2.321695852534562121e+00
2.487075899533067069e+00
2.487075899533067069e+00
2.674769127475814301e+00
2.674769127475814301e+00
2.674769127475814301e+00
2.321695852534562121e+00
2.321695852534562121e+00
2.282882168034912951e+00
2.282882168034912951e+00
2.321883358256782603e+00
2.321883358256782603e+00
2.328446058534500818e+00
2.328446058534500818e+00
2.205442304757835537e+00
2.205442304757835537e+00
2.134002624591814889e+00
2.134002624591814889e+00
2.171691274758141166e+00
2.171691274758141166e+00
2.042312326425977265e+00
2.042312326425977265e+00
2.042312326425977265e+00
2.010998870815149164e+00
2.010998870815149164e+00
2.002748619037446165e+00
2.002748619037446165e+00
2.054125186925870761e+00
2.054125186925870761e+00
2.050187566759239299e+00
2.050187566759239299e+00
2.391447981200597983e+00
2.391447981200597983e+00
2.514076723532822744e+00
2.514076723532822744e+00
2.289444868312631609e+00
2.289444868312631609e+00
2.234505691702016961e+00
2.234505691702016961e+00
2.207504867702261730e+00
2.207504867702261730e+00
2.219505233924375265e+00
2.219505233924375265e+00
2.219505233924375265e+00
2.333883724478896582e+00
2.333883724478896582e+00
2.548202764976958523e+00
2.548202764976958523e+00
2.536577410199285953e+00
2.536577410199285953e+00
2.401760795922727176e+00
2.401760795922727176e+00
2.409261024811548246e+00
2.409261024811548246e+00
2.405885921811578676e+00
2.405885921811578676e+00
2.272569353312784202e+00
2.272569353312784202e+00
2.126502395702994264e+00
2.126502395702994264e+00
2.415073702200384531e+00
2.415073702200384531e+00
2.415073702200384531e+00
2.139252784813989727e+00
2.139252784813989727e+00
1.894932828760643506e+00
1.894932828760643506e+00
1.831555894650105376e+00
1.831555894650105376e+00
1.794429761650440991e+00
1.794429761650440991e+00
1.860431775872066540e+00
1.860431775872066540e+00
2.052625141148106458e+00
2.052625141148106458e+00
2.469075350199895880e+00
2.469075350199895880e+00
2.596766747032074996e+00
2.596766747032074996e+00
2.596766747032074996e+00
2.622080019531845885e+00
2.622080019531845885e+00
2.557765556810205343e+00
2.557765556810205343e+00
2.471325418866542556e+00
2.471325418866542556e+00
2.261881527146214044e+00
2.261881527146214044e+00
2.244818506424146598e+00
2.244818506424146598e+00
2.564515762810144484e+00
2.564515762810144484e+00
2.269756767479476078e+00
2.269756767479476078e+00
2.139440290536210654e+00
2.139440290536210654e+00
2.139440290536210654e+00
2.193441938535722002e+00
2.193441938535722002e+00
2.264694112979522167e+00
2.264694112979522167e+00
2.264131595812860720e+00
2.264131595812860720e+00
2.275756950590533290e+00
2.275756950590533290e+00
2.413948667867061193e+00
2.413948667867061193e+00
2.298632648701437464e+00
2.298632648701437464e+00
2.236380748924222672e+00
2.236380748924222672e+00
2.165128574480422063e+00
2.165128574480422063e+00
2.148628070925016065e+00
2.148628070925016065e+00
2.148628070925016065e+00
1.952122074037903943e+00
1.952122074037903943e+00
2.135877681814020157e+00
2.135877681814020157e+00
2.393323038422803695e+00
2.393323038422803695e+00
2.167753654591509704e+00
2.167753654591509704e+00
2.117314615314187964e+00
2.117314615314187964e+00
2.156878322702719064e+00
2.156878322702719064e+00
2.227942991424298746e+00
2.227942991424298746e+00
2.387135349589526001e+00
2.387135349589526001e+00
2.387135349589526001e+00
2.572203497421186036e+00
2.572203497421186036e+00
2.709645191808832010e+00
2.709645191808832010e+00
2.520264412366099993e+00
2.520264412366099993e+00
2.463262672811060039e+00
2.463262672811060039e+00
2.420511368144779851e+00
2.420511368144779851e+00
2.317570726645710621e+00
2.317570726645710621e+00
2.210692464980010374e+00
2.210692464980010374e+00
2.462887661366619074e+00
2.462887661366619074e+00
2.462887661366619074e+00
2.394073061311685624e+00
2.394073061311685624e+00
2.271631824701681346e+00
2.271631824701681346e+00
2.238818323313089387e+00
2.238818323313089387e+00
2.274631916257209951e+00
2.274631916257209951e+00
2.254006286812952009e+00
2.254006286812952009e+00
2.194004455702383449e+00
2.194004455702383449e+00
2.266569170201727434e+00
2.266569170201727434e+00
2.214067567979979945e+00
2.214067567979979945e+00
2.214067567979979945e+00
2.134190130314035372e+00
2.134190130314035372e+00
2.131565050202948175e+00
2.131565050202948175e+00
2.188941801202429094e+00
2.188941801202429094e+00
2.014561479537339217e+00
2.014561479537339217e+00
1.920246101260414395e+00
1.920246101260414395e+00
2.357134434034241721e+00
2.357134434034241721e+00
2.199254615924558287e+00
2.199254615924558287e+00
2.117502121036408447e+00
2.117502121036408447e+00
2.117502121036408447e+00
2.184629169591357556e+00
2.184629169591357556e+00
2.227005462813196335e+00
2.227005462813196335e+00
2.355259376812036454e+00
2.355259376812036454e+00
2.487075899533067069e+00
2.487075899533067069e+00
2.628267708365123578e+00
2.628267708365123578e+00
2.434761803033539618e+00
2.434761803033539618e+00
2.350196722312082542e+00
2.350196722312082542e+00
2.266944181646168399e+00
2.266944181646168399e+00
2.266944181646168399e+00
2.175253883480330774e+00
2.175253883480330774e+00
1.952497085482345129e+00
1.952497085482345129e+00
2.093876400036621899e+00
2.093876400036621899e+00
2.428199102755821404e+00
2.428199102755821404e+00
2.295632557145908859e+00
2.295632557145908859e+00
2.355071871089815971e+00
2.355071871089815971e+00
2.333508713034455617e+00
2.333508713034455617e+00
2.268256721701712220e+00
2.268256721701712220e+00
2.344009033478804849e+00
2.344009033478804849e+00
2.361259559923093665e+00
2.361259559923093665e+00
2.361259559923093665e+00
2.375322489089632505e+00
2.375322489089632505e+00
2.154628254036072832e+00
2.154628254036072832e+00
2.131940061647389140e+00
2.131940061647389140e+00
2.150878139591662741e+00
2.150878139591662741e+00
2.122752281258583285e+00
2.122752281258583285e+00
2.105501754814294912e+00
2.105501754814294912e+00
2.420886379589221260e+00
2.420886379589221260e+00
2.534139835810419239e+00
2.534139835810419239e+00
2.534139835810419239e+00
2.331258644367808941e+00
2.331258644367808941e+00
2.288507339701529197e+00
2.288507339701529197e+00
2.264131595812860720e+00
2.264131595812860720e+00
2.252881252479629115e+00
2.252881252479629115e+00
2.350384228034303025e+00
2.350384228034303025e+00
2.540702536088137453e+00
2.540702536088137453e+00
2.511264137699515064e+00
2.511264137699515064e+00
2.337071321756645670e+00
2.337071321756645670e+00
2.337071321756645670e+00
2.290944914090395912e+00
2.290944914090395912e+00
2.293569994201483109e+00
2.293569994201483109e+00
2.231505600146489243e+00
2.231505600146489243e+00
2.156128299813837135e+00
2.156128299813837135e+00
2.478075624866481697e+00
2.478075624866481697e+00
2.333508713034455617e+00
2.333508713034455617e+00
2.168503677480392078e+00
2.168503677480392078e+00
2.162878505813776275e+00
2.162878505813776275e+00
2.162878505813776275e+00
2.148815576647236547e+00
2.148815576647236547e+00
2.158003357036042402e+00
2.158003357036042402e+00
2.201879696035645484e+00
2.201879696035645484e+00
2.341196447645496725e+00
2.341196447645496725e+00
2.203754753257850751e+00
2.203754753257850751e+00
2.143940427869502674e+00
2.143940427869502674e+00
2.126689901425214746e+00
2.126689901425214746e+00
2.160815942869350526e+00
2.160815942869350526e+00
2.160815942869350526e+00
2.027124362926114642e+00
2.027124362926114642e+00
2.067250587481307633e+00
2.067250587481307633e+00
2.501513840144047762e+00
2.501513840144047762e+00
2.283069673757133433e+00
2.283069673757133433e+00
2.226630451368755370e+00
2.226630451368755370e+00
2.133627613147373925e+00
2.133627613147373925e+00
2.021124179815057875e+00
2.021124179815057875e+00
2.044937406537064906e+00
2.044937406537064906e+00
2.164003540147099169e+00
2.164003540147099169e+00
2.164003540147099169e+00
2.447699697866756008e+00
2.447699697866756008e+00
2.382072695089572090e+00
2.382072695089572090e+00
2.407385967589342979e+00
2.407385967589342979e+00
2.483700796533097499e+00
2.483700796533097499e+00
2.541640064699239865e+00
2.541640064699239865e+00
2.391822992645039392e+00
2.391822992645039392e+00
2.522514481032746669e+00
2.522514481032746669e+00
2.598266792809838854e+00
2.598266792809838854e+00
2.598266792809838854e+00
2.269006744590594149e+00
2.269006744590594149e+00
2.173941343424787398e+00
2.173941343424787398e+00
2.155190771202734279e+00
2.155190771202734279e+00
2.209379924924466998e+00
2.209379924924466998e+00
2.292632465590380253e+00
2.292632465590380253e+00
2.307257911923581428e+00
2.307257911923581428e+00
2.319445783867915889e+00
2.319445783867915889e+00
2.319445783867915889e+00
2.212942533646656607e+00
2.212942533646656607e+00
2.227192968535416817e+00
2.227192968535416817e+00
2.274069399090548504e+00
2.274069399090548504e+00
2.238255806146427940e+00
2.238255806146427940e+00
2.191941892757957699e+00
2.191941892757957699e+00
2.576891140476698983e+00
2.576891140476698983e+00
2.592266609698782531e+00
2.592266609698782531e+00
2.390885464033936536e+00
2.390885464033936536e+00
2.390885464033936536e+00
2.296945097201452679e+00
2.296945097201452679e+00
2.226442945646534444e+00
2.226442945646534444e+00
2.132127567369609622e+00
2.132127567369609622e+00
2.094063905758842381e+00
2.094063905758842381e+00
2.215567613757744247e+00
2.215567613757744247e+00
2.209004913480026033e+00
2.209004913480026033e+00
2.131002533036286284e+00
2.131002533036286284e+00
2.103814203314310571e+00
2.103814203314310571e+00
2.103814203314310571e+00
2.170941251869258792e+00
2.170941251869258792e+00
2.101189123203222930e+00
2.101189123203222930e+00
2.028061891537217498e+00
2.028061891537217498e+00
2.383385235145115466e+00
2.383385235145115466e+00
2.233943174535355514e+00
2.233943174535355514e+00
2.134940153202917745e+00
2.134940153202917745e+00
2.153503219702749494e+00
2.153503219702749494e+00
2.214442579424420909e+00
2.214442579424420909e+00
2.330508621478927012e+00
2.330508621478927012e+00
2.330508621478927012e+00
2.453324869533372254e+00
2.453324869533372254e+00
2.667831415753654234e+00
2.667831415753654234e+00
2.526264595477157204e+00
2.526264595477157204e+00
2.462137638477736701e+00
2.462137638477736701e+00
2.433636768700216724e+00
2.433636768700216724e+00
2.361259559923093665e+00
2.361259559923093665e+00
2.107751823480941145e+00
2.107751823480941145e+00
2.084876125370036970e+00
2.084876125370036970e+00
2.084876125370036970e+00
2.317945738090151586e+00
2.317945738090151586e+00
2.088063722647786058e+00
2.088063722647786058e+00
2.106814294869838289e+00
2.106814294869838289e+00
2.175066377758110736e+00
2.175066377758110736e+00
2.220630268257698603e+00
2.220630268257698603e+00
2.296570085757011714e+00
2.296570085757011714e+00
2.371384868923001932e+00
2.371384868923001932e+00
2.538827478865932186e+00
2.538827478865932186e+00
2.538827478865932186e+00
2.350759239478743989e+00
2.350759239478743989e+00
2.253443769646290562e+00
2.253443769646290562e+00
2.264506607257301685e+00
2.264506607257301685e+00
2.242568437757499922e+00
2.242568437757499922e+00
2.109626880703146412e+00
2.109626880703146412e+00
2.303320291756950855e+00
2.303320291756950855e+00
2.418448805200354101e+00
2.418448805200354101e+00
2.232068117313150690e+00
2.232068117313150690e+00
2.232068117313150690e+00
2.227192968535416817e+00
2.227192968535416817e+00
2.258693929868464956e+00
2.258693929868464956e+00
2.303320291756950855e+00
2.303320291756950855e+00
2.393323038422803695e+00
2.393323038422803695e+00
2.454449903866695148e+00
2.454449903866695148e+00
2.383197729422894984e+00
2.383197729422894984e+00
2.259256447035126847e+00
2.259256447035126847e+00
2.209192419202246516e+00
2.209192419202246516e+00
2.209192419202246516e+00
2.226442945646534444e+00
2.226442945646534444e+00
2.094251411481063307e+00
2.094251411481063307e+00
2.008936307870723859e+00
2.008936307870723859e+00
2.436074343089083438e+00
2.436074343089083438e+00
2.351696768089846401e+00
2.351696768089846401e+00
2.210879970702230857e+00
2.210879970702230857e+00
2.220630268257698603e+00
2.220630268257698603e+00
2.227942991424298746e+00
2.227942991424298746e+00
2.227942991424298746e+00
2.281007110812707683e+00
2.281007110812707683e+00
2.309132969145787140e+00
2.309132969145787140e+00
2.437574388866847741e+00
2.437574388866847741e+00
2.375322489089632505e+00
2.375322489089632505e+00
2.266006653035065987e+00
2.266006653035065987e+00
2.262069032868434526e+00
2.262069032868434526e+00
2.318320749534592551e+00
2.318320749534592551e+00
2.114314523758659803e+00
2.114314523758659803e+00
2.114314523758659803e+00
2.079250953703421168e+00
2.079250953703421168e+00
2.462700155644398592e+00
2.462700155644398592e+00
2.270881801812799416e+00
2.270881801812799416e+00
2.213317545091097571e+00
2.213317545091097571e+00
2.219692739646595747e+00
2.219692739646595747e+00
2.237880794701986531e+00
2.237880794701986531e+00
2.293945005645924073e+00
2.293945005645924073e+00
2.377572557756279181e+00
2.377572557756279181e+00
2.377572557756279181e+00
2.532827295754875419e+00
2.532827295754875419e+00
2.332946195867793726e+00
2.332946195867793726e+00
2.257193884090700653e+00
2.257193884090700653e+00
2.246693563646351421e+00
2.246693563646351421e+00
2.210504959257789892e+00
2.210504959257789892e+00
2.025249305703909375e+00
2.025249305703909375e+00
2.192879421369060555e+00
2.192879421369060555e+00
2.431386700033570492e+00
2.431386700033570492e+00
2.431386700033570492e+00
2.214255073702200427e+00
2.214255073702200427e+00
2.170941251869258792e+00
2.170941251869258792e+00
2.151628162480544670e+00
2.151628162480544670e+00
2.156315805536057617e+00
2.156315805536057617e+00
2.244068483535264225e+00
2.244068483535264225e+00
2.336508804589983779e+00
2.336508804589983779e+00
2.444512100589007364e+00
2.444512100589007364e+00
2.326008484145634547e+00
2.326008484145634547e+00
2.326008484145634547e+00
2.247443586535233351e+00
2.247443586535233351e+00
2.263006561479537382e+00
2.263006561479537382e+00
2.242380932035279439e+00
2.242380932035279439e+00
2.188566789757988129e+00
2.188566789757988129e+00
2.542015076143681274e+00
2.542015076143681274e+00
2.461200109866634289e+00
2.461200109866634289e+00
2.293569994201483109e+00
2.293569994201483109e+00
2.281382122257148648e+00
2.281382122257148648e+00
2.258881435590685438e+00
2.258881435590685438e+00
2.238630817590868904e+00
2.238630817590868904e+00
2.238630817590868904e+00
2.223817865535447247e+00
2.223817865535447247e+00
2.275944456312753772e+00
2.275944456312753772e+00
2.214442579424420909e+00
2.214442579424420909e+00
2.084126102481154597e+00
2.084126102481154597e+00
2.079813470870083059e+00
2.079813470870083059e+00
2.162503494369335311e+00
2.162503494369335311e+00
2.080750999481185470e+00
2.080750999481185470e+00
2.058062807092501334e+00
2.058062807092501334e+00
2.058062807092501334e+00
2.503388897366253030e+00
2.503388897366253030e+00
2.386197820978423145e+00
2.386197820978423145e+00
2.388635395367290304e+00
2.388635395367290304e+00
2.435699331644642474e+00
2.435699331644642474e+00
2.384885280922879769e+00
2.384885280922879769e+00
2.378697592089602519e+00
2.378697592089602519e+00
2.376072511978514878e+00
2.376072511978514878e+00
2.517264320810571387e+00
2.517264320810571387e+00
2.517264320810571387e+00
2.404573381756035300e+00
2.404573381756035300e+00
2.347571642200994901e+00
2.347571642200994901e+00
2.289819879757073018e+00
2.289819879757073018e+00
2.281007110812707683e+00
2.281007110812707683e+00
2.085063631092257452e+00
2.085063631092257452e+00
2.142252876369517889e+00
2.142252876369517889e+00
2.472075441755424485e+00
2.472075441755424485e+00
2.472075441755424485e+00
2.268069215979491737e+00
2.268069215979491737e+00
2.223630359813226764e+00
2.223630359813226764e+00
2.215192602313302839e+00
2.215192602313302839e+00
2.190816858424634361e+00
2.190816858424634361e+00
2.211629993591112786e+00
2.211629993591112786e+00
2.256818872646260132e+00
2.256818872646260132e+00
2.385072786645100695e+00
2.385072786645100695e+00
2.254568803979613900e+00
2.254568803979613900e+00
2.254568803979613900e+00
2.243318460646382295e+00
2.243318460646382295e+00
2.278382030701620931e+00
2.278382030701620931e+00
2.253631275368511044e+00
2.253631275368511044e+00
2.123502304147465658e+00
2.123502304147465658e+00
2.336508804589983779e+00
2.336508804589983779e+00
2.447137180700094561e+00
2.447137180700094561e+00
2.238255806146427940e+00
2.238255806146427940e+00
2.203004730368968822e+00
2.203004730368968822e+00
2.203004730368968822e+00
2.158378368480483367e+00
2.158378368480483367e+00
2.122189764091921838e+00
2.122189764091921838e+00
2.173941343424787398e+00
2.173941343424787398e+00
2.303507797479171337e+00
2.303507797479171337e+00
2.352821802423169739e+00
2.352821802423169739e+00
2.289819879757073018e+00
2.289819879757073018e+00
2.301257728812525105e+00
2.301257728812525105e+00
2.341758964812158617e+00
2.341758964812158617e+00
2.341758964812158617e+00
2.240693380535294654e+00
2.240693380535294654e+00
2.139440290536210654e+00
2.139440290536210654e+00
2.500951322977385871e+00
2.500951322977385871e+00
2.407948484756004870e+00
2.407948484756004870e+00
2.279694570757164307e+00
2.279694570757164307e+00
2.271819330423901828e+00
2.271819330423901828e+00
2.272944364757225166e+00
2.272944364757225166e+00
2.279132053590502860e+00
2.279132053590502860e+00
2.298445142979216982e+00
2.298445142979216982e+00
2.298445142979216982e+00
2.378885097811823002e+00
2.378885097811823002e+00
2.227380474257637299e+00
2.227380474257637299e+00
2.148065553758354618e+00
2.148065553758354618e+00
2.160253425702688634e+00
2.160253425702688634e+00
2.240318369090853690e+00
2.240318369090853690e+00
2.110939420758690233e+00
2.110939420758690233e+00
2.141690359202856442e+00
2.141690359202856442e+00
2.517639332255012796e+00
2.517639332255012796e+00
2.517639332255012796e+00
2.303507797479171337e+00
2.303507797479171337e+00
2.266569170201727434e+00
2.266569170201727434e+00
2.269569261757255596e+00
2.269569261757255596e+00
2.240318369090853690e+00
2.240318369090853690e+00
2.243880977813043742e+00
2.243880977813043742e+00
2.255131321146275347e+00
2.255131321146275347e+00
2.384697775200659287e+00
2.384697775200659287e+00
2.384697775200659287e+00
2.246693563646351421e+00
2.246693563646351421e+00
2.229068025757622085e+00
2.229068025757622085e+00
2.224005371257667729e+00
2.224005371257667729e+00
2.246131046479689974e+00
2.246131046479689974e+00
2.117877132480849411e+00
2.117877132480849411e+00
2.266756675923947917e+00
2.266756675923947917e+00
2.473575487533188788e+00
2.473575487533188788e+00
2.244443494979705633e+00
2.244443494979705633e+00
2.210879970702230857e+00
2.210879970702230857e+00
2.208067384868923178e+00
2.208067384868923178e+00
2.200379650257881181e+00
2.200379650257881181e+00
2.265069124423963132e+00
2.265069124423963132e+00
2.265069124423963132e+00
2.337071321756645670e+00
2.337071321756645670e+00
2.415636219367045978e+00
2.415636219367045978e+00
2.335946287423322332e+00
2.335946287423322332e+00
2.333696218756676100e+00
2.333696218756676100e+00
2.348509170812097757e+00
2.348509170812097757e+00
2.263194067201757864e+00
2.263194067201757864e+00
2.131377544480727693e+00
2.131377544480727693e+00
2.401010773033844803e+00
2.401010773033844803e+00
2.401010773033844803e+00
2.420886379589221260e+00
2.420886379589221260e+00
2.274819421979430434e+00
2.274819421979430434e+00
2.252506241035188150e+00
2.252506241035188150e+00
2.207692373424482213e+00
2.207692373424482213e+00
2.201879696035645484e+00
2.201879696035645484e+00
2.228880520035401602e+00
2.228880520035401602e+00
2.335571275978881367e+00
2.335571275978881367e+00
2.277069490646077110e+00
2.277069490646077110e+00
2.200942167424543072e+00
2.200942167424543072e+00
2.200942167424543072e+00
2.190066835535752432e+00
2.190066835535752432e+00
2.210692464980010374e+00
2.210692464980010374e+00
2.128002441480758122e+00
2.128002441480758122e+00
2.120127201147496088e+00
2.120127201147496088e+00
2.534702352977080686e+00
2.534702352977080686e+00
2.334633747367778511e+00
2.334633747367778511e+00
2.244068483535264225e+00
2.244068483535264225e+00
2.270694296090578934e+00
2.270694296090578934e+00
2.270694296090578934e+00
2.273694387646107540e+00
2.273694387646107540e+00
2.316258186590166801e+00
2.316258186590166801e+00
2.350009216589862060e+00
2.350009216589862060e+00
2.492701071199682428e+00
2.492701071199682428e+00
2.355821893978697901e+00
2.355821893978697901e+00
2.301257728812525105e+00
2.301257728812525105e+00
2.274444410534989469e+00
2.274444410534989469e+00
2.286632282479323930e+00
2.286632282479323930e+00
2.286632282479323930e+00
2.107751823480941145e+00
2.107751823480941145e+00
2.191754387035737217e+00
2.191754387035737217e+00
2.502263863032929692e+00
2.502263863032929692e+00
2.261694021423993561e+00
2.261694021423993561e+00
2.216692648091067142e+00
2.216692648091067142e+00
2.200567155980101663e+00
2.200567155980101663e+00
2.196629535813471090e+00
2.196629535813471090e+00
2.219692739646595747e+00
2.219692739646595747e+00
2.219692739646595747e+00
2.272756859035004684e+00
2.272756859035004684e+00
2.399885738700521909e+00
2.399885738700521909e+00
2.273319376201666131e+00
2.273319376201666131e+00
2.270131778923917043e+00
2.270131778923917043e+00
2.306132877590258534e+00
2.306132877590258534e+00
2.251943723868526259e+00
2.251943723868526259e+00
2.090688802758873255e+00
2.090688802758873255e+00
2.300882717368083696e+00
2.300882717368083696e+00
2.300882717368083696e+00
2.433449262977995797e+00
2.433449262977995797e+00
2.253068758201849597e+00
2.253068758201849597e+00
2.235818231757560781e+00
2.235818231757560781e+00
2.239943357646412725e+00
2.239943357646412725e+00
2.232630634479812137e+00
2.232630634479812137e+00
2.247818597979674760e+00
2.247818597979674760e+00
2.337258827478866152e+00
2.337258827478866152e+00
2.337258827478866152e+00
2.365759697256386129e+00
2.365759697256386129e+00
2.284194708090456771e+00
2.284194708090456771e+00
2.268069215979491737e+00
2.268069215979491737e+00
2.282507156590471986e+00
2.282507156590471986e+00
2.180879055146946577e+00
2.180879055146946577e+00
2.069313150425733383e+00
2.069313150425733383e+00
2.409636036255989211e+00
2.409636036255989211e+00
2.328633564256721744e+00
2.328633564256721744e+00
2.328633564256721744e+00
2.222505325479903426e+00
2.222505325479903426e+00
2.210504959257789892e+00
2.210504959257789892e+00
2.206004821924497428e+00
2.206004821924497428e+00
2.232818140202032620e+00
2.232818140202032620e+00
2.269944273201696561e+00
2.269944273201696561e+00
2.381135166478469234e+00
2.381135166478469234e+00
2.291507431257057803e+00
2.291507431257057803e+00
2.247631092257453833e+00
2.247631092257453833e+00
2.247631092257453833e+00
2.246693563646351421e+00
2.246693563646351421e+00
2.305945371868038052e+00
2.305945371868038052e+00
2.149940610980559885e+00
2.149940610980559885e+00
2.165878597369304437e+00
2.165878597369304437e+00
2.563390728476821145e+00
2.563390728476821145e+00
2.360509537034211291e+00
2.360509537034211291e+00
2.290757408368175430e+00
2.290757408368175430e+00
2.266194158757286470e+00
2.266194158757286470e+00
2.237693288979766049e+00
2.237693288979766049e+00
2.237693288979766049e+00
2.233943174535355514e+00
2.233943174535355514e+00
2.243130954924161813e+00
2.243130954924161813e+00
2.404948393200476264e+00
2.404948393200476264e+00
2.284757225257118218e+00
2.284757225257118218e+00
2.260006469924008776e+00
2.260006469924008776e+00
2.250631183812982439e+00
2.250631183812982439e+00
2.265819147312845505e+00
2.265819147312845505e+00
2.102876674703207716e+00
2.102876674703207716e+00
2.102876674703207716e+00
2.253068758201849597e+00
2.253068758201849597e+00
2.485575853755302767e+00
2.485575853755302767e+00
2.259256447035126847e+00
2.259256447035126847e+00
2.229630542924283532e+00
2.229630542924283532e+00
2.218942716757713818e+00
2.218942716757713818e+00
2.220630268257698603e+00
2.220630268257698603e+00
2.252318735312967224e+00
2.252318735312967224e+00
2.305382854701376161e+00
2.305382854701376161e+00
2.305382854701376161e+00
2.374759971922971058e+00
2.374759971922971058e+00
2.247631092257453833e+00
2.247631092257453833e+00
2.241630909146397510e+00
2.241630909146397510e+00
2.274444410534989469e+00
2.274444410534989469e+00
2.214630085146641392e+00
2.214630085146641392e+00
2.118439649647511303e+00
2.118439649647511303e+00
2.415448713644825496e+00
2.415448713644825496e+00
2.444137089144566399e+00
2.444137089144566399e+00
2.444137089144566399e+00
2.286069765312662039e+00
2.286069765312662039e+00
2.267506698812830290e+00
2.267506698812830290e+00
2.232255623035371173e+00
2.232255623035371173e+00
2.209567430646687480e+00
2.209567430646687480e+00
2.212567522202215642e+00
2.212567522202215642e+00
2.303507797479171337e+00
2.303507797479171337e+00
2.278757042146061895e+00
2.278757042146061895e+00
2.224192876979888212e+00
2.224192876979888212e+00
2.224192876979888212e+00
2.240693380535294654e+00
2.240693380535294654e+00
2.284944730979339145e+00
2.284944730979339145e+00
2.172816309091464060e+00
2.172816309091464060e+00
2.124814844203009478e+00
2.124814844203009478e+00
2.530577227088229186e+00
2.530577227088229186e+00
2.362759605700857524e+00
2.362759605700857524e+00
2.268256721701712220e+00
2.268256721701712220e+00
2.252131229590746742e+00
2.252131229590746742e+00
2.252131229590746742e+00
2.237880794701986531e+00
2.237880794701986531e+00
2.243505966368602778e+00
2.243505966368602778e+00
2.259818964201788294e+00
2.259818964201788294e+00
2.396885647144993747e+00
2.396885647144993747e+00
2.272569353312784202e+00
2.272569353312784202e+00
2.230005554368724940e+00
2.230005554368724940e+00
2.243880977813043742e+00
2.243880977813043742e+00
2.273694387646107540e+00
2.273694387646107540e+00
2.273694387646107540e+00
2.115439558091983141e+00
2.115439558091983141e+00
2.203567247535630269e+00
2.203567247535630269e+00
2.515951780755027567e+00
2.515951780755027567e+00
2.295257545701467894e+00
2.295257545701467894e+00
2.264131595812860720e+00
2.264131595812860720e+00
2.258881435590685438e+00
2.258881435590685438e+00
2.246318552201910457e+00
2.246318552201910457e+00
2.271631824701681346e+00
2.271631824701681346e+00
2.271631824701681346e+00
2.291882442701498768e+00
2.291882442701498768e+00
2.394448072756126589e+00
2.394448072756126589e+00
2.257568895535142062e+00
2.257568895535142062e+00
2.255881344035157721e+00
2.255881344035157721e+00
2.271256813257240381e+00
2.271256813257240381e+00
2.229630542924283532e+00
2.229630542924283532e+00
2.096876491592150504e+00
2.096876491592150504e+00
2.306132877590258534e+00
2.306132877590258534e+00
2.306132877590258534e+00
2.432886745811334794e+00
2.432886745811334794e+00
2.249131138035218136e+00
2.249131138035218136e+00
2.254381298257393418e+00
2.254381298257393418e+00
2.233005645924253102e+00
2.233005645924253102e+00
2.225692922757652514e+00
2.225692922757652514e+00
2.272569353312784202e+00
2.272569353312784202e+00
2.353946836756492633e+00
2.353946836756492633e+00
2.352821802423169739e+00
2.352821802423169739e+00
2.352821802423169739e+00
2.265069124423963132e+00
2.265069124423963132e+00
2.259256447035126847e+00
2.259256447035126847e+00
2.279507065034943825e+00
2.279507065034943825e+00
2.206004821924497428e+00
2.206004821924497428e+00
2.100251594592120075e+00
2.100251594592120075e+00
2.433636768700216724e+00
2.433636768700216724e+00
2.355259376812036454e+00
2.355259376812036454e+00
2.217630176702169997e+00
2.217630176702169997e+00
2.214442579424420909e+00
2.214442579424420909e+00
2.211067476424451339e+00
2.211067476424451339e+00
2.211067476424451339e+00
2.230943082979827352e+00
2.230943082979827352e+00
2.269006744590594149e+00
2.269006744590594149e+00
2.392948026978362286e+00
2.392948026978362286e+00
2.309320474868007622e+00
2.309320474868007622e+00
2.252318735312967224e+00
2.252318735312967224e+00
2.249506149479659545e+00
2.249506149479659545e+00
2.277069490646077110e+00
2.277069490646077110e+00
2.133815118869594407e+00
2.133815118869594407e+00
2.133815118869594407e+00
2.144315439313944083e+00
2.144315439313944083e+00
2.545202673421430362e+00
2.545202673421430362e+00
2.320758323923459709e+00
2.320758323923459709e+00
2.256256355479598685e+00
2.256256355479598685e+00
2.248568620868556689e+00
2.248568620868556689e+00
2.228505508590960638e+00
2.228505508590960638e+00
2.248943632312997654e+00
2.248943632312997654e+00
2.266569170201727434e+00
2.266569170201727434e+00
2.266569170201727434e+00
2.409261024811548246e+00
2.409261024811548246e+00
2.258506424146244473e+00
2.258506424146244473e+00
2.225505417035432032e+00
2.225505417035432032e+00
2.229443037202063049e+00
2.229443037202063049e+00
2.248568620868556689e+00
2.248568620868556689e+00
2.099876583147679110e+00
2.099876583147679110e+00
2.278007019257179522e+00
2.278007019257179522e+00
2.524764549699392902e+00
2.524764549699392902e+00
2.524764549699392902e+00
2.293194982757042144e+00
2.293194982757042144e+00
2.262631550035096417e+00
2.262631550035096417e+00
2.234880703146458369e+00
2.234880703146458369e+00
2.230568071535386387e+00
2.230568071535386387e+00
2.249693655201880027e+00
2.249693655201880027e+00
2.292444959868159771e+00
2.292444959868159771e+00
2.344384044923245813e+00
2.344384044923245813e+00
2.218380199591051927e+00
2.218380199591051927e+00
2.229630542924283532e+00
2.229630542924283532e+00
2.229630542924283532e+00
2.275194433423871843e+00
2.275194433423871843e+00
2.224755394146549659e+00
2.224755394146549659e+00
2.153690725424969976e+00
2.153690725424969976e+00
2.458762535477767130e+00
2.458762535477767130e+00
2.475638050477614982e+00
2.475638050477614982e+00
2.287944822534867306e+00
2.287944822534867306e+00
2.247256080813012868e+00
2.247256080813012868e+00
2.217817682424390480e+00
2.217817682424390480e+00
2.217817682424390480e+00
2.221755302591021497e+00
2.221755302591021497e+00
2.244068483535264225e+00
2.244068483535264225e+00
2.346821619312112972e+00
2.346821619312112972e+00
2.314008117923521013e+00
2.314008117923521013e+00
2.247068575090792386e+00
2.247068575090792386e+00
2.238630817590868904e+00
2.238630817590868904e+00
2.277444502090518075e+00
2.277444502090518075e+00
2.169066194647053525e+00
2.169066194647053525e+00
2.169066194647053525e+00
2.109626880703146412e+00
2.109626880703146412e+00
2.503388897366253030e+00
2.503388897366253030e+00
2.331633655812249906e+00
2.331633655812249906e+00
2.225692922757652514e+00
2.225692922757652514e+00
2.208254890591143660e+00
2.208254890591143660e+00
2.197942075869014911e+00
2.197942075869014911e+00
2.229068025757622085e+00
2.229068025757622085e+00
2.275756950590533290e+00
2.275756950590533290e+00
2.275756950590533290e+00
2.440386974700155864e+00
2.440386974700155864e+00
2.309507980590228104e+00
2.309507980590228104e+00
2.266006653035065987e+00
2.266006653035065987e+00
2.259256447035126847e+00
2.259256447035126847e+00
2.286069765312662039e+00
2.286069765312662039e+00
2.116752098147526517e+00
2.116752098147526517e+00
2.196254524369030126e+00
2.196254524369030126e+00
2.521951963866084778e+00
2.521951963866084778e+00
2.521951963866084778e+00
2.291319925534837321e+00
2.291319925534837321e+00
2.247256080813012868e+00
2.247256080813012868e+00
2.224942899868770141e+00
2.224942899868770141e+00
2.206754844813379357e+00
2.206754844813379357e+00
2.237693288979766049e+00
2.237693288979766049e+00
2.266381664479506952e+00
2.266381664479506952e+00
2.382822717978454019e+00
2.382822717978454019e+00
2.235818231757560781e+00
2.235818231757560781e+00
2.235818231757560781e+00
2.230005554368724940e+00
2.230005554368724940e+00
2.260381481368449741e+00
2.260381481368449741e+00
2.261881527146214044e+00
2.261881527146214044e+00
2.128564958647419569e+00
2.128564958647419569e+00
2.336321298867763296e+00
2.336321298867763296e+00
2.486513382366405178e+00
2.486513382366405178e+00
2.292632465590380253e+00
2.292632465590380253e+00
2.284194708090456771e+00
2.284194708090456771e+00
2.243693472090823260e+00
2.243693472090823260e+00
2.243693472090823260e+00
2.222130314035462462e+00
2.222130314035462462e+00
2.249881160924100509e+00
2.249881160924100509e+00
2.326946012756737403e+00
2.326946012756737403e+00
2.346071596423230599e+00
2.346071596423230599e+00
2.258131412701803509e+00
2.258131412701803509e+00
2.253068758201849597e+00
2.253068758201849597e+00
2.289069856868190644e+00
2.289069856868190644e+00
2.213317545091097571e+00
2.213317545091097571e+00
2.213317545091097571e+00
2.128752464369640052e+00
2.128752464369640052e+00
2.469450361644337288e+00
2.469450361644337288e+00
2.398573198644978088e+00
2.398573198644978088e+00
2.276506973479415219e+00
2.276506973479415219e+00
2.267881710257271255e+00
2.267881710257271255e+00
2.241818414868617992e+00
2.241818414868617992e+00
2.229443037202063049e+00
2.229443037202063049e+00
2.255881344035157721e+00
2.255881344035157721e+00
2.363134617145298488e+00
2.363134617145298488e+00
2.363134617145298488e+00
2.276694479201635701e+00
2.276694479201635701e+00
2.222317819757682944e+00
2.222317819757682944e+00
2.200379650257881181e+00
2.200379650257881181e+00
2.232818140202032620e+00
2.232818140202032620e+00
2.115064546647541732e+00
2.115064546647541732e+00
2.135127658925138228e+00
2.135127658925138228e+00
2.518201849421674243e+00
2.518201849421674243e+00
2.297695120090334608e+00
2.297695120090334608e+00
2.297695120090334608e+00
2.233380657368694511e+00
2.233380657368694511e+00
2.245193517868587563e+00
2.245193517868587563e+00
2.245568529313028083e+00
2.245568529313028083e+00
2.270881801812799416e+00
2.270881801812799416e+00
2.284194708090456771e+00
2.284194708090456771e+00
2.422386425366985119e+00
2.422386425366985119e+00
2.270131778923917043e+00
2.270131778923917043e+00
2.256068849757378203e+00
2.256068849757378203e+00
2.256068849757378203e+00
2.245006012146367080e+00
2.245006012146367080e+00
2.258693929868464956e+00
2.258693929868464956e+00
2.098189031647694325e+00
2.098189031647694325e+00
2.264319101535081202e+00
2.264319101535081202e+00
2.503576403088473068e+00
2.503576403088473068e+00
2.281569627979369130e+00
2.281569627979369130e+00
2.252131229590746742e+00
2.252131229590746742e+00
2.240318369090853690e+00
2.240318369090853690e+00
2.224942899868770141e+00
2.224942899868770141e+00
2.224942899868770141e+00
2.250068666646320992e+00
2.250068666646320992e+00
2.298820154423657947e+00
2.298820154423657947e+00
2.378135074922940628e+00
2.378135074922940628e+00
2.278757042146061895e+00
2.278757042146061895e+00
2.259818964201788294e+00
2.259818964201788294e+00
2.272756859035004684e+00
2.272756859035004684e+00
2.214067567979979945e+00
2.214067567979979945e+00
2.113752006591998356e+00
2.113752006591998356e+00
2.113752006591998356e+00
2.392010498367259874e+00
2.392010498367259874e+00
2.412448622089296890e+00
2.412448622089296890e+00
2.249506149479659545e+00
2.249506149479659545e+00
2.239755851924192243e+00
2.239755851924192243e+00
2.215005096591082356e+00
2.215005096591082356e+00
2.220067751091036712e+00
2.220067751091036712e+00
2.245943540757469048e+00
2.245943540757469048e+00
2.348509170812097757e+00
2.348509170812097757e+00
2.348509170812097757e+00
2.326758507034516477e+00
2.326758507034516477e+00
2.262256538590655452e+00
2.262256538590655452e+00
2.251381206701864812e+00
2.251381206701864812e+00
2.270881801812799416e+00
2.270881801812799416e+00
2.162878505813776275e+00
2.162878505813776275e+00
2.131940061647389140e+00
2.131940061647389140e+00
2.540140018921475562e+00
2.540140018921475562e+00
2.370259834589678594e+00
2.370259834589678594e+00
2.370259834589678594e+00
2.261319009979552597e+00
2.261319009979552597e+00
2.253631275368511044e+00
2.253631275368511044e+00
2.233005645924253102e+00
2.233005645924253102e+00
2.227942991424298746e+00
2.227942991424298746e+00
2.247068575090792386e+00
2.247068575090792386e+00
2.394635578478347071e+00
2.394635578478347071e+00
2.268256721701712220e+00
2.268256721701712220e+00
2.230755577257606870e+00
2.230755577257606870e+00
2.230755577257606870e+00
2.251568712424085295e+00
2.251568712424085295e+00
2.288132328257088233e+00
2.288132328257088233e+00
2.111501937925351680e+00
2.111501937925351680e+00
2.185004181035798521e+00
2.185004181035798521e+00
2.525514572588274831e+00
2.525514572588274831e+00
2.303132786034730373e+00
2.303132786034730373e+00
2.273131870479445649e+00
2.273131870479445649e+00
2.250256172368541474e+00
2.250256172368541474e+00
2.226630451368755370e+00
2.226630451368755370e+00
2.226630451368755370e+00
2.246506057924130939e+00
2.246506057924130939e+00
2.272569353312784202e+00
2.272569353312784202e+00
2.402698324533829588e+00
2.402698324533829588e+00
2.266756675923947917e+00
2.266756675923947917e+00
2.243505966368602778e+00
2.243505966368602778e+00
2.254568803979613900e+00
2.254568803979613900e+00
2.237505783257545566e+00
2.237505783257545566e+00
2.112439466536454535e+00
2.112439466536454535e+00
2.112439466536454535e+00
2.330321115756706529e+00
2.330321115756706529e+00
2.472262947477644968e+00
2.472262947477644968e+00
2.275944456312753772e+00
2.275944456312753772e+00
2.255318826868495830e+00
2.255318826868495830e+00
2.231505600146489243e+00
2.231505600146489243e+00
2.217067659535508550e+00
2.217067659535508550e+00
2.234318185979796478e+00
2.234318185979796478e+00
2.311383037812433372e+00
2.311383037812433372e+00
2.311383037812433372e+00
2.336321298867763296e+00
2.336321298867763296e+00
2.254756309701834383e+00
2.254756309701834383e+00
2.242943449201941331e+00
2.242943449201941331e+00
2.272194341868343237e+00
2.272194341868343237e+00
2.202817224646748340e+00
2.202817224646748340e+00
2.135690176091799675e+00
2.135690176091799675e+00
2.486138370921964214e+00
2.486138370921964214e+00
2.486138370921964214e+00
2.396885647144993747e+00
2.396885647144993747e+00
2.264131595812860720e+00
2.264131595812860720e+00
2.263194067201757864e+00
2.263194067201757864e+00
2.233005645924253102e+00
2.233005645924253102e+00
2.228130497146519229e+00
2.228130497146519229e+00
2.262256538590655452e+00
2.262256538590655452e+00
2.361072054200873183e+00
2.361072054200873183e+00
2.274819421979430434e+00
2.274819421979430434e+00
2.274819421979430434e+00
2.229443037202063049e+00
2.229443037202063049e+00
2.224755394146549659e+00
2.224755394146549659e+00
2.260381481368449741e+00
2.260381481368449741e+00
2.138877773369548763e+00
2.138877773369548763e+00
2.157065828424939546e+00
2.157065828424939546e+00
2.549515305032502344e+00
2.549515305032502344e+00
2.334258735923337547e+00
2.334258735923337547e+00
2.275756950590533290e+00
2.275756950590533290e+00
2.275756950590533290e+00
2.265256630146183614e+00
2.265256630146183614e+00
2.231880611590930208e+00
2.231880611590930208e+00
2.244443494979705633e+00
2.244443494979705633e+00
2.262819055757316900e+00
2.262819055757316900e+00
2.406823450422681532e+00
2.406823450422681532e+00
2.259443952757347329e+00
2.259443952757347329e+00
2.244818506424146598e+00
2.244818506424146598e+00
2.249131138035218136e+00
2.249131138035218136e+00
2.262444044312875935e+00
2.262444044312875935e+00
2.262444044312875935e+00
2.108689352092044000e+00
2.108689352092044000e+00
2.262444044312875935e+00
2.262444044312875935e+00
2.511076631977294138e+00
2.511076631977294138e+00
2.289444868312631609e+00
2.289444868312631609e+00
2.265444135868404540e+00
2.265444135868404540e+00
2.246318552201910457e+00
2.246318552201910457e+00
2.226255439924313961e+00
2.226255439924313961e+00
2.241068391979735619e+00
2.241068391979735619e+00
2.241068391979735619e+00
2.291694936979278285e+00
2.291694936979278285e+00
2.358071962645344577e+00
2.358071962645344577e+00
2.235255714590899334e+00
2.235255714590899334e+00
2.226067934202093479e+00
2.226067934202093479e+00
2.262631550035096417e+00
2.262631550035096417e+00
2.216317636646626177e+00
2.216317636646626177e+00
2.111876949369793088e+00
2.111876949369793088e+00
2.388635395367290304e+00
2.388635395367290304e+00
2.388635395367290304e+00
2.429136631366924259e+00
2.429136631366924259e+00
2.263569078646198829e+00
2.263569078646198829e+00
2.257381389812921579e+00
2.257381389812921579e+00
2.236380748924222672e+00
2.236380748924222672e+00
2.239193334757530351e+00
2.239193334757530351e+00
2.267881710257271255e+00
