2.184816675313578038e+00
2.077000885036774935e+00
2.077000885036774935e+00
2.077000885036774935e+00
2.157628345591601438e+00
2.157628345591601438e+00
2.157628345591601438e+00
2.157628345591601438e+00
2.385072786645100695e+00
2.385072786645100695e+00
2.385072786645100695e+00
2.317383220923490139e+00
2.317383220923490139e+00
2.317383220923490139e+00
2.298257637256996500e+00
2.298257637256996500e+00
2.298257637256996500e+00
2.298257637256996500e+00
2.356759422589800756e+00
2.356759422589800756e+00
2.356759422589800756e+00
2.370822351756340485e+00
2.370822351756340485e+00
2.370822351756340485e+00
2.361634571367534630e+00
2.361634571367534630e+00
2.361634571367534630e+00
2.361634571367534630e+00
2.376822534867396808e+00
2.376822534867396808e+00
2.376822534867396808e+00
2.399510727256080500e+00
2.399510727256080500e+00
2.399510727256080500e+00
2.399510727256080500e+00
2.292819971312600735e+00
2.292819971312600735e+00
2.292819971312600735e+00
2.240880886257515137e+00
2.240880886257515137e+00
2.240880886257515137e+00
2.193254432813501520e+00
2.193254432813501520e+00
2.193254432813501520e+00
2.193254432813501520e+00
2.176191412091433186e+00
2.176191412091433186e+00
2.176191412091433186e+00
2.073625782036805365e+00
2.073625782036805365e+00
2.073625782036805365e+00
2.247256080813012868e+00
2.247256080813012868e+00
2.247256080813012868e+00
2.247256080813012868e+00
2.377010040589617734e+00
2.377010040589617734e+00
2.377010040589617734e+00
2.318883266701254442e+00
2.318883266701254442e+00
2.318883266701254442e+00
2.318883266701254442e+00
2.298257637256996500e+00
2.298257637256996500e+00
2.298257637256996500e+00
2.306132877590258534e+00
2.306132877590258534e+00
2.306132877590258534e+00
2.285132236701559627e+00
2.285132236701559627e+00
2.285132236701559627e+00
2.285132236701559627e+00
2.293757499923703591e+00
2.293757499923703591e+00
2.293757499923703591e+00
2.344196539201025331e+00
2.344196539201025331e+00
2.344196539201025331e+00
2.327883541367839371e+00
2.327883541367839371e+00
2.327883541367839371e+00
2.327883541367839371e+00
2.252318735312967224e+00
2.252318735312967224e+00
2.252318735312967224e+00
2.213505050813318054e+00
2.213505050813318054e+00
2.213505050813318054e+00
2.213505050813318054e+00
2.200004638813440216e+00
2.200004638813440216e+00
2.162128482924894346e+00
2.162128482924894346e+00
2.162128482924894346e+00
2.084126102481154597e+00
2.084126102481154597e+00
2.084126102481154597e+00
2.374947477645191540e+00
2.374947477645191540e+00
2.374947477645191540e+00
2.374947477645191540e+00
2.403073335978270997e+00
2.403073335978270997e+00
2.403073335978270997e+00
2.350946745200964472e+00
2.350946745200964472e+00
2.350946745200964472e+00
2.350384228034303025e+00
2.350384228034303025e+00
2.350384228034303025e+00
2.350384228034303025e+00
2.348696676534318240e+00
2.348696676534318240e+00
2.348696676534318240e+00
2.318695760979033516e+00
2.318695760979033516e+00
2.318695760979033516e+00
2.316258186590166801e+00
2.316258186590166801e+00
2.316258186590166801e+00
2.316258186590166801e+00
2.368572283089693808e+00
2.368572283089693808e+00
2.368572283089693808e+00
2.299757683034760802e+00
2.299757683034760802e+00
2.299757683034760802e+00
2.240693380535294654e+00
2.240693380535294654e+00
2.240693380535294654e+00
2.240693380535294654e+00
2.188379284035767647e+00
2.188379284035767647e+00
2.188379284035767647e+00
2.188191778313547164e+00
2.188191778313547164e+00
2.188191778313547164e+00
2.108126834925382109e+00
2.108126834925382109e+00
2.108126834925382109e+00
2.109251869258705447e+00
2.109251869258705447e+00
2.109251869258705447e+00
2.109251869258705447e+00
2.400260750144962874e+00
2.400260750144962874e+00
2.400260750144962874e+00
2.369884823145237629e+00
2.369884823145237629e+00
2.369884823145237629e+00
2.331258644367808941e+00
2.331258644367808941e+00
2.331258644367808941e+00
2.331258644367808941e+00
2.346634113589892490e+00
2.346634113589892490e+00
2.346634113589892490e+00
2.339508896145511940e+00
2.339508896145511940e+00
2.339508896145511940e+00
2.311570543534653854e+00
2.311570543534653854e+00
2.311570543534653854e+00
2.311570543534653854e+00
2.272194341868343237e+00
2.272194341868343237e+00
2.272194341868343237e+00
2.370447340311899076e+00
2.370447340311899076e+00
2.370447340311899076e+00
2.290757408368175430e+00
2.290757408368175430e+00
2.290757408368175430e+00
2.290757408368175430e+00
2.254943815424054865e+00
2.254943815424054865e+00
2.254943815424054865e+00
2.174128849147007880e+00
2.174128849147007880e+00
2.174128849147007880e+00
2.206942350535599839e+00
2.206942350535599839e+00
2.206942350535599839e+00
2.105126743369853504e+00
2.105126743369853504e+00
2.105126743369853504e+00
2.105126743369853504e+00
2.204879787591174090e+00
2.204879787591174090e+00
2.204879787591174090e+00
2.399135715811639535e+00
2.399135715811639535e+00
2.399135715811639535e+00
2.399135715811639535e+00
2.328258552812280335e+00
2.328258552812280335e+00
2.328258552812280335e+00
2.305195348979155678e+00
2.305195348979155678e+00
2.305195348979155678e+00
2.324320932645649762e+00
2.324320932645649762e+00
2.324320932645649762e+00
2.324320932645649762e+00
2.314195623645741495e+00
2.314195623645741495e+00
2.314195623645741495e+00
2.304445326090273749e+00
2.304445326090273749e+00
2.304445326090273749e+00
2.347759147923215384e+00
2.347759147923215384e+00
2.347759147923215384e+00
2.347759147923215384e+00
2.384135258033997840e+00
2.384135258033997840e+00
2.384135258033997840e+00
2.287382305368205859e+00
2.287382305368205859e+00
2.287382305368205859e+00
2.235630726035340299e+00
2.235630726035340299e+00
2.235630726035340299e+00
2.235630726035340299e+00
2.196629535813471090e+00
2.196629535813471090e+00
2.196629535813471090e+00
2.162878505813776275e+00
2.162878505813776275e+00
2.162878505813776275e+00
2.066125553147984295e+00
2.066125553147984295e+00
2.066125553147984295e+00
2.066125553147984295e+00
2.290757408368175430e+00
2.290757408368175430e+00
2.290757408368175430e+00
2.366134708700827094e+00
2.366134708700827094e+00
2.366134708700827094e+00
2.366134708700827094e+00
2.295820062868129341e+00
2.295820062868129341e+00
2.295820062868129341e+00
2.298070131534776017e+00
2.298070131534776017e+00
2.298070131534776017e+00
2.314758140812402942e+00
2.314758140812402942e+00
2.314758140812402942e+00
2.314758140812402942e+00
2.301632740256966070e+00
2.301632740256966070e+00
2.301632740256966070e+00
2.313633106479079604e+00
2.313633106479079604e+00
2.313633106479079604e+00
2.379635120700704931e+00
2.379635120700704931e+00
2.379635120700704931e+00
2.379635120700704931e+00
2.339696401867732423e+00
2.339696401867732423e+00
2.339696401867732423e+00
2.258881435590685438e+00
2.258881435590685438e+00
2.258881435590685438e+00
2.211254982146671821e+00
2.211254982146671821e+00
2.211254982146671821e+00
2.211254982146671821e+00
2.207879879146702695e+00
2.207879879146702695e+00
2.207879879146702695e+00
2.159878414258247670e+00
2.159878414258247670e+00
2.159878414258247670e+00
2.080375988036744506e+00
2.080375988036744506e+00
2.080375988036744506e+00
2.080375988036744506e+00
2.388635395367290304e+00
2.388635395367290304e+00
2.388635395367290304e+00
2.387135349589526001e+00
2.387135349589526001e+00
2.387135349589526001e+00
2.334446241645558029e+00
2.334446241645558029e+00
2.334446241645558029e+00
2.334446241645558029e+00
2.354509353923154524e+00
2.354509353923154524e+00
2.354509353923154524e+00
2.359759514145329362e+00
2.359759514145329362e+00
2.359759514145329362e+00
2.331071138645588459e+00
2.331071138645588459e+00
2.331071138645588459e+00
2.331071138645588459e+00
2.333696218756676100e+00
2.333696218756676100e+00
2.333696218756676100e+00
2.394823084200567997e+00
2.394823084200567997e+00
2.394823084200567997e+00
2.318695760979033516e+00
2.318695760979033516e+00
2.318695760979033516e+00
2.318695760979033516e+00
2.274819421979430434e+00
2.274819421979430434e+00
2.274819421979430434e+00
2.221755302591021497e+00
2.221755302591021497e+00
2.221755302591021497e+00
2.221755302591021497e+00
2.209004913480026033e+00
2.209004913480026033e+00
2.209004913480026033e+00
2.105314249092073986e+00
2.105314249092073986e+00
2.105314249092073986e+00
2.126877407147435228e+00
2.126877407147435228e+00
2.126877407147435228e+00
2.126877407147435228e+00
2.386760338145085036e+00
2.386760338145085036e+00
2.386760338145085036e+00
2.330133610034486047e+00
2.330133610034486047e+00
2.330133610034486047e+00
2.293194982757042144e+00
2.293194982757042144e+00
2.293194982757042144e+00
2.293194982757042144e+00
2.317195715201269657e+00
2.317195715201269657e+00
2.317195715201269657e+00
2.317008209479048730e+00
2.317008209479048730e+00
2.317008209479048730e+00
2.315508163701284872e+00
2.315508163701284872e+00
2.315508163701284872e+00
2.315508163701284872e+00
2.341008941923276243e+00
2.341008941923276243e+00
2.341008941923276243e+00
2.380947660756248752e+00
2.380947660756248752e+00
2.380947660756248752e+00
2.260943998535111632e+00
2.260943998535111632e+00
2.260943998535111632e+00
2.260943998535111632e+00
2.219880245368816230e+00
2.219880245368816230e+00
2.219880245368816230e+00
2.179379009369182274e+00
2.179379009369182274e+00
2.179379009369182274e+00
2.185191686758019003e+00
2.185191686758019003e+00
2.185191686758019003e+00
2.185191686758019003e+00
2.086751182592242237e+00
2.086751182592242237e+00
2.086751182592242237e+00
2.226630451368755370e+00
2.226630451368755370e+00
2.226630451368755370e+00
2.226630451368755370e+00
2.397260658589434712e+00
2.397260658589434712e+00
2.397260658589434712e+00
2.326008484145634547e+00
2.326008484145634547e+00
2.326008484145634547e+00
2.301070223090304623e+00
2.301070223090304623e+00
2.301070223090304623e+00
2.301070223090304623e+00
2.334258735923337547e+00
2.334258735923337547e+00
2.334258735923337547e+00
2.321508346812341639e+00
2.321508346812341639e+00
2.321508346812341639e+00
2.308945463423566213e+00
2.308945463423566213e+00
2.308945463423566213e+00
2.308945463423566213e+00
2.345884090701010116e+00
2.345884090701010116e+00
2.345884090701010116e+00
2.339133884701071420e+00
2.339133884701071420e+00
2.339133884701071420e+00
2.248381115146336207e+00
2.248381115146336207e+00
2.248381115146336207e+00
2.248381115146336207e+00
2.224005371257667729e+00
2.224005371257667729e+00
2.224005371257667729e+00
2.203567247535630269e+00
2.203567247535630269e+00
2.203567247535630269e+00
2.172066286202582130e+00
2.172066286202582130e+00
2.172066286202582130e+00
2.172066286202582130e+00
2.078313425092318756e+00
2.078313425092318756e+00
2.078313425092318756e+00
2.332571184423352761e+00
2.332571184423352761e+00
2.332571184423352761e+00
2.399698232978301426e+00
2.399698232978301426e+00
2.399698232978301426e+00
2.346821619312112972e+00
2.346821619312112972e+00
2.346821619312112972e+00
2.346821619312112972e+00
2.337633838923307117e+00
2.337633838923307117e+00
2.337633838923307117e+00
2.348509170812097757e+00
2.348509170812097757e+00
2.348509170812097757e+00
2.325820978423414065e+00
2.325820978423414065e+00
2.325820978423414065e+00
2.325820978423414065e+00
2.340071413312173831e+00
2.340071413312173831e+00
2.340071413312173831e+00
2.410011047700430176e+00
2.410011047700430176e+00
2.410011047700430176e+00
2.410011047700430176e+00
2.354884365367595489e+00
2.354884365367595489e+00
2.354884365367595489e+00
2.269756767479476078e+00
2.269756767479476078e+00
2.269756767479476078e+00
2.213692556535538980e+00
2.213692556535538980e+00
2.213692556535538980e+00
2.213692556535538980e+00
2.197379558702353020e+00
2.197379558702353020e+00
2.197379558702353020e+00
2.125002349925229961e+00
2.125002349925229961e+00
2.125002349925229961e+00
2.057875301370280852e+00
2.057875301370280852e+00
2.057875301370280852e+00
2.057875301370280852e+00
2.355259376812036454e+00
2.355259376812036454e+00
2.355259376812036454e+00
2.332008667256691314e+00
2.332008667256691314e+00
2.332008667256691314e+00
2.282132145146031021e+00
2.282132145146031021e+00
2.282132145146031021e+00
2.282132145146031021e+00
2.311008026367992407e+00
2.311008026367992407e+00
2.311008026367992407e+00
2.315320657979064389e+00
2.315320657979064389e+00
2.315320657979064389e+00
2.292444959868159771e+00
2.292444959868159771e+00
2.292444959868159771e+00
2.292444959868159771e+00
2.324695944090090727e+00
2.324695944090090727e+00
2.324695944090090727e+00
2.393885555589465142e+00
2.393885555589465142e+00
2.393885555589465142e+00
2.299195165868098911e+00
2.299195165868098911e+00
2.299195165868098911e+00
2.299195165868098911e+00
2.259068941312906365e+00
2.259068941312906365e+00
2.259068941312906365e+00
2.207504867702261730e+00
2.207504867702261730e+00
2.207504867702261730e+00
2.207504867702261730e+00
2.208442396313364142e+00
2.208442396313364142e+00
2.208442396313364142e+00
2.104939237647633021e+00
2.104939237647633021e+00
2.104939237647633021e+00
2.172066286202582130e+00
2.172066286202582130e+00
2.172066286202582130e+00
2.172066286202582130e+00
2.418636310922574584e+00
2.418636310922574584e+00
2.418636310922574584e+00
2.358259468367565059e+00
2.358259468367565059e+00
2.358259468367565059e+00
2.323758415478988315e+00
2.323758415478988315e+00
2.323758415478988315e+00
2.323758415478988315e+00
2.343446516312143402e+00
2.343446516312143402e+00
2.343446516312143402e+00
2.320758323923459709e+00
2.320758323923459709e+00
2.320758323923459709e+00
2.304820337534714714e+00
2.304820337534714714e+00
2.304820337534714714e+00
2.304820337534714714e+00
2.333508713034455617e+00
2.333508713034455617e+00
2.333508713034455617e+00
2.362384594256416559e+00
2.362384594256416559e+00
2.362384594256416559e+00
2.250256172368541474e+00
2.250256172368541474e+00
2.250256172368541474e+00
2.250256172368541474e+00
2.206004821924497428e+00
2.206004821924497428e+00
2.206004821924497428e+00
2.172628803369243577e+00
2.172628803369243577e+00
2.172628803369243577e+00
2.162503494369335311e+00
2.162503494369335311e+00
2.162503494369335311e+00
2.162503494369335311e+00
2.060312875759148010e+00
2.060312875759148010e+00
2.060312875759148010e+00
2.228693014313181120e+00
2.228693014313181120e+00
2.228693014313181120e+00
2.228693014313181120e+00
2.364072145756401344e+00
2.364072145756401344e+00
2.364072145756401344e+00
2.318695760979033516e+00
2.318695760979033516e+00
2.318695760979033516e+00
2.328821069978942226e+00
2.328821069978942226e+00
2.328821069978942226e+00
2.328821069978942226e+00
2.368759788811914291e+00
2.368759788811914291e+00
2.368759788811914291e+00
2.353946836756492633e+00
2.353946836756492633e+00
2.353946836756492633e+00
2.358446974089785542e+00
2.358446974089785542e+00
2.358446974089785542e+00
2.358446974089785542e+00
2.404948393200476264e+00
2.404948393200476264e+00
2.404948393200476264e+00
2.372884914700766235e+00
2.372884914700766235e+00
2.372884914700766235e+00
2.283632190923795324e+00
2.283632190923795324e+00
2.283632190923795324e+00
2.283632190923795324e+00
2.227755485702078264e+00
2.227755485702078264e+00
2.227755485702078264e+00
2.200567155980101663e+00
2.200567155980101663e+00
2.200567155980101663e+00
2.164378551591540134e+00
2.164378551591540134e+00
2.164378551591540134e+00
2.164378551591540134e+00
2.067438093203528116e+00
2.067438093203528116e+00
2.067438093203528116e+00
2.351321756645405436e+00
2.351321756645405436e+00
2.351321756645405436e+00
2.351321756645405436e+00
2.383947752311777357e+00
2.383947752311777357e+00
2.383947752311777357e+00
2.317383220923490139e+00
2.317383220923490139e+00
2.317383220923490139e+00
2.314195623645741495e+00
2.314195623645741495e+00
2.314195623645741495e+00
2.314195623645741495e+00
2.326571001312295994e+00
2.326571001312295994e+00
2.326571001312295994e+00
2.302007751701407035e+00
2.302007751701407035e+00
2.302007751701407035e+00
2.297320108645893644e+00
2.297320108645893644e+00
2.297320108645893644e+00
2.297320108645893644e+00
2.350009216589862060e+00
2.350009216589862060e+00
2.350009216589862060e+00
2.314195623645741495e+00
2.314195623645741495e+00
2.314195623645741495e+00
2.261131504257332114e+00
2.261131504257332114e+00
2.261131504257332114e+00
2.261131504257332114e+00
2.202629718924527857e+00
2.202629718924527857e+00
2.202629718924527857e+00
2.208254890591143660e+00
2.208254890591143660e+00
2.208254890591143660e+00
2.135877681814020157e+00
2.135877681814020157e+00
2.135877681814020157e+00
2.135877681814020157e+00
2.105126743369853504e+00
2.105126743369853504e+00
2.105126743369853504e+00
2.384697775200659287e+00
2.384697775200659287e+00
2.384697775200659287e+00
2.345321573534348669e+00
2.345321573534348669e+00
2.345321573534348669e+00
2.345321573534348669e+00
2.304445326090273749e+00
2.304445326090273749e+00
2.304445326090273749e+00
2.332383678701132279e+00
2.332383678701132279e+00
2.332383678701132279e+00
2.332383678701132279e+00
2.343259010589922919e+00
2.343259010589922919e+00
2.343259010589922919e+00
2.321695852534562121e+00
2.321695852534562121e+00
2.321695852534562121e+00
2.321883358256782603e+00
2.321883358256782603e+00
2.321883358256782603e+00
2.321883358256782603e+00
2.378885097811823002e+00
2.378885097811823002e+00
2.378885097811823002e+00
2.293945005645924073e+00
2.293945005645924073e+00
2.293945005645924073e+00
2.276506973479415219e+00
2.276506973479415219e+00
2.276506973479415219e+00
2.276506973479415219e+00
2.235818231757560781e+00
2.235818231757560781e+00
2.235818231757560781e+00
2.230568071535386387e+00
2.230568071535386387e+00
2.230568071535386387e+00
2.096876491592150504e+00
2.096876491592150504e+00
2.096876491592150504e+00
2.168503677480392078e+00
2.168503677480392078e+00
2.168503677480392078e+00
2.168503677480392078e+00
2.381322672200689716e+00
2.381322672200689716e+00
2.381322672200689716e+00
2.324883449812311209e+00
2.324883449812311209e+00
2.324883449812311209e+00
2.298070131534776017e+00
2.298070131534776017e+00
2.298070131534776017e+00
2.298070131534776017e+00
2.321883358256782603e+00
2.321883358256782603e+00
2.321883358256782603e+00
2.310070497756889552e+00
2.310070497756889552e+00
2.310070497756889552e+00
2.310070497756889552e+00
2.313820612201300086e+00
2.313820612201300086e+00
2.313820612201300086e+00
2.345884090701010116e+00
2.345884090701010116e+00
2.345884090701010116e+00
2.364072145756401344e+00
2.364072145756401344e+00
2.364072145756401344e+00
2.364072145756401344e+00
2.266194158757286470e+00
2.266194158757286470e+00
2.266194158757286470e+00
2.233943174535355514e+00
2.233943174535355514e+00
2.233943174535355514e+00
2.202817224646748340e+00
2.202817224646748340e+00
2.202817224646748340e+00
2.202817224646748340e+00
2.194566972869045340e+00
2.194566972869045340e+00
2.194566972869045340e+00
2.098564043092135289e+00
2.098564043092135289e+00
2.098564043092135289e+00
2.307632923368022837e+00
2.307632923368022837e+00
2.307632923368022837e+00
2.307632923368022837e+00
2.424448988311410869e+00
2.424448988311410869e+00
2.424448988311410869e+00
2.351696768089846401e+00
2.351696768089846401e+00
2.351696768089846401e+00
2.330883632923367976e+00
2.330883632923367976e+00
2.330883632923367976e+00
2.330883632923367976e+00
2.357696951200903612e+00
2.357696951200903612e+00
2.357696951200903612e+00
2.347946653645436310e+00
2.347946653645436310e+00
2.347946653645436310e+00
2.326758507034516477e+00
2.326758507034516477e+00
2.326758507034516477e+00
2.326758507034516477e+00
2.351884273812066883e+00
2.351884273812066883e+00
2.351884273812066883e+00
2.300882717368083696e+00
2.300882717368083696e+00
2.300882717368083696e+00
2.213317545091097571e+00
2.213317545091097571e+00
2.213317545091097571e+00
2.213317545091097571e+00
2.176753929258095077e+00
2.176753929258095077e+00
2.176753929258095077e+00
2.169253700369274007e+00
2.169253700369274007e+00
2.169253700369274007e+00
2.169253700369274007e+00
2.123689809869686140e+00
2.123689809869686140e+00
2.123689809869686140e+00
2.054312692648091243e+00
2.054312692648091243e+00
2.054312692648091243e+00
2.362384594256416559e+00
2.362384594256416559e+00
2.362384594256416559e+00
2.362384594256416559e+00
2.360322031311990809e+00
2.360322031311990809e+00
2.360322031311990809e+00
2.303132786034730373e+00
2.303132786034730373e+00
2.303132786034730373e+00
2.329946104312265120e+00
2.329946104312265120e+00
2.329946104312265120e+00
2.329946104312265120e+00
2.355821893978697901e+00
2.355821893978697901e+00
2.355821893978697901e+00
2.336321298867763296e+00
2.336321298867763296e+00
2.336321298867763296e+00
2.349259193700979687e+00
2.349259193700979687e+00
2.349259193700979687e+00
2.349259193700979687e+00
2.413948667867061193e+00
2.413948667867061193e+00
2.413948667867061193e+00
2.333696218756676100e+00
2.333696218756676100e+00
2.333696218756676100e+00
2.280069582201605716e+00
2.280069582201605716e+00
2.280069582201605716e+00
2.280069582201605716e+00
2.211629993591112786e+00
2.211629993591112786e+00
2.211629993591112786e+00
2.192504409924619146e+00
2.192504409924619146e+00
2.192504409924619146e+00
2.092751365703299449e+00
2.092751365703299449e+00
2.092751365703299449e+00
2.092751365703299449e+00
2.103814203314310571e+00
2.103814203314310571e+00
2.103814203314310571e+00
2.374759971922971058e+00
2.374759971922971058e+00
2.374759971922971058e+00
2.335008758812219920e+00
2.335008758812219920e+00
2.335008758812219920e+00
2.335008758812219920e+00
2.294507522812585520e+00
2.294507522812585520e+00
2.294507522812585520e+00
2.336508804589983779e+00
2.336508804589983779e+00
2.336508804589983779e+00
2.333133701590014208e+00
2.333133701590014208e+00
2.333133701590014208e+00
2.333133701590014208e+00
2.306132877590258534e+00
2.306132877590258534e+00
2.306132877590258534e+00
2.323383404034546906e+00
2.323383404034546906e+00
2.323383404034546906e+00
2.323383404034546906e+00
2.375885006256294396e+00
2.375885006256294396e+00
2.375885006256294396e+00
2.259818964201788294e+00
2.259818964201788294e+00
2.259818964201788294e+00
2.223067842646564873e+00
2.223067842646564873e+00
2.223067842646564873e+00
2.223067842646564873e+00
2.178253975035859380e+00
2.178253975035859380e+00
2.178253975035859380e+00
2.182004089480269915e+00
2.182004089480269915e+00
2.182004089480269915e+00
2.087876216925565576e+00
2.087876216925565576e+00
2.087876216925565576e+00
2.087876216925565576e+00
2.206379833368938392e+00
2.206379833368938392e+00
2.206379833368938392e+00
2.394635578478347071e+00
2.394635578478347071e+00
2.394635578478347071e+00
2.346071596423230599e+00
2.346071596423230599e+00
2.346071596423230599e+00
2.346071596423230599e+00
2.338571367534409973e+00
2.338571367534409973e+00
2.338571367534409973e+00
2.364447157200842309e+00
2.364447157200842309e+00
2.364447157200842309e+00
2.350946745200964472e+00
2.350946745200964472e+00
2.350946745200964472e+00
2.350946745200964472e+00
2.336883816034425188e+00
2.336883816034425188e+00
2.336883816034425188e+00
2.368947294534135217e+00
2.368947294534135217e+00
2.368947294534135217e+00
2.368947294534135217e+00
2.353946836756492633e+00
2.353946836756492633e+00
2.353946836756492633e+00
2.251568712424085295e+00
2.251568712424085295e+00
2.251568712424085295e+00
2.217255165257729033e+00
2.217255165257729033e+00
2.217255165257729033e+00
2.217255165257729033e+00
2.174878872035889810e+00
2.174878872035889810e+00
2.174878872035889810e+00
2.147878048036134135e+00
2.147878048036134135e+00
2.147878048036134135e+00
2.056375255592516993e+00
2.056375255592516993e+00
2.056375255592516993e+00
2.056375255592516993e+00
2.301820245979186552e+00
2.301820245979186552e+00
2.301820245979186552e+00
2.378135074922940628e+00
2.378135074922940628e+00
2.378135074922940628e+00
2.311758049256874337e+00
2.311758049256874337e+00
2.311758049256874337e+00
2.311758049256874337e+00
2.310258003479110034e+00
2.310258003479110034e+00
2.310258003479110034e+00
2.332571184423352761e+00
2.332571184423352761e+00
2.332571184423352761e+00
2.322258369701224012e+00
2.322258369701224012e+00
2.322258369701224012e+00
2.322258369701224012e+00
2.334446241645558029e+00
2.334446241645558029e+00
2.334446241645558029e+00
2.389760429700613198e+00
2.389760429700613198e+00
2.389760429700613198e+00
2.346259102145451525e+00
2.346259102145451525e+00
2.346259102145451525e+00
2.346259102145451525e+00
2.270506790368358452e+00
2.270506790368358452e+00
2.270506790368358452e+00
2.208442396313364142e+00
2.208442396313364142e+00
2.208442396313364142e+00
2.193254432813501520e+00
2.193254432813501520e+00
2.193254432813501520e+00
2.193254432813501520e+00
2.130815027314065802e+00
2.130815027314065802e+00
2.130815027314065802e+00
2.068750633259071936e+00
2.068750633259071936e+00
2.068750633259071936e+00
2.371759880367442896e+00
2.371759880367442896e+00
2.371759880367442896e+00
2.362947111423078006e+00
2.362947111423078006e+00
2.362947111423078006e+00
2.362947111423078006e+00
2.319820795312356854e+00
2.319820795312356854e+00
2.319820795312356854e+00
2.336133793145542814e+00
2.336133793145542814e+00
2.336133793145542814e+00
2.342508987701040546e+00
2.342508987701040546e+00
2.342508987701040546e+00
2.342508987701040546e+00
2.318508255256813033e+00
2.318508255256813033e+00
2.318508255256813033e+00
2.319445783867915889e+00
2.319445783867915889e+00
2.319445783867915889e+00
2.384135258033997840e+00
2.384135258033997840e+00
2.384135258033997840e+00
2.384135258033997840e+00
2.295445051423688376e+00
2.295445051423688376e+00
2.295445051423688376e+00
2.245006012146367080e+00
2.245006012146367080e+00
2.245006012146367080e+00
2.245006012146367080e+00
2.182191595202490397e+00
2.182191595202490397e+00
2.182191595202490397e+00
2.197942075869014911e+00
2.197942075869014911e+00
2.197942075869014911e+00
2.111126926480910715e+00
2.111126926480910715e+00
2.111126926480910715e+00
2.111126926480910715e+00
2.165503585924863472e+00
2.165503585924863472e+00
2.165503585924863472e+00
2.410761070589312105e+00
2.410761070589312105e+00
2.410761070589312105e+00
2.352446790978728330e+00
2.352446790978728330e+00
2.352446790978728330e+00
2.352446790978728330e+00
2.319445783867915889e+00
2.319445783867915889e+00
2.319445783867915889e+00
2.356759422589800756e+00
2.356759422589800756e+00
2.356759422589800756e+00
2.356946928312021239e+00
2.356946928312021239e+00
2.356946928312021239e+00
2.356946928312021239e+00
2.344009033478804849e+00
2.344009033478804849e+00
2.344009033478804849e+00
2.374759971922971058e+00
2.374759971922971058e+00
2.374759971922971058e+00
2.399323221533860018e+00
2.399323221533860018e+00
2.399323221533860018e+00
2.399323221533860018e+00
2.272569353312784202e+00
2.272569353312784202e+00
2.272569353312784202e+00
2.220255256813257638e+00
2.220255256813257638e+00
2.220255256813257638e+00
2.166816125980407293e+00
2.166816125980407293e+00
2.166816125980407293e+00
2.166816125980407293e+00
2.143377910702841227e+00
2.143377910702841227e+00
2.143377910702841227e+00
2.041187292092654371e+00
2.041187292092654371e+00
2.041187292092654371e+00
2.041187292092654371e+00
2.212380016479995160e+00
2.212380016479995160e+00
2.212380016479995160e+00
2.372134891811884305e+00
2.372134891811884305e+00
2.372134891811884305e+00
2.319445783867915889e+00
2.319445783867915889e+00
2.319445783867915889e+00
2.319445783867915889e+00
2.307632923368022837e+00
2.307632923368022837e+00
2.307632923368022837e+00
2.333321207312235135e+00
2.333321207312235135e+00
2.333321207312235135e+00
2.323195898312326424e+00
2.323195898312326424e+00
2.323195898312326424e+00
2.323945921201208797e+00
2.323945921201208797e+00
2.323945921201208797e+00
2.323945921201208797e+00
2.361259559923093665e+00
2.361259559923093665e+00
2.361259559923093665e+00
2.356946928312021239e+00
2.356946928312021239e+00
2.356946928312021239e+00
2.356946928312021239e+00
2.274256904812768987e+00
2.274256904812768987e+00
2.274256904812768987e+00
2.230755577257606870e+00
2.230755577257606870e+00
2.230755577257606870e+00
2.193254432813501520e+00
2.193254432813501520e+00
2.193254432813501520e+00
2.193254432813501520e+00
2.149565599536118921e+00
2.149565599536118921e+00
2.149565599536118921e+00
2.052250129703665493e+00
2.052250129703665493e+00
2.052250129703665493e+00
2.327696035645618888e+00
2.327696035645618888e+00
2.327696035645618888e+00
2.327696035645618888e+00
2.380760155034028269e+00
2.380760155034028269e+00
2.380760155034028269e+00
2.325820978423414065e+00
2.325820978423414065e+00
2.325820978423414065e+00
2.321883358256782603e+00
2.321883358256782603e+00
2.321883358256782603e+00
2.321883358256782603e+00
2.332571184423352761e+00
2.332571184423352761e+00
2.332571184423352761e+00
2.320945829645680192e+00
2.320945829645680192e+00
2.320945829645680192e+00
2.332571184423352761e+00
2.332571184423352761e+00
2.332571184423352761e+00
2.332571184423352761e+00
2.390322946867275089e+00
2.390322946867275089e+00
2.390322946867275089e+00
2.333133701590014208e+00
2.333133701590014208e+00
2.333133701590014208e+00
2.261881527146214044e+00
2.261881527146214044e+00
2.261881527146214044e+00
2.261881527146214044e+00
2.209192419202246516e+00
2.209192419202246516e+00
2.209192419202246516e+00
2.200379650257881181e+00
2.200379650257881181e+00
2.200379650257881181e+00
2.122564775536362802e+00
2.122564775536362802e+00
2.122564775536362802e+00
2.122564775536362802e+00
2.090501297036652772e+00
2.090501297036652772e+00
2.090501297036652772e+00
2.395010589922788480e+00
2.395010589922788480e+00
2.395010589922788480e+00
2.367259743034150432e+00
2.367259743034150432e+00
2.367259743034150432e+00
2.367259743034150432e+00
2.325258461256752618e+00
2.325258461256752618e+00
2.325258461256752618e+00
2.347759147923215384e+00
2.347759147923215384e+00
2.347759147923215384e+00
2.347759147923215384e+00
2.330321115756706529e+00
2.330321115756706529e+00
2.330321115756706529e+00
2.295070039979247412e+00
2.295070039979247412e+00
2.295070039979247412e+00
2.313633106479079604e+00
2.313633106479079604e+00
2.313633106479079604e+00
2.313633106479079604e+00
2.395198095645008962e+00
2.395198095645008962e+00
2.395198095645008962e+00
2.298820154423657947e+00
2.298820154423657947e+00
2.298820154423657947e+00
2.256068849757378203e+00
2.256068849757378203e+00
2.256068849757378203e+00
2.256068849757378203e+00
2.188754295480208611e+00
2.188754295480208611e+00
2.188754295480208611e+00
2.175066377758110736e+00
2.175066377758110736e+00
2.175066377758110736e+00
2.066313058870204777e+00
2.066313058870204777e+00
2.066313058870204777e+00
2.066313058870204777e+00
2.161753471480452937e+00
2.161753471480452937e+00
2.161753471480452937e+00
2.404010864589373409e+00
2.404010864589373409e+00
2.404010864589373409e+00
2.352634296700948813e+00
2.352634296700948813e+00
2.352634296700948813e+00
2.352634296700948813e+00
2.315320657979064389e+00
2.315320657979064389e+00
2.315320657979064389e+00
2.335571275978881367e+00
2.335571275978881367e+00
2.335571275978881367e+00
2.327696035645618888e+00
2.327696035645618888e+00
2.327696035645618888e+00
2.327696035645618888e+00
2.304820337534714714e+00
2.304820337534714714e+00
2.304820337534714714e+00
2.331258644367808941e+00
2.331258644367808941e+00
2.331258644367808941e+00
2.359009491256446989e+00
2.359009491256446989e+00
2.359009491256446989e+00
2.359009491256446989e+00
2.253818781090731527e+00
2.253818781090731527e+00
2.253818781090731527e+00
2.220817773979919085e+00
2.220817773979919085e+00
2.220817773979919085e+00
2.179379009369182274e+00
2.179379009369182274e+00
2.179379009369182274e+00
2.179379009369182274e+00
2.172628803369243577e+00
2.172628803369243577e+00
2.172628803369243577e+00
2.078313425092318756e+00
2.078313425092318756e+00
2.078313425092318756e+00
2.282694662312692468e+00
2.282694662312692468e+00
2.282694662312692468e+00
2.419198828089236475e+00
2.419198828089236475e+00
2.419198828089236475e+00
2.419198828089236475e+00
2.365572191534165203e+00
2.365572191534165203e+00
2.365572191534165203e+00
2.350009216589862060e+00
2.350009216589862060e+00
2.350009216589862060e+00
2.369697317423017147e+00
2.369697317423017147e+00
2.369697317423017147e+00
2.369697317423017147e+00
2.340446424756614796e+00
2.340446424756614796e+00
2.340446424756614796e+00
2.334071230201117064e+00
2.334071230201117064e+00
2.334071230201117064e+00
2.334071230201117064e+00
2.373259926145207199e+00
2.373259926145207199e+00
2.373259926145207199e+00
2.338196356089969008e+00
2.338196356089969008e+00
2.338196356089969008e+00
2.248381115146336207e+00
2.248381115146336207e+00
2.248381115146336207e+00
2.248381115146336207e+00
2.202254707480086449e+00
2.202254707480086449e+00
2.202254707480086449e+00
2.178441480758079862e+00
2.178441480758079862e+00
2.178441480758079862e+00
2.129689992980742907e+00
2.129689992980742907e+00
2.129689992980742907e+00
2.129689992980742907e+00
2.048312509537034032e+00
2.048312509537034032e+00
2.048312509537034032e+00
2.347196630756553937e+00
2.347196630756553937e+00
2.347196630756553937e+00
2.374572466200750576e+00
2.374572466200750576e+00
2.374572466200750576e+00
2.374572466200750576e+00
2.329946104312265120e+00
2.329946104312265120e+00
2.329946104312265120e+00
2.335571275978881367e+00
2.335571275978881367e+00
2.335571275978881367e+00
2.344009033478804849e+00
2.344009033478804849e+00
2.344009033478804849e+00
2.344009033478804849e+00
2.325258461256752618e+00
2.325258461256752618e+00
2.325258461256752618e+00
2.338008850367748082e+00
2.338008850367748082e+00
2.338008850367748082e+00
2.396510635700552783e+00
2.396510635700552783e+00
2.396510635700552783e+00
2.396510635700552783e+00
2.311195532090212890e+00
2.311195532090212890e+00
2.311195532090212890e+00
2.259631458479567812e+00
2.259631458479567812e+00
2.259631458479567812e+00
2.210879970702230857e+00
2.210879970702230857e+00
2.210879970702230857e+00
2.210879970702230857e+00
2.202817224646748340e+00
2.202817224646748340e+00
2.202817224646748340e+00
2.107189306314279698e+00
2.107189306314279698e+00
2.107189306314279698e+00
2.107189306314279698e+00
2.104939237647633021e+00
2.104939237647633021e+00
2.104939237647633021e+00
2.383760246589556875e+00
2.383760246589556875e+00
2.383760246589556875e+00
2.340446424756614796e+00
2.340446424756614796e+00
2.340446424756614796e+00
2.340446424756614796e+00
2.296945097201452679e+00
2.296945097201452679e+00
2.296945097201452679e+00
2.327696035645618888e+00
2.327696035645618888e+00
2.327696035645618888e+00
2.333883724478896582e+00
2.333883724478896582e+00
2.333883724478896582e+00
2.333883724478896582e+00
2.322445875423444495e+00
2.322445875423444495e+00
2.322445875423444495e+00
2.330508621478927012e+00
2.330508621478927012e+00
2.330508621478927012e+00
2.385635303811762142e+00
2.385635303811762142e+00
2.385635303811762142e+00
2.385635303811762142e+00
2.277819513534959039e+00
2.277819513534959039e+00
2.277819513534959039e+00
2.241630909146397510e+00
2.241630909146397510e+00
2.241630909146397510e+00
2.196254524369030126e+00
2.196254524369030126e+00
2.196254524369030126e+00
2.196254524369030126e+00
2.182379100924710880e+00
2.182379100924710880e+00
2.182379100924710880e+00
2.075313333536790150e+00
2.075313333536790150e+00
2.075313333536790150e+00
2.201317178868984037e+00
2.201317178868984037e+00
2.201317178868984037e+00
2.201317178868984037e+00
2.394635578478347071e+00
2.394635578478347071e+00
2.394635578478347071e+00
2.329758598590044638e+00
2.329758598590044638e+00
2.329758598590044638e+00
2.321320841090121156e+00
2.321320841090121156e+00
2.321320841090121156e+00
2.321320841090121156e+00
2.347196630756553937e+00
2.347196630756553937e+00
2.347196630756553937e+00
2.332946195867793726e+00
2.332946195867793726e+00
2.332946195867793726e+00
2.332946195867793726e+00
2.338008850367748082e+00
2.338008850367748082e+00
2.338008850367748082e+00
2.378697592089602519e+00
2.378697592089602519e+00
2.378697592089602519e+00
2.377572557756279181e+00
2.377572557756279181e+00
2.377572557756279181e+00
2.377572557756279181e+00
2.275756950590533290e+00
2.275756950590533290e+00
2.275756950590533290e+00
2.231318094424268317e+00
2.231318094424268317e+00
2.231318094424268317e+00
2.189504318369090985e+00
2.189504318369090985e+00
2.189504318369090985e+00
2.189504318369090985e+00
2.165878597369304437e+00
2.165878597369304437e+00
2.165878597369304437e+00
2.064250495925779028e+00
2.064250495925779028e+00
2.064250495925779028e+00
2.285507248146000592e+00
2.285507248146000592e+00
2.285507248146000592e+00
2.285507248146000592e+00
2.376635029145176325e+00
2.376635029145176325e+00
2.376635029145176325e+00
2.310633014923550999e+00
2.310633014923550999e+00
2.310633014923550999e+00
2.301445234534745587e+00
2.301445234534745587e+00
2.301445234534745587e+00
2.301445234534745587e+00
2.325633472701193583e+00
2.325633472701193583e+00
2.325633472701193583e+00
2.319445783867915889e+00
2.319445783867915889e+00
2.319445783867915889e+00
2.332008667256691314e+00
2.332008667256691314e+00
2.332008667256691314e+00
2.332008667256691314e+00
2.380197637867366822e+00
2.380197637867366822e+00
2.380197637867366822e+00
2.332758690145573244e+00
2.332758690145573244e+00
2.332758690145573244e+00
2.332758690145573244e+00
2.244255989257484707e+00
2.244255989257484707e+00
2.244255989257484707e+00
2.193254432813501520e+00
2.193254432813501520e+00
2.193254432813501520e+00
2.181629078035828950e+00
2.181629078035828950e+00
2.181629078035828950e+00
2.181629078035828950e+00
2.145065462202826012e+00
2.145065462202826012e+00
2.145065462202826012e+00
2.089938779869991325e+00
2.089938779869991325e+00
2.089938779869991325e+00
2.402135807367168141e+00
2.402135807367168141e+00
2.402135807367168141e+00
2.402135807367168141e+00
2.376822534867396808e+00
2.376822534867396808e+00
2.376822534867396808e+00
2.315320657979064389e+00
2.315320657979064389e+00
2.315320657979064389e+00
2.334071230201117064e+00
2.334071230201117064e+00
2.334071230201117064e+00
2.334071230201117064e+00
2.333508713034455617e+00
2.333508713034455617e+00
2.333508713034455617e+00
2.312508072145756710e+00
2.312508072145756710e+00
2.312508072145756710e+00
2.323195898312326424e+00
2.323195898312326424e+00
2.323195898312326424e+00
2.323195898312326424e+00
2.384697775200659287e+00
2.384697775200659287e+00
2.384697775200659287e+00
2.287007293923764895e+00
2.287007293923764895e+00
2.287007293923764895e+00
2.221192785424360050e+00
2.221192785424360050e+00
2.221192785424360050e+00
2.221192785424360050e+00
2.144502945036164565e+00
2.144502945036164565e+00
2.144502945036164565e+00
2.156878322702719064e+00
2.156878322702719064e+00
2.156878322702719064e+00
2.105689260536515395e+00
2.105689260536515395e+00
2.105689260536515395e+00
2.105689260536515395e+00
2.176378917813653668e+00
2.176378917813653668e+00
2.176378917813653668e+00
2.436449354533524403e+00
2.436449354533524403e+00
2.436449354533524403e+00
2.368759788811914291e+00
2.368759788811914291e+00
2.368759788811914291e+00
2.368759788811914291e+00
2.318320749534592551e+00
2.318320749534592551e+00
2.318320749534592551e+00
2.339321390423291458e+00
2.339321390423291458e+00
2.339321390423291458e+00
2.342883999145481511e+00
2.342883999145481511e+00
2.342883999145481511e+00
2.342883999145481511e+00
2.344571550645466296e+00
2.344571550645466296e+00
2.344571550645466296e+00
2.380010132145145896e+00
2.380010132145145896e+00
2.380010132145145896e+00
2.409261024811548246e+00
2.409261024811548246e+00
2.409261024811548246e+00
2.409261024811548246e+00
2.279882076479384789e+00
2.279882076479384789e+00
2.279882076479384789e+00
2.227567979979857782e+00
2.227567979979857782e+00
2.227567979979857782e+00
2.227567979979857782e+00
2.171128757591479275e+00
2.171128757591479275e+00
2.171128757591479275e+00
2.163816034424878687e+00
2.163816034424878687e+00
2.163816034424878687e+00
2.061625415814691387e+00
2.061625415814691387e+00
2.061625415814691387e+00
2.215755119479964730e+00
2.215755119479964730e+00
2.215755119479964730e+00
2.215755119479964730e+00
2.385822809533982625e+00
2.385822809533982625e+00
2.385822809533982625e+00
2.327321024201178368e+00
2.327321024201178368e+00
2.327321024201178368e+00
2.327321024201178368e+00
2.308007934812463802e+00
2.308007934812463802e+00
2.308007934812463802e+00
2.338196356089969008e+00
2.338196356089969008e+00
2.338196356089969008e+00
2.329758598590044638e+00
2.329758598590044638e+00
2.329758598590044638e+00
2.329758598590044638e+00
2.312133060701315301e+00
2.312133060701315301e+00
2.312133060701315301e+00
2.352634296700948813e+00
2.352634296700948813e+00
2.352634296700948813e+00
2.339883907589953349e+00
2.339883907589953349e+00
2.339883907589953349e+00
2.339883907589953349e+00
2.252881252479629115e+00
2.252881252479629115e+00
2.252881252479629115e+00
2.226255439924313961e+00
2.226255439924313961e+00
2.226255439924313961e+00
2.208817407757805107e+00
2.208817407757805107e+00
2.208817407757805107e+00
2.208817407757805107e+00
2.178253975035859380e+00
2.178253975035859380e+00
2.178253975035859380e+00
2.079813470870083059e+00
2.079813470870083059e+00
2.079813470870083059e+00
2.330133610034486047e+00
2.330133610034486047e+00
2.330133610034486047e+00
2.330133610034486047e+00
2.374384960478530537e+00
2.374384960478530537e+00
2.374384960478530537e+00
2.304257820368053267e+00
2.304257820368053267e+00
2.304257820368053267e+00
2.304257820368053267e+00
2.310258003479110034e+00
2.310258003479110034e+00
2.310258003479110034e+00
2.349634205145421095e+00
2.349634205145421095e+00
2.349634205145421095e+00
2.332946195867793726e+00
2.332946195867793726e+00
2.332946195867793726e+00
2.332946195867793726e+00
2.326571001312295994e+00
2.326571001312295994e+00
2.326571001312295994e+00
2.362009582811975594e+00
2.362009582811975594e+00
2.362009582811975594e+00
2.292632465590380253e+00
2.292632465590380253e+00
2.292632465590380253e+00
2.292632465590380253e+00
2.229443037202063049e+00
2.229443037202063049e+00
2.229443037202063049e+00
2.184066652424695665e+00
2.184066652424695665e+00
2.184066652424695665e+00
2.172816309091464060e+00
2.172816309091464060e+00
2.172816309091464060e+00
2.172816309091464060e+00
2.104001709036531054e+00
2.104001709036531054e+00
2.104001709036531054e+00
2.082251045258949329e+00
2.082251045258949329e+00
2.082251045258949329e+00
2.403635853144932444e+00
2.403635853144932444e+00
2.403635853144932444e+00
2.403635853144932444e+00
2.383760246589556875e+00
2.383760246589556875e+00
2.383760246589556875e+00
2.331446150090029423e+00
2.331446150090029423e+00
2.331446150090029423e+00
2.362009582811975594e+00
2.362009582811975594e+00
2.362009582811975594e+00
2.362009582811975594e+00
2.369509811700796664e+00
2.369509811700796664e+00
2.369509811700796664e+00
2.351696768089846401e+00
2.351696768089846401e+00
2.351696768089846401e+00
2.351696768089846401e+00
2.363884640034180418e+00
2.363884640034180418e+00
2.363884640034180418e+00
2.410761070589312105e+00
2.410761070589312105e+00
2.410761070589312105e+00
2.286069765312662039e+00
2.286069765312662039e+00
2.286069765312662039e+00
2.286069765312662039e+00
2.229068025757622085e+00
2.229068025757622085e+00
2.229068025757622085e+00
2.166066103091524919e+00
2.166066103091524919e+00
2.166066103091524919e+00
2.168691183202612560e+00
2.168691183202612560e+00
2.168691183202612560e+00
2.168691183202612560e+00
2.072500747703482027e+00
2.072500747703482027e+00
2.072500747703482027e+00
2.153503219702749494e+00
2.153503219702749494e+00
2.153503219702749494e+00
2.388072878200628413e+00
2.388072878200628413e+00
2.388072878200628413e+00
2.388072878200628413e+00
2.317383220923490139e+00
2.317383220923490139e+00
2.317383220923490139e+00
2.291694936979278285e+00
2.291694936979278285e+00
2.291694936979278285e+00
2.335758781701101849e+00
2.335758781701101849e+00
2.335758781701101849e+00
2.335758781701101849e+00
2.335946287423322332e+00
2.335946287423322332e+00
2.335946287423322332e+00
2.317383220923490139e+00
2.317383220923490139e+00
2.317383220923490139e+00
2.353384319589831186e+00
2.353384319589831186e+00
2.353384319589831186e+00
2.353384319589831186e+00
2.399885738700521909e+00
2.399885738700521909e+00
2.399885738700521909e+00
2.296195074312570750e+00
2.296195074312570750e+00
2.296195074312570750e+00
2.296195074312570750e+00
2.239193334757530351e+00
2.239193334757530351e+00
2.239193334757530351e+00
2.195129490035706787e+00
2.195129490035706787e+00
2.195129490035706787e+00
2.181066560869167059e+00
2.181066560869167059e+00
2.181066560869167059e+00
2.181066560869167059e+00
2.071750724814600098e+00
2.071750724814600098e+00
2.071750724814600098e+00
2.253068758201849597e+00
2.253068758201849597e+00
2.253068758201849597e+00
2.392010498367259874e+00
2.392010498367259874e+00
2.392010498367259874e+00
2.392010498367259874e+00
2.319445783867915889e+00
2.319445783867915889e+00
2.319445783867915889e+00
2.308945463423566213e+00
2.308945463423566213e+00
2.308945463423566213e+00
2.337446333201086635e+00
2.337446333201086635e+00
2.337446333201086635e+00
2.337446333201086635e+00
2.319633289590136371e+00
2.319633289590136371e+00
2.319633289590136371e+00
2.310258003479110034e+00
2.310258003479110034e+00
2.339883907589953349e+00
2.339883907589953349e+00
2.306695394756919981e+00
2.306695394756919981e+00
2.219692739646595747e+00
2.219692739646595747e+00
2.185941709646900932e+00
2.185941709646900932e+00
2.175441389202551257e+00
2.175441389202551257e+00
2.140377819147312621e+00
2.140377819147312621e+00
2.140377819147312621e+00
2.074938322092349186e+00
2.074938322092349186e+00
2.375134983367412023e+00
2.375134983367412023e+00
2.404573381756035300e+00
2.404573381756035300e+00
2.356384411145359792e+00
2.356384411145359792e+00
2.363134617145298488e+00
2.363134617145298488e+00
2.391260475478377501e+00
2.391260475478377501e+00
2.377010040589617734e+00
2.377010040589617734e+00
2.374197454756310055e+00
2.374197454756310055e+00
2.412261116367076408e+00
2.412261116367076408e+00
2.328258552812280335e+00
2.328258552812280335e+00
2.328258552812280335e+00
2.248006103701895242e+00
2.248006103701895242e+00
2.164941068758201581e+00
2.164941068758201581e+00
2.164003540147099169e+00
2.164003540147099169e+00
2.087501205481124167e+00
2.087501205481124167e+00
2.062937955870235207e+00
2.062937955870235207e+00
2.350384228034303025e+00
2.350384228034303025e+00
2.346634113589892490e+00
2.346634113589892490e+00
2.341571459089938134e+00
2.341571459089938134e+00
2.341571459089938134e+00
2.380572649311807787e+00
2.380572649311807787e+00
2.354696859645375007e+00
2.354696859645375007e+00
2.312320566423536228e+00
2.312320566423536228e+00
2.315133152256843907e+00
2.315133152256843907e+00
2.365572191534165203e+00
2.365572191534165203e+00
2.246131046479689974e+00
2.246131046479689974e+00
2.212567522202215642e+00
2.212567522202215642e+00
2.155378276924954761e+00
2.155378276924954761e+00
2.155378276924954761e+00
2.145815485091708386e+00
2.145815485091708386e+00
2.048500015259254514e+00
2.048500015259254514e+00
2.190441846980193397e+00
2.190441846980193397e+00
2.420136356700338887e+00
2.420136356700338887e+00
2.346821619312112972e+00
2.346821619312112972e+00
2.323945921201208797e+00
2.323945921201208797e+00
2.375509994811853431e+00
2.375509994811853431e+00
2.375509994811853431e+00
2.366322214423047576e+00
2.366322214423047576e+00
2.333696218756676100e+00
2.333696218756676100e+00
2.357696951200903612e+00
2.357696951200903612e+00
2.372884914700766235e+00
2.372884914700766235e+00
2.279882076479384789e+00
2.279882076479384789e+00
2.229255531479842567e+00
2.229255531479842567e+00
2.188191778313547164e+00
2.188191778313547164e+00
2.167753654591509704e+00
2.167753654591509704e+00
2.080375988036744506e+00
2.080375988036744506e+00
2.300882717368083696e+00
2.300882717368083696e+00
2.380572649311807787e+00
2.380572649311807787e+00
2.298445142979216982e+00
2.298445142979216982e+00
2.298445142979216982e+00
2.286444776757103448e+00
2.286444776757103448e+00
2.315695669423505798e+00
2.315695669423505798e+00
2.286257271034882521e+00
2.286257271034882521e+00
2.278382030701620931e+00
2.278382030701620931e+00
2.324883449812311209e+00
2.324883449812311209e+00
2.296570085757011714e+00
2.296570085757011714e+00
2.215942625202185212e+00
2.215942625202185212e+00
2.177316446424756524e+00
2.177316446424756524e+00
2.177316446424756524e+00
2.161378460036011973e+00
2.161378460036011973e+00
2.142627887813959298e+00
2.142627887813959298e+00
2.105876766258735877e+00
2.105876766258735877e+00
2.429886654255806189e+00
2.429886654255806189e+00
2.449199743644520311e+00
2.449199743644520311e+00
2.404573381756035300e+00
2.404573381756035300e+00
2.394635578478347071e+00
2.394635578478347071e+00
2.394635578478347071e+00
2.384510269478438804e+00
2.384510269478438804e+00
2.334633747367778511e+00
2.334633747367778511e+00
2.334633747367778511e+00
2.334633747367778511e+00
2.385260292367321178e+00
2.385260292367321178e+00
2.274069399090548504e+00
2.274069399090548504e+00
2.205067293313394572e+00
2.205067293313394572e+00
2.152940702536088047e+00
2.152940702536088047e+00
2.154815759758293314e+00
2.154815759758293314e+00
2.154815759758293314e+00
2.074938322092349186e+00
2.074938322092349186e+00
2.072688253425702509e+00
2.072688253425702509e+00
2.257756401257362544e+00
2.257756401257362544e+00
2.166816125980407293e+00
2.166816125980407293e+00
2.101189123203222930e+00
2.101189123203222930e+00
2.126877407147435228e+00
2.126877407147435228e+00
2.132315073091830104e+00
2.132315073091830104e+00
2.195316995757927270e+00
2.195316995757927270e+00
2.195316995757927270e+00
2.297320108645893644e+00
2.297320108645893644e+00
2.314008117923521013e+00
2.314008117923521013e+00
2.219317728202154782e+00
2.219317728202154782e+00
2.214630085146641392e+00
2.214630085146641392e+00
2.277069490646077110e+00
2.277069490646077110e+00
2.386197820978423145e+00
2.386197820978423145e+00
2.300320200201422249e+00
2.300320200201422249e+00
2.385447798089541660e+00
2.385447798089541660e+00
2.561140659810174913e+00
2.561140659810174913e+00
2.470387890255439700e+00
2.470387890255439700e+00
2.470387890255439700e+00
2.435136814477980582e+00
2.435136814477980582e+00
2.422198919644764192e+00
2.422198919644764192e+00
2.348696676534318240e+00
2.348696676534318240e+00
2.299570177312540320e+00
2.299570177312540320e+00
2.308570451979125249e+00
2.308570451979125249e+00
2.311758049256874337e+00
2.311758049256874337e+00
2.238255806146427940e+00
2.238255806146427940e+00
2.205254799035615054e+00
2.205254799035615054e+00
2.205254799035615054e+00
2.182379100924710880e+00
2.182379100924710880e+00
2.168503677480392078e+00
2.168503677480392078e+00
2.096876491592150504e+00
2.096876491592150504e+00
2.355446882534256936e+00
2.355446882534256936e+00
2.377760063478499664e+00
2.377760063478499664e+00
2.270506790368358452e+00
2.270506790368358452e+00
2.249131138035218136e+00
2.249131138035218136e+00
2.310258003479110034e+00
2.310258003479110034e+00
2.310258003479110034e+00
2.323758415478988315e+00
2.323758415478988315e+00
2.347571642200994901e+00
2.347571642200994901e+00
2.424636494033631351e+00
2.424636494033631351e+00
2.376447523422955843e+00
2.376447523422955843e+00
2.251193700979644330e+00
2.251193700979644330e+00
2.134190130314035372e+00
2.134190130314035372e+00
2.074375804925687294e+00
2.074375804925687294e+00
2.033499557481612818e+00
2.033499557481612818e+00
2.033499557481612818e+00
1.979685415204321286e+00
1.979685415204321286e+00
2.342508987701040546e+00
2.342508987701040546e+00
2.404385876033814373e+00
2.404385876033814373e+00
2.412261116367076408e+00
2.412261116367076408e+00
2.476950590533158358e+00
2.476950590533158358e+00
2.551765373699148576e+00
2.551765373699148576e+00
2.534327341532639721e+00
2.534327341532639721e+00
2.464200201422162451e+00
2.464200201422162451e+00
2.464200201422162451e+00
2.432324228644673347e+00
2.432324228644673347e+00
2.296007568590349823e+00
2.296007568590349823e+00
2.238630817590868904e+00
2.238630817590868904e+00
2.191004364146854844e+00
2.191004364146854844e+00
2.199629627368999252e+00
2.199629627368999252e+00
2.120689718314157535e+00
2.120689718314157535e+00
2.193066927091281038e+00
2.193066927091281038e+00
2.400448255867183356e+00
2.400448255867183356e+00
2.293194982757042144e+00
2.293194982757042144e+00
2.228318002868740155e+00
2.228318002868740155e+00
2.228318002868740155e+00
2.222880336924344391e+00
2.222880336924344391e+00
2.197004547257912055e+00
2.197004547257912055e+00
2.178066469313638454e+00
2.178066469313638454e+00
2.193254432813501520e+00
2.193254432813501520e+00
2.209004913480026033e+00
2.209004913480026033e+00
2.133815118869594407e+00
2.133815118869594407e+00
2.170566240424817828e+00
2.170566240424817828e+00
2.243693472090823260e+00
2.243693472090823260e+00
2.243693472090823260e+00
2.320570818201239227e+00
2.320570818201239227e+00
2.241818414868617992e+00
2.241818414868617992e+00
2.399135715811639535e+00
2.399135715811639535e+00
2.510514114810632691e+00
2.510514114810632691e+00
2.388447889645069822e+00
2.388447889645069822e+00
2.323195898312326424e+00
2.323195898312326424e+00
2.334446241645558029e+00
2.334446241645558029e+00
2.334446241645558029e+00
2.334446241645558029e+00
2.334446241645558029e+00
2.300695211645863214e+00
2.300695211645863214e+00
2.251006195257423848e+00
2.251006195257423848e+00
2.173191320535905025e+00
2.173191320535905025e+00
2.077750907925656865e+00
2.077750907925656865e+00
2.094251411481063307e+00
2.094251411481063307e+00
2.156503311258278099e+00
2.156503311258278099e+00
2.313258095034638639e+00
2.313258095034638639e+00
2.313258095034638639e+00
2.354884365367595489e+00
2.354884365367595489e+00
2.660331186864833608e+00
2.660331186864833608e+00
2.640080568865016630e+00
2.640080568865016630e+00
2.509201574755088870e+00
2.509201574755088870e+00
2.452012329477828434e+00
2.452012329477828434e+00
2.375134983367412023e+00
2.375134983367412023e+00
2.289069856868190644e+00
2.289069856868190644e+00
2.195504501480147752e+00
2.195504501480147752e+00
2.195504501480147752e+00
2.200192144535660699e+00
2.200192144535660699e+00
2.172253791924802613e+00
2.172253791924802613e+00
2.157440839869380955e+00
2.157440839869380955e+00
2.202067201757865966e+00
2.202067201757865966e+00
2.250256172368541474e+00
2.250256172368541474e+00
2.184254158146916147e+00
2.184254158146916147e+00
2.158003357036042402e+00
2.158003357036042402e+00
2.430261665700247153e+00
2.430261665700247153e+00
2.347196630756553937e+00
2.347196630756553937e+00
2.272006836146122755e+00
2.272006836146122755e+00
2.272006836146122755e+00
2.208067384868923178e+00
2.208067384868923178e+00
2.133627613147373925e+00
2.133627613147373925e+00
2.056750267036957958e+00
2.056750267036957958e+00
2.063500473036897098e+00
2.063500473036897098e+00
2.184629169591357556e+00
2.184629169591357556e+00
2.134002624591814889e+00
2.134002624591814889e+00
2.145815485091708386e+00
2.145815485091708386e+00
2.145815485091708386e+00
2.126127384258552855e+00
2.126127384258552855e+00
2.206942350535599839e+00
2.206942350535599839e+00
2.196629535813471090e+00
2.196629535813471090e+00
2.359947019867549844e+00
2.359947019867549844e+00
2.661831232642597911e+00
2.661831232642597911e+00
2.620954985198522547e+00
2.620954985198522547e+00
2.520451918088320475e+00
2.520451918088320475e+00
2.514264229255043226e+00
2.514264229255043226e+00
2.514264229255043226e+00
2.486325876644184696e+00
2.486325876644184696e+00
2.445074617755668811e+00
2.445074617755668811e+00
2.452762352366710363e+00
2.452762352366710363e+00
2.438136906033509188e+00
2.438136906033509188e+00
2.314383129367961978e+00
2.314383129367961978e+00
2.275194433423871843e+00
2.275194433423871843e+00
2.200567155980101663e+00
2.200567155980101663e+00
2.137752739036225869e+00
2.137752739036225869e+00
2.137752739036225869e+00
1.992435804315317194e+00
1.992435804315317194e+00
2.145065462202826012e+00
2.145065462202826012e+00
2.230568071535386387e+00
2.230568071535386387e+00
2.196254524369030126e+00
2.196254524369030126e+00
2.230005554368724940e+00
2.230005554368724940e+00
2.339696401867732423e+00
2.339696401867732423e+00
2.374384960478530537e+00
2.374384960478530537e+00
2.406635944700461049e+00
2.406635944700461049e+00
2.406635944700461049e+00
2.464950224311044824e+00
2.464950224311044824e+00
2.392948026978362286e+00
2.392948026978362286e+00
2.313258095034638639e+00
2.313258095034638639e+00
2.295257545701467894e+00
2.295257545701467894e+00
2.243130954924161813e+00
2.243130954924161813e+00
2.181629078035828950e+00
2.181629078035828950e+00
2.089938779869991325e+00
2.089938779869991325e+00
2.359384502700888397e+00
2.359384502700888397e+00
2.359384502700888397e+00
2.390697958311716054e+00
2.390697958311716054e+00
2.299007660145878429e+00
2.299007660145878429e+00
2.298820154423657947e+00
2.298820154423657947e+00
2.312695577867977192e+00
2.312695577867977192e+00
2.273506881923887057e+00
2.273506881923887057e+00
2.288319833979308715e+00
2.288319833979308715e+00
2.377572557756279181e+00
2.377572557756279181e+00
2.314570635090182460e+00
2.314570635090182460e+00
2.314570635090182460e+00
2.269194250312814631e+00
2.269194250312814631e+00
2.150878139591662741e+00
2.150878139591662741e+00
2.096501480147709540e+00
2.096501480147709540e+00
1.999936033204138486e+00
1.999936033204138486e+00
2.037249671926022909e+00
2.037249671926022909e+00
2.325633472701193583e+00
2.325633472701193583e+00
2.259256447035126847e+00
2.259256447035126847e+00
2.259256447035126847e+00
2.097251503036591469e+00
2.097251503036591469e+00
2.013436445204016323e+00
2.013436445204016323e+00
1.986810632648701391e+00
1.986810632648701391e+00
2.127064912869655711e+00
2.127064912869655711e+00
2.308382946256904766e+00
2.308382946256904766e+00
2.388072878200628413e+00
2.388072878200628413e+00
2.280819605090487201e+00
2.280819605090487201e+00
2.308382946256904766e+00
2.308382946256904766e+00
2.308382946256904766e+00
2.350571733756523507e+00
2.350571733756523507e+00
2.502826380199591139e+00
2.502826380199591139e+00
2.466825281533250092e+00
2.466825281533250092e+00
2.554952970976897664e+00
2.554952970976897664e+00
2.617954893642994829e+00
2.617954893642994829e+00
2.431011688589129527e+00
2.431011688589129527e+00
2.257568895535142062e+00
2.257568895535142062e+00
2.276694479201635701e+00
2.276694479201635701e+00
2.276694479201635701e+00
2.270694296090578934e+00
2.270694296090578934e+00
2.252693746757408633e+00
2.252693746757408633e+00
2.238818323313089387e+00
2.238818323313089387e+00
2.176003906369212704e+00
2.176003906369212704e+00
2.090501297036652772e+00
2.090501297036652772e+00
2.123689809869686140e+00
2.123689809869686140e+00
2.149940610980559885e+00
2.149940610980559885e+00
2.193066927091281038e+00
2.193066927091281038e+00
2.193066927091281038e+00
2.171503769035920239e+00
2.171503769035920239e+00
2.443949583422345917e+00
2.443949583422345917e+00
2.443949583422345917e+00
2.443949583422345917e+00
2.257381389812921579e+00
2.257381389812921579e+00
2.191754387035737217e+00
2.191754387035737217e+00
2.229443037202063049e+00
2.229443037202063049e+00
2.246693563646351421e+00
2.246693563646351421e+00
2.278382030701620931e+00
2.278382030701620931e+00
2.358821985534226506e+00
2.358821985534226506e+00
2.358821985534226506e+00
2.361072054200873183e+00
2.361072054200873183e+00
2.353009308145390222e+00
2.353009308145390222e+00
2.373259926145207199e+00
2.373259926145207199e+00
2.382635212256233537e+00
2.382635212256233537e+00
2.193441938535722002e+00
2.193441938535722002e+00
1.937309121982482507e+00
1.937309121982482507e+00
2.159128391369365740e+00
2.159128391369365740e+00
2.134377636036255854e+00
2.134377636036255854e+00
2.134377636036255854e+00
2.070625690481276759e+00
2.070625690481276759e+00
2.138315256202887316e+00
2.138315256202887316e+00
2.211067476424451339e+00
2.211067476424451339e+00
2.275756950590533290e+00
2.275756950590533290e+00
2.409073519089327764e+00
2.409073519089327764e+00
2.587578966643269140e+00
2.587578966643269140e+00
2.512951689199499850e+00
2.512951689199499850e+00
2.434761803033539618e+00
2.434761803033539618e+00
2.434761803033539618e+00
2.293569994201483109e+00
2.293569994201483109e+00
2.274069399090548504e+00
2.274069399090548504e+00
2.202442213202307375e+00
2.202442213202307375e+00
2.277819513534959039e+00
2.277819513534959039e+00
2.507701528977324568e+00
2.507701528977324568e+00
2.426699056978057101e+00
2.426699056978057101e+00
2.391072969756157018e+00
2.391072969756157018e+00
2.391072969756157018e+00
2.453699880977813219e+00
2.453699880977813219e+00
2.352821802423169739e+00
2.352821802423169739e+00
2.041562303537095335e+00
2.041562303537095335e+00
1.889120151371806999e+00
1.889120151371806999e+00
1.797617358928189857e+00
1.797617358928189857e+00
1.660175664540543883e+00
1.660175664540543883e+00
1.570547929319132008e+00
1.570547929319132008e+00
1.450919278542436075e+00
1.450919278542436075e+00
1.450919278542436075e+00
1.493108066042054372e+00
1.493108066042054372e+00
1.710989715262306587e+00
1.710989715262306587e+00
2.279882076479384789e+00
2.279882076479384789e+00
2.795710318308054276e+00
2.795710318308054276e+00
2.920776635029145307e+00
2.920776635029145307e+00
2.857212195196386695e+00
2.857212195196386695e+00
2.848024414807580840e+00
2.848024414807580840e+00
2.839211645863215949e+00
2.839211645863215949e+00
2.839211645863215949e+00
2.843711783196508414e+00
2.843711783196508414e+00
2.766834437086092890e+00
2.766834437086092890e+00
2.638205511642811363e+00
2.638205511642811363e+00
2.291319925534837321e+00
2.291319925534837321e+00
2.009873836481826270e+00
2.009873836481826270e+00
1.879744865260780662e+00
1.879744865260780662e+00
1.789367107150486857e+00
1.789367107150486857e+00
1.727677724539933513e+00
1.727677724539933513e+00
1.727677724539933513e+00
2.028249397259437981e+00
2.028249397259437981e+00
2.099501571703238145e+00
2.099501571703238145e+00
1.962809900204474101e+00
1.962809900204474101e+00
1.978560380870998392e+00
1.978560380870998392e+00
2.206942350535599839e+00
2.206942350535599839e+00
2.392385509811700839e+00
2.392385509811700839e+00
2.503013885921811621e+00
2.503013885921811621e+00
2.476388073366496911e+00
2.476388073366496911e+00
2.476388073366496911e+00
2.367634754478591397e+00
2.367634754478591397e+00
2.211067476424451339e+00
2.211067476424451339e+00
2.148815576647236547e+00
2.148815576647236547e+00
2.307820429090243319e+00
2.307820429090243319e+00
2.383760246589556875e+00
2.383760246589556875e+00
2.404760887478255782e+00
2.404760887478255782e+00
2.835086519974364450e+00
2.835086519974364450e+00
2.838836634418774985e+00
2.838836634418774985e+00
2.838836634418774985e+00
2.733833429975280005e+00
2.733833429975280005e+00
2.761396771141697126e+00
2.761396771141697126e+00
2.727458235419781829e+00
2.727458235419781829e+00
2.603329447309793654e+00
2.603329447309793654e+00
2.529077181310464884e+00
2.529077181310464884e+00
2.520639423810540958e+00
2.520639423810540958e+00
2.341008941923276243e+00
2.341008941923276243e+00
2.205817316202276945e+00
2.205817316202276945e+00
2.205817316202276945e+00
2.050562578203680708e+00
2.050562578203680708e+00
1.964684957426679368e+00
1.964684957426679368e+00
1.863244361705374219e+00
1.863244361705374219e+00
1.911995849482711396e+00
1.911995849482711396e+00
2.147128025147251762e+00
2.147128025147251762e+00
2.047187475203710694e+00
2.047187475203710694e+00
1.902058046205023389e+00
1.902058046205023389e+00
2.020186651203955464e+00
2.020186651203955464e+00
2.023374248481704107e+00
2.023374248481704107e+00
1.836056031983398062e+00
1.836056031983398062e+00
1.836056031983398062e+00
1.797804864650410339e+00
1.797804864650410339e+00
1.817117954039124683e+00
1.817117954039124683e+00
1.811867793816950067e+00
1.811867793816950067e+00
1.971435163426618287e+00
1.971435163426618287e+00
2.113564500869777874e+00
2.113564500869777874e+00
2.296945097201452679e+00
2.296945097201452679e+00
2.284569719534897736e+00
2.284569719534897736e+00
2.756334116641743215e+00
2.756334116641743215e+00
2.756334116641743215e+00
3.037592699972533339e+00
3.037592699972533339e+00
2.919089083529160522e+00
2.919089083529160522e+00
2.786147526474807012e+00
2.786147526474807012e+00
2.819148533585619898e+00
2.819148533585619898e+00
2.855149632251960945e+00
2.855149632251960945e+00
2.863212378307443462e+00
2.863212378307443462e+00
2.811460798974577902e+00
2.811460798974577902e+00
2.471887936033204003e+00
2.471887936033204003e+00
2.471887936033204003e+00
2.053937681203650278e+00
2.053937681203650278e+00
1.772304086428418968e+00
1.772304086428418968e+00
1.686051454206976441e+00
1.686051454206976441e+00
1.690364085818048645e+00
1.690364085818048645e+00
1.584985869930112701e+00
1.584985869930112701e+00
1.907683217871639192e+00
1.907683217871639192e+00
2.054125186925870761e+00
2.054125186925870761e+00
2.054125186925870761e+00
2.255693838312936794e+00
2.255693838312936794e+00
2.486513382366405178e+00
2.486513382366405178e+00
2.563203222754600663e+00
2.563203222754600663e+00
2.553640430921353843e+00
2.553640430921353843e+00
2.588328989532151070e+00
2.588328989532151070e+00
2.664831324198126516e+00
2.664831324198126516e+00
2.450887295144505096e+00
2.450887295144505096e+00
2.092563859981078966e+00
2.092563859981078966e+00
1.916120975371562896e+00
1.916120975371562896e+00
1.916120975371562896e+00
1.966935026093325822e+00
1.966935026093325822e+00
1.880494888149662813e+00
1.880494888149662813e+00
1.980810449537644624e+00
1.980810449537644624e+00
2.364447157200842309e+00
2.364447157200842309e+00
2.228130497146519229e+00
2.228130497146519229e+00
2.120689718314157535e+00
2.120689718314157535e+00
2.212755027924436124e+00
2.212755027924436124e+00
2.019249122592852608e+00
2.019249122592852608e+00
2.019249122592852608e+00
1.974997772148808339e+00
1.974997772148808339e+00
2.224755394146549659e+00
2.224755394146549659e+00
2.378322580645161111e+00
2.378322580645161111e+00
2.361072054200873183e+00
2.361072054200873183e+00
2.533014801477095901e+00
2.533014801477095901e+00
2.498513748588519157e+00
2.498513748588519157e+00
2.695207251197851317e+00
2.695207251197851317e+00
2.730270821253089952e+00
2.730270821253089952e+00
2.730270821253089952e+00
2.742458693197424413e+00
2.742458693197424413e+00
2.739458601641895807e+00
2.739458601641895807e+00
2.528514664143802992e+00
2.528514664143802992e+00
2.213317545091097571e+00
2.213317545091097571e+00
2.101751640369884377e+00
2.101751640369884377e+00
2.013811456648457288e+00
2.013811456648457288e+00
1.951747062593462978e+00
1.951747062593462978e+00
2.002748619037446165e+00
2.002748619037446165e+00
2.002748619037446165e+00
1.982310495315408927e+00
1.982310495315408927e+00
1.974060243537705706e+00
1.974060243537705706e+00
2.026186834315011787e+00
2.026186834315011787e+00
2.034437086092715230e+00
2.034437086092715230e+00
1.948559465315714112e+00
1.948559465315714112e+00
1.777366740928373101e+00
1.777366740928373101e+00
1.643112643818475993e+00
1.643112643818475993e+00
1.643112643818475993e+00
1.537734427930540049e+00
1.537734427930540049e+00
1.534734336375011443e+00
1.534734336375011443e+00
1.717927426984466210e+00
1.717927426984466210e+00
2.003873653370769503e+00
2.003873653370769503e+00
2.424823999755851833e+00
2.424823999755851833e+00
3.038342722861415712e+00
3.038342722861415712e+00
3.450480300302133596e+00
3.450480300302133596e+00
3.615110324411755727e+00
3.615110324411755727e+00
3.615110324411755727e+00
3.641361125522629472e+00
3.641361125522629472e+00
3.443542588579973529e+00
3.443542588579973529e+00
3.049030549027985426e+00
3.049030549027985426e+00
2.732145878475295220e+00
2.732145878475295220e+00
2.379822626422925413e+00
2.379822626422925413e+00
2.358446974089785542e+00
2.358446974089785542e+00
2.200379650257881181e+00
2.200379650257881181e+00
2.177691457869197489e+00
2.177691457869197489e+00
2.071375713370158689e+00
2.071375713370158689e+00
2.071375713370158689e+00
1.959434797204504530e+00
1.959434797204504530e+00
2.026186834315011787e+00
2.026186834315011787e+00
2.228880520035401602e+00
2.228880520035401602e+00
2.448262215033417899e+00
2.448262215033417899e+00
2.369509811700796664e+00
2.369509811700796664e+00
2.335008758812219920e+00
2.335008758812219920e+00
2.375134983367412023e+00
2.375134983367412023e+00
2.113752006591998356e+00
2.113752006591998356e+00
2.113752006591998356e+00
1.755616077150792043e+00
1.755616077150792043e+00
1.709489669484542285e+00
1.709489669484542285e+00
1.877869808038575394e+00
1.877869808038575394e+00
1.780179326761681002e+00
1.780179326761681002e+00
1.812617816705832219e+00
1.812617816705832219e+00
1.798367381817072008e+00
1.798367381817072008e+00
1.832493423261207788e+00
1.832493423261207788e+00
1.918933561204870797e+00
1.918933561204870797e+00
1.918933561204870797e+00
1.922683675649281332e+00
1.922683675649281332e+00
1.939371684926908257e+00
1.939371684926908257e+00
2.113564500869777874e+00
2.113564500869777874e+00
2.279319559312723342e+00
2.279319559312723342e+00
2.490826013977477604e+00
2.490826013977477604e+00
2.569203405865657430e+00
2.569203405865657430e+00
2.742646198919644895e+00
2.742646198919644895e+00
2.945152378917813785e+00
2.945152378917813785e+00
2.945152378917813785e+00
3.153658742027039441e+00
3.153658742027039441e+00
3.007591784417249503e+00
3.007591784417249503e+00
2.922089175084689128e+00
2.922089175084689128e+00
2.948527481917783355e+00
2.948527481917783355e+00
2.784084963530381263e+00
2.784084963530381263e+00
2.743396221808526825e+00
2.743396221808526825e+00
2.696519791253395137e+00
2.696519791253395137e+00
2.526827112643818651e+00
2.526827112643818651e+00
2.526827112643818651e+00
2.321133335367900674e+00
2.321133335367900674e+00
2.143565416425061709e+00
2.143565416425061709e+00
2.002561113315225683e+00
2.002561113315225683e+00
1.886120059816278616e+00
1.886120059816278616e+00
1.854619098483230255e+00
1.854619098483230255e+00
2.108689352092044000e+00
2.108689352092044000e+00
2.041562303537095335e+00
2.041562303537095335e+00
1.710989715262306587e+00
1.710989715262306587e+00
1.710989715262306587e+00
1.498545731986449692e+00
1.498545731986449692e+00
1.559485091708121107e+00
1.559485091708121107e+00
1.827993285927915323e+00
1.827993285927915323e+00
1.952309579760124647e+00
1.952309579760124647e+00
2.255693838312936794e+00
2.255693838312936794e+00
2.574453566087832268e+00
2.574453566087832268e+00
2.855712149418622392e+00
2.855712149418622392e+00
2.855712149418622392e+00
2.890400708029419619e+00
2.890400708029419619e+00
2.940277230140079912e+00
2.940277230140079912e+00
2.942339793084505661e+00
2.942339793084505661e+00
2.588891506698812961e+00
2.588891506698812961e+00
2.354884365367595489e+00
2.354884365367595489e+00
2.201129673146763555e+00
2.201129673146763555e+00
2.220067751091036712e+00
2.220067751091036712e+00
2.396885647144993747e+00
2.396885647144993747e+00
2.396885647144993747e+00
2.449574755088961275e+00
2.449574755088961275e+00
2.353384319589831186e+00
2.353384319589831186e+00
2.197942075869014911e+00
2.197942075869014911e+00
1.937684133426923250e+00
1.937684133426923250e+00
1.591361064485610655e+00
1.591361064485610655e+00
1.269601245155186575e+00
1.269601245155186575e+00
9.729671926023133466e-01
9.729671926023133466e-01
1.232662617877742894e+00
1.232662617877742894e+00
1.232662617877742894e+00
1.578798181096835229e+00
1.578798181096835229e+00
1.963747428815576734e+00
1.963747428815576734e+00
2.158753379924924776e+00
2.158753379924924776e+00
2.391072969756157018e+00
2.391072969756157018e+00
2.657143589587084520e+00
2.657143589587084520e+00
3.053155674916837370e+00
3.053155674916837370e+00
2.941402264473403250e+00
2.941402264473403250e+00
2.922464186529130092e+00
2.922464186529130092e+00
2.922464186529130092e+00
3.083719107638783097e+00
3.083719107638783097e+00
2.998404004028443204e+00
2.998404004028443204e+00
2.766834437086092890e+00
2.766834437086092890e+00
2.593016632587664461e+00
2.593016632587664461e+00
2.373634937589648164e+00
2.373634937589648164e+00
2.241068391979735619e+00
2.241068391979735619e+00
2.218942716757713818e+00
2.218942716757713818e+00
2.566390820032349751e+00
2.566390820032349751e+00
2.566390820032349751e+00
2.745646290475173501e+00
2.745646290475173501e+00
2.631642811365093149e+00
2.631642811365093149e+00
2.531139744254890633e+00
2.531139744254890633e+00
2.528327158421582510e+00
2.528327158421582510e+00
2.453324869533372254e+00
2.453324869533372254e+00
2.269944273201696561e+00
2.269944273201696561e+00
2.137565233314004942e+00
2.137565233314004942e+00
2.044562395092623941e+00
2.044562395092623941e+00
1.887245094149601732e+00
1.887245094149601732e+00
1.887245094149601732e+00
1.763303811761833595e+00
1.763303811761833595e+00
1.707427106540116757e+00
1.707427106540116757e+00
1.519171361430707856e+00
1.519171361430707856e+00
1.491233008819849326e+00
1.491233008819849326e+00
2.017186559648426858e+00
2.017186559648426858e+00
2.178253975035859380e+00
2.178253975035859380e+00
2.094438917203283790e+00
2.094438917203283790e+00
2.063500473036897098e+00
2.063500473036897098e+00
2.063500473036897098e+00
2.208817407757805107e+00
2.208817407757805107e+00
2.370072328867458111e+00
2.370072328867458111e+00
2.476950590533158358e+00
2.476950590533158358e+00
2.825523728141117630e+00
2.825523728141117630e+00
2.737208532975249575e+00
2.737208532975249575e+00
2.402323313089388623e+00
2.402323313089388623e+00
2.126877407147435228e+00
2.126877407147435228e+00
2.006686239204077182e+00
2.006686239204077182e+00
2.006686239204077182e+00
1.754491042817468927e+00
1.754491042817468927e+00
1.809430219428083131e+00
1.809430219428083131e+00
2.570140934476760286e+00
2.570140934476760286e+00
2.864524918362987282e+00
2.864524918362987282e+00
2.950027527695547214e+00
2.950027527695547214e+00
2.911963866084780417e+00
2.911963866084780417e+00
2.871837641529587870e+00
2.871837641529587870e+00
2.871837641529587870e+00
2.766459425641651482e+00
2.766459425641651482e+00
2.604266975920896066e+00
2.604266975920896066e+00
2.427636585589159957e+00
2.427636585589159957e+00
2.279507065034943825e+00
2.279507065034943825e+00
2.367447248756370914e+00
2.367447248756370914e+00
2.339508896145511940e+00
2.339508896145511940e+00
2.355259376812036454e+00
2.355259376812036454e+00
2.213505050813318054e+00
2.213505050813318054e+00
2.283257179479354360e+00
2.283257179479354360e+00
2.283257179479354360e+00
2.211254982146671821e+00
2.211254982146671821e+00
1.884245002594073348e+00
1.884245002594073348e+00
1.911620838038270209e+00
1.911620838038270209e+00
2.231880611590930208e+00
2.231880611590930208e+00
2.282882168034912951e+00
2.282882168034912951e+00
2.333883724478896582e+00
2.333883724478896582e+00
2.493638599810785283e+00
2.493638599810785283e+00
2.450699789422284613e+00
2.450699789422284613e+00
2.450699789422284613e+00
2.209192419202246516e+00
2.209192419202246516e+00
2.001811090426343309e+00
2.001811090426343309e+00
1.568860377819147223e+00
1.568860377819147223e+00
9.679045381023591021e-01
9.679045381023591021e-01
4.087624744407483135e-01
4.087624744407483135e-01
5.690798669392986842e-01
5.690798669392986842e-01
1.040281746879482494e+00
1.040281746879482494e+00
1.717927426984466210e+00
1.717927426984466210e+00
1.717927426984466210e+00
2.820273567918942792e+00
2.820273567918942792e+00
3.658986663411359253e+00
3.658986663411359253e+00
3.812553849909970705e+00
3.812553849909970705e+00
3.812553849909970705e+00
3.812553849909970705e+00
3.779552842799157819e+00
3.779552842799157819e+00
3.123657826471755161e+00
3.123657826471755161e+00
2.571640980254524589e+00
2.571640980254524589e+00
2.136065187536240639e+00
2.136065187536240639e+00
1.982122989593188223e+00
1.982122989593188223e+00
1.982122989593188223e+00
1.933183996093630785e+00
1.933183996093630785e+00
1.864556901760918040e+00
1.864556901760918040e+00
2.326383495590075512e+00
2.326383495590075512e+00
2.659956175420392643e+00
2.659956175420392643e+00
2.683394390697958265e+00
2.683394390697958265e+00
2.585141392254402426e+00
2.585141392254402426e+00
2.293194982757042144e+00
2.293194982757042144e+00
2.060875392925809457e+00
2.060875392925809457e+00
2.060875392925809457e+00
2.097063997314370987e+00
2.097063997314370987e+00
2.334446241645558029e+00
2.334446241645558029e+00
2.400635761589403838e+00
2.400635761589403838e+00
2.284194708090456771e+00
2.284194708090456771e+00
2.091626331369976111e+00
2.091626331369976111e+00
1.964122440260017699e+00
1.964122440260017699e+00
1.740990630817590867e+00
1.740990630817590867e+00
1.707989623706778204e+00
1.707989623706778204e+00
1.743990722373119473e+00
1.743990722373119473e+00
1.743990722373119473e+00
1.520858912930692641e+00
1.520858912930692641e+00
1.541109530930509397e+00
1.541109530930509397e+00
2.158190862758262885e+00
2.158190862758262885e+00
2.648705832087161038e+00
2.648705832087161038e+00
2.750896450697347895e+00
2.750896450697347895e+00
2.664643818475905590e+00
2.664643818475905590e+00
2.813898373363445060e+00
2.813898373363445060e+00
2.534327341532639721e+00
2.534327341532639721e+00
2.036124637592700015e+00
2.036124637592700015e+00
2.036124637592700015e+00
1.757491134372997310e+00
1.757491134372997310e+00
1.911058320871608762e+00
1.911058320871608762e+00
1.952309579760124647e+00
1.952309579760124647e+00
2.320008301034577336e+00
2.320008301034577336e+00
2.617767387920773903e+00
2.617767387920773903e+00
2.703645008697775243e+00
2.703645008697775243e+00
2.742646198919644895e+00
2.742646198919644895e+00
2.742646198919644895e+00
2.810148258919034081e+00
2.810148258919034081e+00
2.803773064363536793e+00
2.803773064363536793e+00
2.538639973143711703e+00
2.538639973143711703e+00
2.002561113315225683e+00
2.002561113315225683e+00
1.535859370708334559e+00
1.535859370708334559e+00
1.390167424542985364e+00
1.390167424542985364e+00
1.626237128818628586e+00
1.626237128818628586e+00
2.025061799981688893e+00
2.025061799981688893e+00
2.025061799981688893e+00
2.515201757866145638e+00
2.515201757866145638e+00
2.974590777306436173e+00
2.974590777306436173e+00
3.388040894802697878e+00
3.388040894802697878e+00
3.290162907803582559e+00
3.290162907803582559e+00
2.993716360972930257e+00
2.993716360972930257e+00
2.685644459364604497e+00
2.685644459364604497e+00
2.473950498977630197e+00
2.473950498977630197e+00
2.248943632312997654e+00
2.248943632312997654e+00
2.248943632312997654e+00
2.085251136814477935e+00
2.085251136814477935e+00
1.902620563371684836e+00
1.902620563371684836e+00
1.723927610095522978e+00
1.723927610095522978e+00
1.698989349040192831e+00
1.698989349040192831e+00
1.871494613483077663e+00
1.871494613483077663e+00
2.092751365703299449e+00
2.092751365703299449e+00
2.166253608813745402e+00
2.166253608813745402e+00
2.318133243812372069e+00
2.318133243812372069e+00
2.318133243812372069e+00
2.557203039643543896e+00
2.557203039643543896e+00
2.150128116702780368e+00
2.150128116702780368e+00
1.536234382152775746e+00
1.536234382152775746e+00
1.287414288766136616e+00
1.287414288766136616e+00
1.051532090212714099e+00
1.051532090212714099e+00
1.310102481154820531e+00
1.310102481154820531e+00
2.008748802148503376e+00
2.008748802148503376e+00
2.591891598254341122e+00
2.591891598254341122e+00
2.591891598254341122e+00
3.135470686971648657e+00
3.135470686971648657e+00
3.486293893246254161e+00
3.486293893246254161e+00
3.292225470748008753e+00
3.292225470748008753e+00
3.203910275582140699e+00
3.203910275582140699e+00
3.011154393139439112e+00
3.011154393139439112e+00
2.854399609363079016e+00
2.854399609363079016e+00
2.682831873531296818e+00
2.682831873531296818e+00
2.307820429090243319e+00
2.307820429090243319e+00
2.307820429090243319e+00
2.092376354258858040e+00
2.092376354258858040e+00
2.157815851313821920e+00
2.157815851313821920e+00
2.173191320535905025e+00
2.173191320535905025e+00
2.148253059480575100e+00
2.148253059480575100e+00
2.144502945036164565e+00
2.144502945036164565e+00
2.137002716147343495e+00
2.137002716147343495e+00
1.924933744315927786e+00
1.924933744315927786e+00
1.924933744315927786e+00
1.820868068483535218e+00
1.820868068483535218e+00
1.932808984649189599e+00
1.932808984649189599e+00
2.208629902035584625e+00
2.208629902035584625e+00
2.247443586535233351e+00
2.247443586535233351e+00
2.372134891811884305e+00
2.372134891811884305e+00
2.394448072756126589e+00
2.394448072756126589e+00
2.051687612537003602e+00
2.051687612537003602e+00
1.844118778038880579e+00
1.844118778038880579e+00
1.844118778038880579e+00
1.872619647816400779e+00
1.872619647816400779e+00
2.001248573259681862e+00
2.001248573259681862e+00
2.128752464369640052e+00
2.128752464369640052e+00
2.422948942533646566e+00
2.422948942533646566e+00
2.759146702475051338e+00
2.759146702475051338e+00
2.719770500808740721e+00
2.719770500808740721e+00
2.488763451033051854e+00
2.488763451033051854e+00
2.382260200811792572e+00
2.382260200811792572e+00
2.311945554979094819e+00
2.311945554979094819e+00
2.311945554979094819e+00
2.366697225867488541e+00
2.366697225867488541e+00
2.622267525254066367e+00
2.622267525254066367e+00
2.541640064699239865e+00
2.541640064699239865e+00
2.374572466200750576e+00
2.374572466200750576e+00
2.268631733146153184e+00
2.268631733146153184e+00
2.223255348368785356e+00
2.223255348368785356e+00
2.286819788201544412e+00
2.286819788201544412e+00
2.437386883144627259e+00
2.437386883144627259e+00
2.434386791589098653e+00
2.434386791589098653e+00
2.434386791589098653e+00
2.263944090090640238e+00
2.263944090090640238e+00
2.087313699758903685e+00
2.087313699758903685e+00
1.892307748649555865e+00
1.892307748649555865e+00
1.877119785149693465e+00
1.877119785149693465e+00
1.905058137760551773e+00
1.905058137760551773e+00
2.135502670369579192e+00
2.135502670369579192e+00
2.642705648976104271e+00
2.642705648976104271e+00
2.489325968199713301e+00
2.489325968199713301e+00
2.489325968199713301e+00
2.109814386425366894e+00
2.109814386425366894e+00
1.994498367259743166e+00
1.994498367259743166e+00
1.924933744315927786e+00
1.924933744315927786e+00
1.939184179204687553e+00
1.939184179204687553e+00
2.317008209479048730e+00
2.317008209479048730e+00
2.955652699362163460e+00
2.955652699362163460e+00
3.174659382915738348e+00
3.174659382915738348e+00
2.981715994750816723e+00
2.981715994750816723e+00
2.981715994750816723e+00
2.697457319864497993e+00
2.697457319864497993e+00
2.457637501144443792e+00
2.457637501144443792e+00
2.182566606646931362e+00
2.182566606646931362e+00
2.138877773369548763e+00
2.138877773369548763e+00
2.339696401867732423e+00
2.339696401867732423e+00
2.298632648701437464e+00
2.298632648701437464e+00
2.222692831202123909e+00
2.222692831202123909e+00
2.222692831202123909e+00
2.162878505813776275e+00
2.162878505813776275e+00
2.094251411481063307e+00
2.094251411481063307e+00
1.971435163426618287e+00
1.971435163426618287e+00
2.000311044648579006e+00
2.000311044648579006e+00
2.074000793481246330e+00
2.074000793481246330e+00
2.048500015259254514e+00
2.048500015259254514e+00
2.124814844203009478e+00
2.124814844203009478e+00
2.164003540147099169e+00
2.164003540147099169e+00
2.164003540147099169e+00
2.187254249702444309e+00
2.187254249702444309e+00
2.097251503036591469e+00
2.097251503036591469e+00
2.233568163090914993e+00
2.233568163090914993e+00
2.346446607867672007e+00
2.346446607867672007e+00
2.229818048646504014e+00
2.229818048646504014e+00
2.162315988647114828e+00
2.162315988647114828e+00
2.377010040589617734e+00
2.377010040589617734e+00
2.544640156254768470e+00
2.544640156254768470e+00
2.544640156254768470e+00
2.534139835810419239e+00
2.534139835810419239e+00
2.539952513199255080e+00
2.539952513199255080e+00
2.468700338755454915e+00
2.468700338755454915e+00
2.396323129978331856e+00
2.396323129978331856e+00
2.238443311868648422e+00
2.238443311868648422e+00
2.163253517258217240e+00
2.163253517258217240e+00
2.053562669759208870e+00
2.053562669759208870e+00
1.668050904873805917e+00
1.668050904873805917e+00
1.668050904873805917e+00
1.561735160374767339e+00
1.561735160374767339e+00
1.368041749320963341e+00
1.368041749320963341e+00
1.429543626209295981e+00
1.429543626209295981e+00
1.687176488540299779e+00
1.687176488540299779e+00
2.223067842646564873e+00
2.223067842646564873e+00
2.785585009308145121e+00
2.785585009308145121e+00
3.225660939359721979e+00
3.225660939359721979e+00
3.316226203192236266e+00
3.316226203192236266e+00
3.316226203192236266e+00
2.921151646473586272e+00
2.921151646473586272e+00
2.605954527420880851e+00
2.605954527420880851e+00
2.579516220587786623e+00
2.579516220587786623e+00
2.582516312143315229e+00
2.582516312143315229e+00
2.448824732200079346e+00
2.448824732200079346e+00
2.482200750755333196e+00
2.482200750755333196e+00
2.693144688253425567e+00
2.693144688253425567e+00
2.496076174199651998e+00
2.496076174199651998e+00
2.496076174199651998e+00
2.334258735923337547e+00
2.334258735923337547e+00
2.248006103701895242e+00
2.248006103701895242e+00
2.251381206701864812e+00
2.251381206701864812e+00
2.299382671590319838e+00
2.299382671590319838e+00
2.372509903256325270e+00
2.372509903256325270e+00
2.411886104922635443e+00
2.411886104922635443e+00
2.246131046479689974e+00
2.246131046479689974e+00
2.169816217535935454e+00
2.169816217535935454e+00
2.169816217535935454e+00
2.074188299203466812e+00
2.074188299203466812e+00
1.998623493148594665e+00
1.998623493148594665e+00
1.813367839594714370e+00
1.813367839594714370e+00
1.828743308816797475e+00
1.828743308816797475e+00
2.052250129703665493e+00
2.052250129703665493e+00
2.178066469313638454e+00
2.178066469313638454e+00
2.437574388866847741e+00
2.437574388866847741e+00
2.547077730643635629e+00
2.547077730643635629e+00
2.487075899533067069e+00
2.487075899533067069e+00
2.487075899533067069e+00
2.347196630756553937e+00
2.347196630756553937e+00
2.317383220923490139e+00
2.317383220923490139e+00
2.258693929868464956e+00
2.258693929868464956e+00
2.105501754814294912e+00
2.105501754814294912e+00
1.999373516037476817e+00
1.999373516037476817e+00
1.869619556260872173e+00
1.869619556260872173e+00
1.877869808038575394e+00
1.877869808038575394e+00
1.865306924649800191e+00
1.865306924649800191e+00
1.865306924649800191e+00
2.280819605090487201e+00
2.280819605090487201e+00
2.490826013977477604e+00
2.490826013977477604e+00
2.551765373699148576e+00
2.551765373699148576e+00
2.497201208532975336e+00
2.497201208532975336e+00
2.433636768700216724e+00
2.433636768700216724e+00
2.417511276589251690e+00
2.417511276589251690e+00
2.455012421033357040e+00
2.455012421033357040e+00
2.491576036866359534e+00
2.491576036866359534e+00
2.491576036866359534e+00
2.299570177312540320e+00
2.299570177312540320e+00
2.131377544480727693e+00
2.131377544480727693e+00
2.152190679647205673e+00
2.152190679647205673e+00
2.044374889370403459e+00
2.044374889370403459e+00
1.834555986205633760e+00
1.834555986205633760e+00
1.802680013428144212e+00
1.802680013428144212e+00
2.334258735923337547e+00
2.334258735923337547e+00
2.471512924588763038e+00
2.471512924588763038e+00
2.471512924588763038e+00
2.482200750755333196e+00
2.482200750755333196e+00
2.644393200476088612e+00
2.644393200476088612e+00
2.818961027863399416e+00
2.818961027863399416e+00
2.761209265419477088e+00
2.761209265419477088e+00
2.701019928586688046e+00
2.701019928586688046e+00
2.641768120365001415e+00
2.641768120365001415e+00
2.364072145756401344e+00
2.364072145756401344e+00
2.237505783257545566e+00
2.237505783257545566e+00
2.027874385814997016e+00
2.027874385814997016e+00
2.027874385814997016e+00
1.874307199316385342e+00
1.874307199316385342e+00
1.693364177373577029e+00
1.693364177373577029e+00
1.669550950651570220e+00
1.669550950651570220e+00
1.934684041871395088e+00
1.934684041871395088e+00
2.166066103091524919e+00
2.166066103091524919e+00
2.360697042756431774e+00
2.360697042756431774e+00
2.539765007477034597e+00
2.539765007477034597e+00
2.741708670308542040e+00
2.741708670308542040e+00
2.741708670308542040e+00
2.792335215308084262e+00
2.792335215308084262e+00
2.794022766808069491e+00
2.794022766808069491e+00
2.745083773308511610e+00
2.745083773308511610e+00
2.542952604754783685e+00
2.542952604754783685e+00
2.395198095645008962e+00
2.395198095645008962e+00
2.123689809869686140e+00
2.123689809869686140e+00
1.933934018982512937e+00
1.933934018982512937e+00
1.659425641651661731e+00
1.659425641651661731e+00
1.526296578875087739e+00
1.526296578875087739e+00
1.526296578875087739e+00
1.549922299874874287e+00
1.549922299874874287e+00
1.632987334818567282e+00
1.632987334818567282e+00
1.600173833429975323e+00
1.600173833429975323e+00
1.807742667928098568e+00
1.807742667928098568e+00
2.113939512314218838e+00
2.113939512314218838e+00
2.491763542588580016e+00
2.491763542588580016e+00
2.785585009308145121e+00
2.785585009308145121e+00
2.894150822473830154e+00
2.894150822473830154e+00
2.894150822473830154e+00
2.946277413251137123e+00
2.946277413251137123e+00
3.051280617694632102e+00
3.051280617694632102e+00
2.924901760917996807e+00
2.924901760917996807e+00
2.600329355754265048e+00
2.600329355754265048e+00
2.213692556535538980e+00
2.213692556535538980e+00
2.140377819147312621e+00
2.140377819147312621e+00
1.940684224982451855e+00
1.940684224982451855e+00
1.940684224982451855e+00
1.882369945371868081e+00
1.882369945371868081e+00
1.955684682760093995e+00
1.955684682760093995e+00
2.240505874813074172e+00
2.240505874813074172e+00
2.489138462477492819e+00
2.489138462477492819e+00
2.684144413586840638e+00
2.684144413586840638e+00
2.975528305917539029e+00
2.975528305917539029e+00
2.928089358195745451e+00
2.928089358195745451e+00
2.593204138309884943e+00
2.593204138309884943e+00
2.302757774590289408e+00
2.302757774590289408e+00
2.302757774590289408e+00
2.079438459425641650e+00
2.079438459425641650e+00
1.914058412427137146e+00
1.914058412427137146e+00
1.843931272316659875e+00
1.843931272316659875e+00
2.051312601092562637e+00
2.051312601092562637e+00
2.149753105258339403e+00
2.149753105258339403e+00
2.208629902035584625e+00
2.208629902035584625e+00
2.217442670979949515e+00
2.217442670979949515e+00
2.252506241035188150e+00
2.252506241035188150e+00
2.261506515701773079e+00
2.261506515701773079e+00
2.261506515701773079e+00
2.329196081423383191e+00
2.329196081423383191e+00
2.457074983977782345e+00
2.457074983977782345e+00
2.349821710867641578e+00
2.349821710867641578e+00
2.375509994811853431e+00
2.375509994811853431e+00
2.346259102145451525e+00
2.346259102145451525e+00
2.169066194647053525e+00
2.169066194647053525e+00
1.970872646259956840e+00
1.970872646259956840e+00
2.001623584704122827e+00
2.001623584704122827e+00
2.001623584704122827e+00
2.201879696035645484e+00
2.201879696035645484e+00
2.221567796868801015e+00
2.221567796868801015e+00
2.299570177312540320e+00
2.299570177312540320e+00
2.494388622699667213e+00
2.494388622699667213e+00
2.555140476699118146e+00
2.555140476699118146e+00
2.396510635700552783e+00
2.396510635700552783e+00
2.282319650868251504e+00
2.282319650868251504e+00
2.282319650868251504e+00
2.145252967925046494e+00
2.145252967925046494e+00
1.714739829706717344e+00
1.714739829706717344e+00
1.551609851374858851e+00
1.551609851374858851e+00
1.570922940763573195e+00
1.570922940763573195e+00
1.720927518539994372e+00
1.720927518539994372e+00
2.025999328592791304e+00
2.025999328592791304e+00
2.646080751976073397e+00
2.646080751976073397e+00
3.045092928861354409e+00
3.045092928861354409e+00
3.045092928861354409e+00
3.087094210638752667e+00
3.087094210638752667e+00
2.993716360972930257e+00
2.993716360972930257e+00
2.942339793084505661e+00
2.942339793084505661e+00
2.830398876918851503e+00
2.830398876918851503e+00
2.617579882198553420e+00
2.617579882198553420e+00
2.512576677755058441e+00
2.512576677755058441e+00
2.360697042756431774e+00
2.360697042756431774e+00
2.146940519425031280e+00
2.146940519425031280e+00
2.146940519425031280e+00
1.986623126926480909e+00
1.986623126926480909e+00
1.827618274483474137e+00
1.827618274483474137e+00
1.747928342539750490e+00
1.747928342539750490e+00
1.666175847651600872e+00
1.666175847651600872e+00
1.920246101260414395e+00
1.920246101260414395e+00
1.983810541093173230e+00
1.983810541093173230e+00
2.050375072481459782e+00
2.050375072481459782e+00
2.288132328257088233e+00
2.288132328257088233e+00
2.288132328257088233e+00
2.638205511642811363e+00
2.638205511642811363e+00
2.880462904751731834e+00
2.880462904751731834e+00
2.917026520584734772e+00
2.917026520584734772e+00
2.905401165807061759e+00
2.905401165807061759e+00
2.593016632587664461e+00
2.593016632587664461e+00
2.344009033478804849e+00
2.344009033478804849e+00
2.118627155369731785e+00
2.118627155369731785e+00
1.866056947538682342e+00
1.866056947538682342e+00
1.866056947538682342e+00
1.662613238929410597e+00
1.662613238929410597e+00
1.612549211096530044e+00
1.612549211096530044e+00
1.923996215704825152e+00
1.923996215704825152e+00
2.112251960814234053e+00
2.112251960814234053e+00
2.229630542924283532e+00
2.229630542924283532e+00
2.397448164311655194e+00
2.397448164311655194e+00
2.536202398754844989e+00
2.536202398754844989e+00
2.536202398754844989e+00
2.538452467421491221e+00
2.538452467421491221e+00
2.504138920255134515e+00
2.504138920255134515e+00
2.450699789422284613e+00
2.450699789422284613e+00
2.182754112369151844e+00
2.182754112369151844e+00
2.040062257759331033e+00
2.040062257759331033e+00
1.920996124149296547e+00
1.920996124149296547e+00
1.932246467482528152e+00
1.932246467482528152e+00
1.936559099093600356e+00
1.936559099093600356e+00
1.936559099093600356e+00
2.036874660481581945e+00
2.036874660481581945e+00
2.340258919034394314e+00
2.340258919034394314e+00
2.354696859645375007e+00
2.354696859645375007e+00
2.371759880367442896e+00
2.371759880367442896e+00
2.460825098422192880e+00
2.460825098422192880e+00
2.585328897976622908e+00
2.585328897976622908e+00
2.675144138920255266e+00
2.675144138920255266e+00
2.750333933530686004e+00
2.750333933530686004e+00
2.750333933530686004e+00
2.625455122531815455e+00
2.625455122531815455e+00
2.463825189977721486e+00
2.463825189977721486e+00
2.296757591479232197e+00
2.296757591479232197e+00
1.996185918759727951e+00
1.996185918759727951e+00
1.792929715872676688e+00
1.792929715872676688e+00
1.794617267372661473e+00
1.794617267372661473e+00
2.207692373424482213e+00
2.207692373424482213e+00
2.466262764366588645e+00
2.466262764366588645e+00
2.466262764366588645e+00
2.451449812311166987e+00
2.451449812311166987e+00
2.413573656422620228e+00
2.413573656422620228e+00
2.559453108310190128e+00
2.559453108310190128e+00
2.527202124088259172e+00
2.527202124088259172e+00
2.456137455366679934e+00
2.456137455366679934e+00
2.515576769310586602e+00
2.515576769310586602e+00
2.477700613422040732e+00
2.477700613422040732e+00
2.347946653645436310e+00
2.347946653645436310e+00
2.213692556535538980e+00
2.213692556535538980e+00
2.029561937314981801e+00
2.029561937314981801e+00
2.029561937314981801e+00
1.899057954649495006e+00
1.899057954649495006e+00
1.701614429151280250e+00
1.701614429151280250e+00
1.902995574816126023e+00
1.902995574816126023e+00
1.991685781426435042e+00
1.991685781426435042e+00
2.171503769035920239e+00
2.171503769035920239e+00
2.405510910367137711e+00
2.405510910367137711e+00
2.602204412976470316e+00
2.602204412976470316e+00
2.658268623920407858e+00
2.658268623920407858e+00
2.658268623920407858e+00
2.716582903530991633e+00
2.716582903530991633e+00
2.748083864864040216e+00
2.748083864864040216e+00
2.512389172032837958e+00
2.512389172032837958e+00
2.337446333201086635e+00
2.337446333201086635e+00
2.179941526535844165e+00
2.179941526535844165e+00
2.110189397869807859e+00
2.110189397869807859e+00
2.012498916592913467e+00
2.012498916592913467e+00
2.012498916592913467e+00
2.003686147648549021e+00
2.003686147648549021e+00
2.209942442091128445e+00
2.209942442091128445e+00
2.210129947813348927e+00
2.210129947813348927e+00
2.243130954924161813e+00
2.243130954924161813e+00
2.341758964812158617e+00
2.341758964812158617e+00
2.347384136478774419e+00
2.347384136478774419e+00
2.301632740256966070e+00
2.301632740256966070e+00
2.364634662923062791e+00
2.364634662923062791e+00
2.364634662923062791e+00
2.358446974089785542e+00
2.358446974089785542e+00
2.144690450758385047e+00
2.144690450758385047e+00
2.086751182592242237e+00
2.086751182592242237e+00
2.016811548203985893e+00
2.016811548203985893e+00
2.034624591814935712e+00
2.034624591814935712e+00
1.956059694204534960e+00
1.956059694204534960e+00
2.128377452925199087e+00
2.128377452925199087e+00
2.321883358256782603e+00
2.321883358256782603e+00
2.383760246589556875e+00
2.383760246589556875e+00
2.383760246589556875e+00
2.475075533310953091e+00
2.475075533310953091e+00
2.575766106143375644e+00
2.575766106143375644e+00
2.601829401532029351e+00
2.601829401532029351e+00
2.702519974364452349e+00
2.702519974364452349e+00
2.788772606585894209e+00
2.788772606585894209e+00
2.670456495864741875e+00
2.670456495864741875e+00
2.432886745811334794e+00
2.432886745811334794e+00
2.210692464980010374e+00
2.210692464980010374e+00
2.210692464980010374e+00
1.991685781426435042e+00
1.991685781426435042e+00
1.880494888149662813e+00
1.880494888149662813e+00
1.768553971984008211e+00
1.768553971984008211e+00
1.932433973204748634e+00
1.932433973204748634e+00
1.990560747093111926e+00
1.990560747093111926e+00
2.015123996704001108e+00
2.015123996704001108e+00
2.210504959257789892e+00
2.210504959257789892e+00
2.396323129978331856e+00
2.396323129978331856e+00
2.396323129978331856e+00
2.414511185033723084e+00
2.414511185033723084e+00
2.471137913144322074e+00
2.471137913144322074e+00
2.681519333475752997e+00
2.681519333475752997e+00
2.628080202642903096e+00
2.628080202642903096e+00
2.509014069032868388e+00
2.509014069032868388e+00
2.309507980590228104e+00
2.309507980590228104e+00
2.151253151036103706e+00
2.151253151036103706e+00
2.151253151036103706e+00
2.034249580370494748e+00
2.034249580370494748e+00
2.066688070314646186e+00
2.066688070314646186e+00
2.435136814477980582e+00
2.435136814477980582e+00
2.421636402478102745e+00
2.421636402478102745e+00
2.338758873256630455e+00
2.338758873256630455e+00
2.311758049256874337e+00
2.311758049256874337e+00
2.317758232367931104e+00
2.317758232367931104e+00
2.231505600146489243e+00
2.231505600146489243e+00
2.231505600146489243e+00
2.229818048646504014e+00
2.229818048646504014e+00
2.308570451979125249e+00
2.308570451979125249e+00
2.188566789757988129e+00
2.188566789757988129e+00
2.062000427259132795e+00
2.062000427259132795e+00
1.931308938871425740e+00
1.931308938871425740e+00
1.989248207037568328e+00
1.989248207037568328e+00
2.048312509537034032e+00
2.048312509537034032e+00
2.143190404980620745e+00
2.143190404980620745e+00
2.143190404980620745e+00
2.334446241645558029e+00
2.334446241645558029e+00
2.286069765312662039e+00
2.286069765312662039e+00
2.377197546311838217e+00
2.377197546311838217e+00
2.515389263588366120e+00
2.515389263588366120e+00
2.529452192754905848e+00
2.529452192754905848e+00
2.520826929532761884e+00
2.520826929532761884e+00
2.598829309976500745e+00
2.598829309976500745e+00
2.600516861476485531e+00
2.600516861476485531e+00
2.425011505478072316e+00
2.425011505478072316e+00
2.339508896145511940e+00
2.339508896145511940e+00
2.339508896145511940e+00
2.240130863368633207e+00
2.240130863368633207e+00
2.199067110202337361e+00
2.199067110202337361e+00
2.085251136814477935e+00
2.085251136814477935e+00
2.246318552201910457e+00
2.246318552201910457e+00
2.330696127201147494e+00
2.330696127201147494e+00
2.203754753257850751e+00
2.203754753257850751e+00
2.125377361369670925e+00
2.125377361369670925e+00
2.082251045258949329e+00
2.082251045258949329e+00
2.082251045258949329e+00
2.028061891537217498e+00
2.028061891537217498e+00
2.016061525315103520e+00
2.016061525315103520e+00
2.162878505813776275e+00
2.162878505813776275e+00
2.273506881923887057e+00
2.273506881923887057e+00
2.347009125034333454e+00
2.347009125034333454e+00
2.427824091311380439e+00
2.427824091311380439e+00
2.409823541978209693e+00
2.409823541978209693e+00
2.409823541978209693e+00
2.272381847590563719e+00
2.272381847590563719e+00
2.069500656147953865e+00
2.069500656147953865e+00
2.252131229590746742e+00
2.252131229590746742e+00
2.248193609424115724e+00
2.248193609424115724e+00
2.101376628925443413e+00
2.101376628925443413e+00
2.083751091036713632e+00
2.083751091036713632e+00
2.226255439924313961e+00
2.226255439924313961e+00
2.373447431867427682e+00
2.373447431867427682e+00
2.454074892422254184e+00
2.454074892422254184e+00
2.454074892422254184e+00
2.515014252143925599e+00
2.515014252143925599e+00
2.361072054200873183e+00
2.361072054200873183e+00
2.350196722312082542e+00
2.350196722312082542e+00
2.424448988311410869e+00
2.424448988311410869e+00
2.411511093478194478e+00
2.411511093478194478e+00
2.202067201757865966e+00
2.202067201757865966e+00
2.156690816980498582e+00
2.156690816980498582e+00
2.450887295144505096e+00
2.450887295144505096e+00
2.450887295144505096e+00
2.392760521256141804e+00
2.392760521256141804e+00
2.404948393200476264e+00
2.404948393200476264e+00
2.485763359477523249e+00
2.485763359477523249e+00
2.529264687032685366e+00
2.529264687032685366e+00
2.455012421033357040e+00
2.455012421033357040e+00
2.329571092867824156e+00
2.329571092867824156e+00
2.221380291146580532e+00
2.221380291146580532e+00
2.004998687704092397e+00
2.004998687704092397e+00
2.004998687704092397e+00
1.935434064760277240e+00
1.935434064760277240e+00
1.906933194982757040e+00
1.906933194982757040e+00
1.966935026093325822e+00
1.966935026093325822e+00
1.963372417371135548e+00
1.963372417371135548e+00
2.192504409924619146e+00
2.192504409924619146e+00
2.552890408032471470e+00
2.552890408032471470e+00
2.558140568254646752e+00
2.558140568254646752e+00
2.520639423810540958e+00
2.520639423810540958e+00
2.520639423810540958e+00
2.605579515976439886e+00
2.605579515976439886e+00
2.582516312143315229e+00
2.582516312143315229e+00
2.521201940977202849e+00
2.521201940977202849e+00
2.509014069032868388e+00
2.509014069032868388e+00
2.405510910367137711e+00
2.405510910367137711e+00
2.210317453535568966e+00
2.210317453535568966e+00
2.129314981536301499e+00
2.129314981536301499e+00
2.086938688314462720e+00
2.086938688314462720e+00
2.086938688314462720e+00
2.046812463759269729e+00
2.046812463759269729e+00
1.958497268593401897e+00
1.958497268593401897e+00
2.255131321146275347e+00
2.255131321146275347e+00
2.351509262367625919e+00
2.351509262367625919e+00
2.274069399090548504e+00
2.274069399090548504e+00
2.265256630146183614e+00
2.265256630146183614e+00
2.326383495590075512e+00
2.326383495590075512e+00
2.326383495590075512e+00
2.320383312479018745e+00
2.320383312479018745e+00
2.270131778923917043e+00
2.270131778923917043e+00
2.316633198034607766e+00
2.316633198034607766e+00
2.245193517868587563e+00
2.245193517868587563e+00
2.150690633869442259e+00
2.150690633869442259e+00
2.096688985869930022e+00
2.096688985869930022e+00
2.087313699758903685e+00
2.087313699758903685e+00
2.077563402203436382e+00
2.077563402203436382e+00
2.083938596758934114e+00
2.083938596758934114e+00
2.083938596758934114e+00
2.499451277199621568e+00
2.499451277199621568e+00
2.490075991088595231e+00
2.490075991088595231e+00
2.355821893978697901e+00
2.355821893978697901e+00
2.297695120090334608e+00
2.297695120090334608e+00
2.324883449812311209e+00
2.324883449812311209e+00
2.326195989867855030e+00
2.326195989867855030e+00
2.367822260200811879e+00
2.367822260200811879e+00
2.398385692922757606e+00
2.398385692922757606e+00
2.231880611590930208e+00
2.231880611590930208e+00
2.231880611590930208e+00
2.122189764091921838e+00
2.122189764091921838e+00
2.042312326425977265e+00
2.042312326425977265e+00
2.095001434369945237e+00
2.095001434369945237e+00
2.031624500259407551e+00
2.031624500259407551e+00
2.153878231147190458e+00
2.153878231147190458e+00
2.476388073366496911e+00
2.476388073366496911e+00
2.459512558366649504e+00
2.459512558366649504e+00
2.459512558366649504e+00
2.428386608478041886e+00
2.428386608478041886e+00
2.369134800256355700e+00
2.369134800256355700e+00
2.331821161534470832e+00
2.331821161534470832e+00
2.296570085757011714e+00
2.296570085757011714e+00
2.281382122257148648e+00
2.281382122257148648e+00
2.264131595812860720e+00
2.264131595812860720e+00
2.181066560869167059e+00
2.181066560869167059e+00
2.224755394146549659e+00
2.224755394146549659e+00
2.224755394146549659e+00
2.284382213812677254e+00
2.284382213812677254e+00
2.318320749534592551e+00
2.318320749534592551e+00
2.220442762535478121e+00
2.220442762535478121e+00
2.381510177922910199e+00
2.381510177922910199e+00
2.544265144810327506e+00
2.544265144810327506e+00
2.461200109866634289e+00
2.461200109866634289e+00
2.410573564867091623e+00
2.410573564867091623e+00
2.423886471144749422e+00
2.423886471144749422e+00
2.423886471144749422e+00
2.371572374645222414e+00
2.371572374645222414e+00
2.313445600756859122e+00
2.313445600756859122e+00
2.342508987701040546e+00
2.342508987701040546e+00
2.320758323923459709e+00
2.320758323923459709e+00
2.213692556535538980e+00
2.213692556535538980e+00
2.162315988647114828e+00
2.162315988647114828e+00
2.134002624591814889e+00
2.134002624591814889e+00
2.107001800592058771e+00
2.107001800592058771e+00
2.107001800592058771e+00
2.020936674092837393e+00
2.020936674092837393e+00
2.305007843256935196e+00
2.305007843256935196e+00
2.356759422589800756e+00
2.356759422589800756e+00
2.272381847590563719e+00
2.272381847590563719e+00
2.202067201757865966e+00
2.202067201757865966e+00
2.159690908536027187e+00
2.159690908536027187e+00
2.139440290536210654e+00
2.139440290536210654e+00
2.194754478591265823e+00
2.194754478591265823e+00
2.194754478591265823e+00
2.297132602923673161e+00
2.297132602923673161e+00
2.268819238868374111e+00
2.268819238868374111e+00
2.212567522202215642e+00
2.212567522202215642e+00
2.156128299813837135e+00
2.156128299813837135e+00
2.184629169591357556e+00
2.184629169591357556e+00
2.169441206091494490e+00
2.169441206091494490e+00
2.132502578814050587e+00
2.132502578814050587e+00
2.420698873867000778e+00
2.420698873867000778e+00
2.420698873867000778e+00
2.422761436811426083e+00
2.422761436811426083e+00
2.426136539811395654e+00
2.426136539811395654e+00
2.508826563310647906e+00
2.508826563310647906e+00
2.533389812921536866e+00
2.533389812921536866e+00
2.446574663533433114e+00
2.446574663533433114e+00
2.398948210089419053e+00
2.398948210089419053e+00
2.406823450422681532e+00
2.406823450422681532e+00
2.406823450422681532e+00
2.243693472090823260e+00
2.243693472090823260e+00
2.185566698202459968e+00
2.185566698202459968e+00
2.127064912869655711e+00
2.127064912869655711e+00
2.147878048036134135e+00
2.147878048036134135e+00
2.104376720480972018e+00
2.104376720480972018e+00
2.226817957090975852e+00
2.226817957090975852e+00
2.443012054811243061e+00
2.443012054811243061e+00
2.374009949034089573e+00
2.374009949034089573e+00
2.374009949034089573e+00
2.360884548478652700e+00
2.360884548478652700e+00
2.366509720145268059e+00
2.366509720145268059e+00
2.326008484145634547e+00
2.326008484145634547e+00
2.313820612201300086e+00
2.313820612201300086e+00
2.337633838923307117e+00
2.337633838923307117e+00
2.361822077089755112e+00
2.361822077089755112e+00
2.260193975646229259e+00
2.260193975646229259e+00
2.192316904202398664e+00
2.192316904202398664e+00
2.192316904202398664e+00
2.092188848536637558e+00
2.092188848536637558e+00
2.046624958037049247e+00
2.046624958037049247e+00
1.972560197759941625e+00
1.972560197759941625e+00
2.182191595202490397e+00
2.182191595202490397e+00
2.316258186590166801e+00
2.316258186590166801e+00
2.313633106479079604e+00
2.313633106479079604e+00
2.372509903256325270e+00
2.372509903256325270e+00
2.460075075533310951e+00
2.460075075533310951e+00
2.464200201422162451e+00
2.464200201422162451e+00
2.451449812311166987e+00
2.451449812311166987e+00
2.451449812311166987e+00
2.441887020477920167e+00
2.441887020477920167e+00
2.380947660756248752e+00
2.380947660756248752e+00
2.306320383312479017e+00
2.306320383312479017e+00
2.221380291146580532e+00
2.221380291146580532e+00
2.125939878536332373e+00
2.125939878536332373e+00
2.065938047425763813e+00
2.065938047425763813e+00
1.981185460982085589e+00
1.981185460982085589e+00
2.277256996368297592e+00
2.277256996368297592e+00
2.277256996368297592e+00
2.308570451979125249e+00
2.308570451979125249e+00
2.271819330423901828e+00
2.271819330423901828e+00
2.313445600756859122e+00
2.313445600756859122e+00
2.362384594256416559e+00
2.362384594256416559e+00
2.330508621478927012e+00
2.330508621478927012e+00
2.275944456312753772e+00
2.275944456312753772e+00
2.327883541367839371e+00
2.327883541367839371e+00
2.221192785424360050e+00
2.221192785424360050e+00
2.221192785424360050e+00
2.146753013702810797e+00
2.146753013702810797e+00
2.099501571703238145e+00
2.099501571703238145e+00
2.115627063814203623e+00
2.115627063814203623e+00
2.067813104647969080e+00
2.067813104647969080e+00
2.145440473647266977e+00
2.145440473647266977e+00
2.471512924588763038e+00
2.471512924588763038e+00
2.388635395367290304e+00
2.388635395367290304e+00
2.388635395367290304e+00
2.252506241035188150e+00
2.252506241035188150e+00
2.236380748924222672e+00
2.236380748924222672e+00
2.242380932035279439e+00
2.242380932035279439e+00
2.251381206701864812e+00
2.251381206701864812e+00
2.294695028534806447e+00
2.294695028534806447e+00
2.396885647144993747e+00
2.396885647144993747e+00
2.385072786645100695e+00
2.385072786645100695e+00
2.457449995422223310e+00
2.457449995422223310e+00
2.457449995422223310e+00
2.449574755088961275e+00
2.449574755088961275e+00
2.404948393200476264e+00
2.404948393200476264e+00
2.239193334757530351e+00
2.239193334757530351e+00
2.291507431257057803e+00
2.291507431257057803e+00
2.413948667867061193e+00
2.413948667867061193e+00
2.278569536423841413e+00
2.278569536423841413e+00
2.194754478591265823e+00
2.194754478591265823e+00
2.223067842646564873e+00
2.223067842646564873e+00
2.239755851924192243e+00
2.239755851924192243e+00
2.239755851924192243e+00
2.222880336924344391e+00
2.222880336924344391e+00
2.219317728202154782e+00
2.219317728202154782e+00
2.208629902035584625e+00
2.208629902035584625e+00
2.141690359202856442e+00
2.141690359202856442e+00
2.151065645313883223e+00
2.151065645313883223e+00
2.162128482924894346e+00
2.162128482924894346e+00
2.160253425702688634e+00
2.160253425702688634e+00
2.105689260536515395e+00
2.105689260536515395e+00
2.365947202978606612e+00
2.365947202978606612e+00
2.365947202978606612e+00
2.479388164922025517e+00
2.479388164922025517e+00
2.453512375255592737e+00
2.453512375255592737e+00
2.465887752922147680e+00
2.465887752922147680e+00
2.467012787255470574e+00
2.467012787255470574e+00
2.400448255867183356e+00
2.400448255867183356e+00
2.361447065645314147e+00
2.361447065645314147e+00
2.413011139255958781e+00
2.413011139255958781e+00
2.413011139255958781e+00
2.358634479812006024e+00
2.358634479812006024e+00
2.273131870479445649e+00
2.273131870479445649e+00
2.203192236091189304e+00
2.203192236091189304e+00
2.171691274758141166e+00
2.171691274758141166e+00
2.096688985869930022e+00
2.096688985869930022e+00
2.026186834315011787e+00
2.026186834315011787e+00
2.320570818201239227e+00
2.320570818201239227e+00
2.308007934812463802e+00
2.308007934812463802e+00
2.308007934812463802e+00
2.250256172368541474e+00
2.250256172368541474e+00
2.229443037202063049e+00
2.229443037202063049e+00
2.211442487868892304e+00
2.211442487868892304e+00
2.187629261146885273e+00
2.187629261146885273e+00
2.181816583758049433e+00
2.181816583758049433e+00
2.263194067201757864e+00
2.263194067201757864e+00
2.195879512924588717e+00
2.195879512924588717e+00
2.214067567979979945e+00
2.214067567979979945e+00
2.214067567979979945e+00
2.217817682424390480e+00
2.217817682424390480e+00
2.245006012146367080e+00
2.245006012146367080e+00
2.164753563035981099e+00
2.164753563035981099e+00
2.224380382702108694e+00
2.224380382702108694e+00
2.469262855922116806e+00
2.469262855922116806e+00
2.416573747978148834e+00
2.416573747978148834e+00
2.390135441145054607e+00
2.390135441145054607e+00
2.405323404644917229e+00
2.405323404644917229e+00
2.403635853144932444e+00
2.403635853144932444e+00
2.411511093478194478e+00
2.411511093478194478e+00
2.411511093478194478e+00
2.442074526200140649e+00
2.442074526200140649e+00
2.449012237922299828e+00
2.449012237922299828e+00
2.318320749534592551e+00
2.318320749534592551e+00
2.286632282479323930e+00
2.286632282479323930e+00
2.210129947813348927e+00
2.210129947813348927e+00
2.109251869258705447e+00
2.109251869258705447e+00
1.976310312204351938e+00
1.976310312204351938e+00
2.131752555925168657e+00
2.131752555925168657e+00
2.131752555925168657e+00
2.319445783867915889e+00
2.319445783867915889e+00
2.266194158757286470e+00
2.266194158757286470e+00
2.249881160924100509e+00
2.249881160924100509e+00
2.309882992034669069e+00
2.309882992034669069e+00
2.357509445478682686e+00
2.357509445478682686e+00
2.405510910367137711e+00
2.405510910367137711e+00
2.461575121311075254e+00
2.461575121311075254e+00
2.396698141422773265e+00
2.396698141422773265e+00
2.396698141422773265e+00
2.278757042146061895e+00
2.278757042146061895e+00
2.205817316202276945e+00
2.205817316202276945e+00
2.175816400646992221e+00
2.175816400646992221e+00
2.111876949369793088e+00
2.111876949369793088e+00
1.972560197759941625e+00
1.972560197759941625e+00
2.213880062257759462e+00
2.213880062257759462e+00
2.219130222479934300e+00
2.219130222479934300e+00
2.219130222479934300e+00
2.157253334147160473e+00
2.157253334147160473e+00
2.202817224646748340e+00
2.202817224646748340e+00
2.278569536423841413e+00
2.278569536423841413e+00
2.328633564256721744e+00
2.328633564256721744e+00
2.393885555589465142e+00
2.393885555589465142e+00
2.496451185644092963e+00
2.496451185644092963e+00
2.476013061922055947e+00
2.476013061922055947e+00
2.441136997589037794e+00
2.441136997589037794e+00
2.369697317423017147e+00
2.369697317423017147e+00
2.369697317423017147e+00
2.317945738090151586e+00
2.317945738090151586e+00
2.215380108035523765e+00
2.215380108035523765e+00
2.146002990813928868e+00
2.146002990813928868e+00
2.404198370311593891e+00
2.404198370311593891e+00
2.358634479812006024e+00
2.358634479812006024e+00
2.294695028534806447e+00
2.294695028534806447e+00
2.302757774590289408e+00
2.302757774590289408e+00
2.295445051423688376e+00
2.295445051423688376e+00
2.275006927701650916e+00
2.275006927701650916e+00
2.280257087923826198e+00
2.280257087923826198e+00
2.338008850367748082e+00
2.338008850367748082e+00
2.338008850367748082e+00
2.202817224646748340e+00
2.202817224646748340e+00
2.155190771202734279e+00
2.155190771202734279e+00
2.106251777703176842e+00
2.106251777703176842e+00
2.132502578814050587e+00
2.132502578814050587e+00
2.093126377147739969e+00
2.093126377147739969e+00
2.189691824091311467e+00
2.189691824091311467e+00
2.412448622089296890e+00
2.412448622089296890e+00
2.412448622089296890e+00
2.321883358256782603e+00
2.321883358256782603e+00
2.285319742423780109e+00
2.285319742423780109e+00
2.313445600756859122e+00
2.313445600756859122e+00
2.291882442701498768e+00
2.291882442701498768e+00
2.259443952757347329e+00
2.259443952757347329e+00
2.313633106479079604e+00
2.313633106479079604e+00
2.383947752311777357e+00
2.383947752311777357e+00
2.317570726645710621e+00
2.317570726645710621e+00
2.317570726645710621e+00
2.316445692312387283e+00
2.316445692312387283e+00
2.297695120090334608e+00
2.297695120090334608e+00
2.274256904812768987e+00
2.274256904812768987e+00
2.154065736869411385e+00
2.154065736869411385e+00
2.295632557145908859e+00
2.295632557145908859e+00
2.386197820978423145e+00
2.386197820978423145e+00
2.309882992034669069e+00
2.309882992034669069e+00
2.305195348979155678e+00
2.305195348979155678e+00
2.305195348979155678e+00
2.345884090701010116e+00
2.345884090701010116e+00
2.332946195867793726e+00
2.332946195867793726e+00
2.345696584978789634e+00
2.345696584978789634e+00
2.404760887478255782e+00
2.404760887478255782e+00
2.362572099978637485e+00
2.362572099978637485e+00
2.269569261757255596e+00
2.269569261757255596e+00
2.196817041535691573e+00
2.196817041535691573e+00
2.144690450758385047e+00
2.144690450758385047e+00
2.081501022370067400e+00
2.081501022370067400e+00
2.081501022370067400e+00
1.997123447370830363e+00
1.997123447370830363e+00
2.274819421979430434e+00
2.274819421979430434e+00
2.310820520645771925e+00
2.310820520645771925e+00
2.289257362590411127e+00
2.289257362590411127e+00
2.333321207312235135e+00
2.333321207312235135e+00
2.358071962645344577e+00
2.358071962645344577e+00
2.339133884701071420e+00
2.339133884701071420e+00
2.356009399700918827e+00
2.356009399700918827e+00
2.419948850978118404e+00
2.419948850978118404e+00
2.419948850978118404e+00
2.305945371868038052e+00
2.305945371868038052e+00
2.231505600146489243e+00
2.231505600146489243e+00
2.167378643147068740e+00
2.167378643147068740e+00
2.168316171758171151e+00
2.168316171758171151e+00
2.101751640369884377e+00
2.101751640369884377e+00
2.126127384258552855e+00
2.126127384258552855e+00
2.427261574144718992e+00
2.427261574144718992e+00
2.414511185033723084e+00
2.414511185033723084e+00
2.414511185033723084e+00
2.377760063478499664e+00
2.377760063478499664e+00
2.404385876033814373e+00
2.404385876033814373e+00
2.408886013367107282e+00
2.408886013367107282e+00
2.360509537034211291e+00
2.360509537034211291e+00
2.359384502700888397e+00
2.359384502700888397e+00
2.391635486922818910e+00
2.391635486922818910e+00
2.240693380535294654e+00
2.240693380535294654e+00
2.240693380535294654e+00
2.184629169591357556e+00
2.184629169591357556e+00
2.142815393536179780e+00
2.142815393536179780e+00
2.146565507980590315e+00
2.146565507980590315e+00
2.056375255592516993e+00
2.056375255592516993e+00
2.172628803369243577e+00
2.172628803369243577e+00
2.388822901089510786e+00
2.388822901089510786e+00
2.350946745200964472e+00
2.350946745200964472e+00
2.336508804589983779e+00
2.336508804589983779e+00
2.336508804589983779e+00
2.365572191534165203e+00
2.365572191534165203e+00
2.349634205145421095e+00
2.349634205145421095e+00
2.323383404034546906e+00
2.323383404034546906e+00
2.368384777367473326e+00
2.368384777367473326e+00
2.386385326700643628e+00
2.386385326700643628e+00
2.289632374034852091e+00
2.289632374034852091e+00
2.226817957090975852e+00
2.226817957090975852e+00
2.169253700369274007e+00
2.169253700369274007e+00
2.169253700369274007e+00
2.133627613147373925e+00
2.133627613147373925e+00
2.048875026703695923e+00
2.048875026703695923e+00
2.286257271034882521e+00
2.286257271034882521e+00
2.374759971922971058e+00
2.374759971922971058e+00
2.296570085757011714e+00
2.296570085757011714e+00
2.280069582201605716e+00
2.280069582201605716e+00
2.305007843256935196e+00
2.305007843256935196e+00
2.292632465590380253e+00
2.292632465590380253e+00
2.292632465590380253e+00
2.291132419812616394e+00
2.291132419812616394e+00
2.329008575701162709e+00
2.329008575701162709e+00
2.264694112979522167e+00
2.264694112979522167e+00
2.205629810480056463e+00
2.205629810480056463e+00
2.203192236091189304e+00
2.203192236091189304e+00
2.241068391979735619e+00
2.241068391979735619e+00
2.199254615924558287e+00
2.199254615924558287e+00
2.199254615924558287e+00
2.139065279091769245e+00
2.139065279091769245e+00
2.438886928922391562e+00
2.438886928922391562e+00
2.440761986144596829e+00
2.440761986144596829e+00
2.387135349589526001e+00
2.387135349589526001e+00
2.400073244422742391e+00
2.400073244422742391e+00
2.410011047700430176e+00
2.410011047700430176e+00
2.359572008423108880e+00
2.359572008423108880e+00
2.354509353923154524e+00
2.354509353923154524e+00
2.354509353923154524e+00
2.415261207922605013e+00
2.415261207922605013e+00
2.313070589312418157e+00
2.313070589312418157e+00
2.242755943479720404e+00
2.242755943479720404e+00
2.145065462202826012e+00
2.145065462202826012e+00
2.119002166814172750e+00
2.119002166814172750e+00
2.016811548203985893e+00
2.016811548203985893e+00
2.032374523148289480e+00
2.032374523148289480e+00
2.285507248146000592e+00
2.285507248146000592e+00
2.285507248146000592e+00
2.257006378368480615e+00
2.257006378368480615e+00
2.240880886257515137e+00
2.240880886257515137e+00
2.285507248146000592e+00
2.285507248146000592e+00
2.303132786034730373e+00
2.303132786034730373e+00
2.320195806756797818e+00
2.320195806756797818e+00
2.377197546311838217e+00
2.377197546311838217e+00
2.436074343089083438e+00
2.436074343089083438e+00
2.333508713034455617e+00
2.333508713034455617e+00
2.333508713034455617e+00
2.294695028534806447e+00
2.294695028534806447e+00
2.252693746757408633e+00
2.252693746757408633e+00
2.267319193090609808e+00
2.267319193090609808e+00
2.182191595202490397e+00
2.182191595202490397e+00
2.289069856868190644e+00
2.289069856868190644e+00
2.413386150700399746e+00
2.413386150700399746e+00
2.323758415478988315e+00
2.323758415478988315e+00
2.293382488479262626e+00
2.293382488479262626e+00
2.303132786034730373e+00
2.303132786034730373e+00
2.303132786034730373e+00
2.280444593646046680e+00
2.280444593646046680e+00
2.272756859035004684e+00
2.272756859035004684e+00
2.340258919034394314e+00
2.340258919034394314e+00
2.376447523422955843e+00
2.376447523422955843e+00
2.314945646534623425e+00
2.314945646534623425e+00
2.258131412701803509e+00
2.258131412701803509e+00
2.202254707480086449e+00
2.202254707480086449e+00
2.148065553758354618e+00
2.148065553758354618e+00
2.046624958037049247e+00
2.046624958037049247e+00
2.046624958037049247e+00
2.269194250312814631e+00
2.269194250312814631e+00
2.310070497756889552e+00
2.255506332590716312e+00
2.255506332590716312e+00
2.288319833979308715e+00
2.288319833979308715e+00
2.288319833979308715e+00
2.331071138645588459e+00
2.331071138645588459e+00
2.327883541367839371e+00
