2.285882259590441556e+00
2.285882259590441556e+00
2.285882259590441556e+00
2.119939695425275605e+00
2.119939695425275605e+00
2.119939695425275605e+00
2.216692648091067142e+00
2.216692648091067142e+00
2.216692648091067142e+00
2.510139103366191726e+00
2.510139103366191726e+00
2.510139103366191726e+00
2.510139103366191726e+00
2.294882534257026929e+00
2.294882534257026929e+00
2.294882534257026929e+00
2.230193060090945423e+00
2.230193060090945423e+00
2.230193060090945423e+00
2.218380199591051927e+00
2.218380199591051927e+00
2.218380199591051927e+00
2.218380199591051927e+00
2.226442945646534444e+00
2.226442945646534444e+00
2.226442945646534444e+00
2.263381572923978347e+00
2.263381572923978347e+00
2.263381572923978347e+00
2.294507522812585520e+00
2.294507522812585520e+00
2.294507522812585520e+00
2.294507522812585520e+00
2.404573381756035300e+00
2.404573381756035300e+00
2.404573381756035300e+00
2.268631733146153184e+00
2.268631733146153184e+00
2.268631733146153184e+00
2.251381206701864812e+00
2.251381206701864812e+00
2.251381206701864812e+00
2.251381206701864812e+00
2.263006561479537382e+00
2.263006561479537382e+00
2.263006561479537382e+00
2.239380840479750834e+00
2.239380840479750834e+00
2.239380840479750834e+00
2.106626789147617806e+00
2.106626789147617806e+00
2.106626789147617806e+00
2.106626789147617806e+00
2.325258461256752618e+00
2.325258461256752618e+00
2.325258461256752618e+00
2.431761711478011456e+00
2.431761711478011456e+00
2.431761711478011456e+00
2.252318735312967224e+00
2.252318735312967224e+00
2.252318735312967224e+00
2.252318735312967224e+00
2.246506057924130939e+00
2.246506057924130939e+00
2.246506057924130939e+00
2.252131229590746742e+00
2.252131229590746742e+00
2.252131229590746742e+00
2.249131138035218136e+00
2.249131138035218136e+00
2.249131138035218136e+00
2.249131138035218136e+00
2.271069307535019899e+00
2.271069307535019899e+00
2.271069307535019899e+00
2.349446699423200169e+00
2.349446699423200169e+00
2.349446699423200169e+00
2.359947019867549844e+00
2.359947019867549844e+00
2.359947019867549844e+00
2.359947019867549844e+00
2.262069032868434526e+00
2.262069032868434526e+00
2.262069032868434526e+00
2.247256080813012868e+00
2.247256080813012868e+00
2.271819330423901828e+00
2.271819330423901828e+00
2.271819330423901828e+00
2.271819330423901828e+00
2.186316721091342341e+00
2.186316721091342341e+00
2.186316721091342341e+00
2.101001617481002448e+00
2.101001617481002448e+00
2.101001617481002448e+00
2.455387432477798004e+00
2.455387432477798004e+00
2.455387432477798004e+00
2.455387432477798004e+00
2.380197637867366822e+00
2.380197637867366822e+00
2.380197637867366822e+00
2.260568987090670667e+00
2.260568987090670667e+00
2.260568987090670667e+00
2.255693838312936794e+00
2.255693838312936794e+00
2.255693838312936794e+00
2.255693838312936794e+00
2.235255714590899334e+00
2.235255714590899334e+00
2.235255714590899334e+00
2.242193426313058957e+00
2.242193426313058957e+00
2.242193426313058957e+00
2.265819147312845505e+00
2.265819147312845505e+00
2.265819147312845505e+00
2.265819147312845505e+00
2.372322397534104788e+00
2.372322397534104788e+00
2.372322397534104788e+00
2.296757591479232197e+00
2.296757591479232197e+00
2.296757591479232197e+00
2.242380932035279439e+00
2.242380932035279439e+00
2.242380932035279439e+00
2.242380932035279439e+00
2.230943082979827352e+00
2.230943082979827352e+00
2.266194158757286470e+00
2.266194158757286470e+00
2.266194158757286470e+00
2.266194158757286470e+00
2.126689901425214746e+00
2.126689901425214746e+00
2.126689901425214746e+00
2.143565416425061709e+00
2.143565416425061709e+00
2.143565416425061709e+00
2.522889492477187634e+00
2.522889492477187634e+00
2.522889492477187634e+00
2.522889492477187634e+00
2.324883449812311209e+00
2.324883449812311209e+00
2.324883449812311209e+00
2.251381206701864812e+00
2.251381206701864812e+00
2.251381206701864812e+00
2.246693563646351421e+00
2.246693563646351421e+00
2.246693563646351421e+00
2.232068117313150690e+00
2.232068117313150690e+00
2.232068117313150690e+00
2.232068117313150690e+00
2.235068208868678852e+00
2.235068208868678852e+00
2.235068208868678852e+00
2.266756675923947917e+00
2.266756675923947917e+00
2.266756675923947917e+00
2.412636127811517817e+00
2.412636127811517817e+00
2.412636127811517817e+00
2.412636127811517817e+00
2.280257087923826198e+00
2.280257087923826198e+00
2.280257087923826198e+00
2.251568712424085295e+00
2.251568712424085295e+00
2.251568712424085295e+00
2.241255897701956545e+00
2.241255897701956545e+00
2.241255897701956545e+00
2.241255897701956545e+00
2.252318735312967224e+00
2.252318735312967224e+00
2.252318735312967224e+00
2.110001892147587377e+00
2.110001892147587377e+00
2.110001892147587377e+00
2.270319284646137969e+00
2.270319284646137969e+00
2.270319284646137969e+00
2.270319284646137969e+00
2.500013794366283459e+00
2.500013794366283459e+00
2.500013794366283459e+00
2.286632282479323930e+00
2.286632282479323930e+00
2.286632282479323930e+00
2.254193792535172935e+00
2.254193792535172935e+00
2.254193792535172935e+00
2.254193792535172935e+00
2.239380840479750834e+00
2.239380840479750834e+00
2.239380840479750834e+00
2.224755394146549659e+00
2.224755394146549659e+00
2.224755394146549659e+00
2.237693288979766049e+00
2.237693288979766049e+00
2.237693288979766049e+00
2.237693288979766049e+00
2.289444868312631609e+00
2.289444868312631609e+00
2.289444868312631609e+00
2.383010223700674501e+00
2.383010223700674501e+00
2.383010223700674501e+00
2.261506515701773079e+00
2.261506515701773079e+00
2.261506515701773079e+00
2.261506515701773079e+00
2.253818781090731527e+00
2.253818781090731527e+00
2.253818781090731527e+00
2.262444044312875935e+00
2.262444044312875935e+00
2.262444044312875935e+00
2.202254707480086449e+00
2.202254707480086449e+00
2.202254707480086449e+00
2.202254707480086449e+00
2.102876674703207716e+00
2.102876674703207716e+00
2.102876674703207716e+00
2.379635120700704931e+00
2.379635120700704931e+00
2.379635120700704931e+00
2.415636219367045978e+00
2.415636219367045978e+00
2.415636219367045978e+00
2.415636219367045978e+00
2.256256355479598685e+00
2.256256355479598685e+00
2.256256355479598685e+00
2.260568987090670667e+00
2.260568987090670667e+00
2.260568987090670667e+00
2.239755851924192243e+00
2.239755851924192243e+00
2.239755851924192243e+00
2.239755851924192243e+00
2.222692831202123909e+00
2.222692831202123909e+00
2.222692831202123909e+00
2.253631275368511044e+00
2.253631275368511044e+00
2.253631275368511044e+00
2.357696951200903612e+00
2.357696951200903612e+00
2.357696951200903612e+00
2.357696951200903612e+00
2.343446516312143402e+00
2.343446516312143402e+00
2.343446516312143402e+00
2.266756675923947917e+00
2.266756675923947917e+00
2.266756675923947917e+00
2.228505508590960638e+00
2.228505508590960638e+00
2.228505508590960638e+00
2.228505508590960638e+00
2.268444227423932702e+00
2.268444227423932702e+00
2.268444227423932702e+00
2.168316171758171151e+00
2.168316171758171151e+00
2.168316171758171151e+00
2.114314523758659803e+00
2.114314523758659803e+00
2.114314523758659803e+00
2.114314523758659803e+00
2.505451460310678335e+00
2.505451460310678335e+00
2.505451460310678335e+00
2.355821893978697901e+00
2.355821893978697901e+00
2.355821893978697901e+00
2.264506607257301685e+00
2.264506607257301685e+00
2.264506607257301685e+00
2.264506607257301685e+00
2.254756309701834383e+00
2.254756309701834383e+00
2.254756309701834383e+00
2.236943266090884119e+00
2.236943266090884119e+00
2.236943266090884119e+00
2.248193609424115724e+00
2.248193609424115724e+00
2.248193609424115724e+00
2.248193609424115724e+00
2.276881984923856628e+00
2.276881984923856628e+00
2.276881984923856628e+00
2.409823541978209693e+00
2.409823541978209693e+00
2.409823541978209693e+00
2.295820062868129341e+00
2.295820062868129341e+00
2.295820062868129341e+00
2.295820062868129341e+00
2.251381206701864812e+00
2.251381206701864812e+00
2.251381206701864812e+00
2.235068208868678852e+00
2.235068208868678852e+00
2.235068208868678852e+00
2.270881801812799416e+00
2.270881801812799416e+00
2.270881801812799416e+00
2.270881801812799416e+00
2.122002258369701355e+00
2.122002258369701355e+00
2.122002258369701355e+00
2.188191778313547164e+00
2.188191778313547164e+00
2.188191778313547164e+00
2.507889034699545494e+00
2.507889034699545494e+00
2.507889034699545494e+00
2.507889034699545494e+00
2.296570085757011714e+00
2.296570085757011714e+00
2.296570085757011714e+00
2.251006195257423848e+00
2.251006195257423848e+00
2.251006195257423848e+00
2.233193151646474028e+00
2.233193151646474028e+00
2.233193151646474028e+00
2.233193151646474028e+00
2.215942625202185212e+00
2.215942625202185212e+00
2.215942625202185212e+00
2.244443494979705633e+00
2.244443494979705633e+00
2.244443494979705633e+00
2.276506973479415219e+00
2.276506973479415219e+00
2.276506973479415219e+00
2.276506973479415219e+00
2.419948850978118404e+00
2.419948850978118404e+00
2.419948850978118404e+00
2.277444502090518075e+00
2.277444502090518075e+00
2.277444502090518075e+00
2.247443586535233351e+00
2.247443586535233351e+00
2.247443586535233351e+00
2.247443586535233351e+00
2.249318643757439062e+00
2.249318643757439062e+00
2.249318643757439062e+00
2.239380840479750834e+00
2.239380840479750834e+00
2.239380840479750834e+00
2.239380840479750834e+00
2.113001983703115982e+00
2.113001983703115982e+00
2.113001983703115982e+00
2.305007843256935196e+00
2.305007843256935196e+00
2.305007843256935196e+00
2.473762993255409270e+00
2.473762993255409270e+00
2.473762993255409270e+00
2.269006744590594149e+00
2.269006744590594149e+00
2.269006744590594149e+00
2.269006744590594149e+00
2.234130680257575996e+00
2.234130680257575996e+00
2.234130680257575996e+00
2.224755394146549659e+00
2.224755394146549659e+00
2.224755394146549659e+00
2.224755394146549659e+00
2.233193151646474028e+00
2.233193151646474028e+00
2.233193151646474028e+00
2.263569078646198829e+00
2.263569078646198829e+00
2.263569078646198829e+00
2.338383861812189490e+00
2.338383861812189490e+00
2.338383861812189490e+00
2.338383861812189490e+00
2.379447614978484449e+00
2.379447614978484449e+00
2.379447614978484449e+00
2.268069215979491737e+00
2.268069215979491737e+00
2.268069215979491737e+00
2.245193517868587563e+00
2.245193517868587563e+00
2.245193517868587563e+00
2.245193517868587563e+00
2.259068941312906365e+00
2.259068941312906365e+00
2.259068941312906365e+00
2.189129306924649576e+00
2.189129306924649576e+00
2.189129306924649576e+00
2.105314249092073986e+00
2.105314249092073986e+00
2.105314249092073986e+00
2.105314249092073986e+00
2.432136722922452865e+00
2.432136722922452865e+00
2.432136722922452865e+00
2.404198370311593891e+00
2.404198370311593891e+00
2.404198370311593891e+00
2.257006378368480615e+00
2.257006378368480615e+00
2.257006378368480615e+00
2.257006378368480615e+00
2.239943357646412725e+00
2.239943357646412725e+00
2.239943357646412725e+00
2.225317911313211550e+00
2.225317911313211550e+00
2.225317911313211550e+00
2.234130680257575996e+00
2.234130680257575996e+00
2.234130680257575996e+00
2.257568895535142062e+00
2.257568895535142062e+00
2.257568895535142062e+00
2.257568895535142062e+00
2.350759239478743989e+00
2.350759239478743989e+00
2.350759239478743989e+00
2.292819971312600735e+00
2.292819971312600735e+00
2.292819971312600735e+00
2.239193334757530351e+00
2.239193334757530351e+00
2.239193334757530351e+00
2.239193334757530351e+00
2.236755760368663637e+00
2.236755760368663637e+00
2.236755760368663637e+00
2.267694204535050773e+00
2.267694204535050773e+00
2.267694204535050773e+00
2.118627155369731785e+00
2.118627155369731785e+00
2.118627155369731785e+00
2.118627155369731785e+00
2.102314157536546269e+00
2.102314157536546269e+00
2.102314157536546269e+00
2.522889492477187634e+00
2.522889492477187634e+00
2.522889492477187634e+00
2.362572099978637485e+00
2.362572099978637485e+00
2.362572099978637485e+00
2.362572099978637485e+00
2.299007660145878429e+00
2.299007660145878429e+00
2.299007660145878429e+00
2.302945280312509890e+00
2.302945280312509890e+00
2.302945280312509890e+00
2.302945280312509890e+00
2.274631916257209951e+00
2.274631916257209951e+00
2.274631916257209951e+00
2.260381481368449741e+00
2.260381481368449741e+00
2.260381481368449741e+00
2.255318826868495830e+00
2.255318826868495830e+00
2.255318826868495830e+00
2.255318826868495830e+00
2.401573290200506694e+00
2.401573290200506694e+00
2.401573290200506694e+00
2.272006836146122755e+00
2.272006836146122755e+00
2.272006836146122755e+00
2.243693472090823260e+00
2.243693472090823260e+00
2.243693472090823260e+00
2.243693472090823260e+00
2.232630634479812137e+00
2.232630634479812137e+00
2.232630634479812137e+00
2.257006378368480615e+00
2.257006378368480615e+00
2.257006378368480615e+00
2.114689535203100768e+00
2.114689535203100768e+00
2.114689535203100768e+00
2.114689535203100768e+00
2.232068117313150690e+00
2.232068117313150690e+00
2.232068117313150690e+00
2.497763725699636783e+00
2.497763725699636783e+00
2.497763725699636783e+00
2.285132236701559627e+00
2.285132236701559627e+00
2.285132236701559627e+00
2.285132236701559627e+00
2.261506515701773079e+00
2.261506515701773079e+00
2.261506515701773079e+00
2.251381206701864812e+00
2.251381206701864812e+00
2.251381206701864812e+00
2.232068117313150690e+00
2.232068117313150690e+00
2.232068117313150690e+00
2.232068117313150690e+00
2.246131046479689974e+00
2.246131046479689974e+00
2.246131046479689974e+00
2.286819788201544412e+00
2.286819788201544412e+00
2.286819788201544412e+00
2.384510269478438804e+00
2.384510269478438804e+00
2.384510269478438804e+00
2.384510269478438804e+00
2.253068758201849597e+00
2.253068758201849597e+00
2.253068758201849597e+00
2.225317911313211550e+00
2.225317911313211550e+00
2.225317911313211550e+00
2.239380840479750834e+00
2.239380840479750834e+00
2.239380840479750834e+00
2.239380840479750834e+00
2.210692464980010374e+00
2.210692464980010374e+00
2.210692464980010374e+00
2.109439374980925930e+00
2.109439374980925930e+00
2.109439374980925930e+00
2.368009765923032361e+00
2.368009765923032361e+00
2.368009765923032361e+00
2.368009765923032361e+00
2.460825098422192880e+00
2.460825098422192880e+00
2.460825098422192880e+00
2.287569811090426342e+00
2.287569811090426342e+00
2.287569811090426342e+00
2.287569811090426342e+00
2.261694021423993561e+00
2.261694021423993561e+00
2.261694021423993561e+00
2.245193517868587563e+00
2.245193517868587563e+00
2.245193517868587563e+00
2.231880611590930208e+00
2.231880611590930208e+00
2.231880611590930208e+00
2.231880611590930208e+00
2.255506332590716312e+00
2.255506332590716312e+00
2.255506332590716312e+00
2.347946653645436310e+00
2.347946653645436310e+00
2.347946653645436310e+00
2.342508987701040546e+00
2.342508987701040546e+00
2.342508987701040546e+00
2.342508987701040546e+00
2.258131412701803509e+00
2.258131412701803509e+00
2.258131412701803509e+00
2.245381023590808045e+00
2.245381023590808045e+00
2.245381023590808045e+00
2.265256630146183614e+00
2.265256630146183614e+00
2.265256630146183614e+00
2.265256630146183614e+00
2.172253791924802613e+00
2.172253791924802613e+00
2.172253791924802613e+00
2.099501571703238145e+00
2.099501571703238145e+00
2.099501571703238145e+00
2.472262947477644968e+00
2.472262947477644968e+00
2.472262947477644968e+00
2.472262947477644968e+00
2.369134800256355700e+00
2.369134800256355700e+00
2.369134800256355700e+00
2.259443952757347329e+00
2.259443952757347329e+00
2.259443952757347329e+00
2.241255897701956545e+00
2.241255897701956545e+00
2.241255897701956545e+00
2.241255897701956545e+00
2.233380657368694511e+00
2.233380657368694511e+00
2.233380657368694511e+00
2.244818506424146598e+00
2.244818506424146598e+00
2.244818506424146598e+00
2.262069032868434526e+00
2.262069032868434526e+00
2.262069032868434526e+00
2.262069032868434526e+00
2.385260292367321178e+00
2.385260292367321178e+00
2.385260292367321178e+00
2.296195074312570750e+00
2.296195074312570750e+00
2.296195074312570750e+00
2.296195074312570750e+00
2.251568712424085295e+00
2.251568712424085295e+00
2.251568712424085295e+00
2.251006195257423848e+00
2.251006195257423848e+00
2.251006195257423848e+00
2.275756950590533290e+00
2.275756950590533290e+00
2.275756950590533290e+00
2.275756950590533290e+00
2.127064912869655711e+00
2.127064912869655711e+00
2.127064912869655711e+00
2.157815851313821920e+00
2.157815851313821920e+00
2.157815851313821920e+00
2.542390087588122238e+00
2.542390087588122238e+00
2.542390087588122238e+00
2.318883266701254442e+00
2.318883266701254442e+00
2.318883266701254442e+00
2.318883266701254442e+00
2.246693563646351421e+00
2.246693563646351421e+00
2.246693563646351421e+00
2.217442670979949515e+00
2.217442670979949515e+00
2.217442670979949515e+00
2.217442670979949515e+00
2.206754844813379357e+00
2.206754844813379357e+00
2.206754844813379357e+00
2.232068117313150690e+00
2.232068117313150690e+00
2.232068117313150690e+00
2.255318826868495830e+00
2.255318826868495830e+00
2.255318826868495830e+00
2.255318826868495830e+00
2.391447981200597983e+00
2.391447981200597983e+00
2.391447981200597983e+00
2.248568620868556689e+00
2.248568620868556689e+00
2.248568620868556689e+00
2.223067842646564873e+00
2.223067842646564873e+00
2.223067842646564873e+00
2.223067842646564873e+00
2.242755943479720404e+00
2.242755943479720404e+00
2.242755943479720404e+00
2.272569353312784202e+00
2.272569353312784202e+00
2.272569353312784202e+00
2.130065004425183872e+00
2.130065004425183872e+00
2.130065004425183872e+00
2.130065004425183872e+00
2.296382580034791232e+00
2.296382580034791232e+00
2.296382580034791232e+00
2.498888760032960121e+00
2.498888760032960121e+00
2.498888760032960121e+00
2.284944730979339145e+00
2.284944730979339145e+00
2.284944730979339145e+00
2.284944730979339145e+00
2.256443861201819168e+00
2.256443861201819168e+00
2.256443861201819168e+00
2.244818506424146598e+00
2.244818506424146598e+00
2.244818506424146598e+00
2.226817957090975852e+00
2.226817957090975852e+00
2.226817957090975852e+00
2.256256355479598685e+00
2.256256355479598685e+00
2.256256355479598685e+00
2.256256355479598685e+00
2.321133335367900674e+00
2.321133335367900674e+00
2.321133335367900674e+00
2.392198004089480357e+00
2.392198004089480357e+00
2.392198004089480357e+00
2.392198004089480357e+00
2.276881984923856628e+00
2.276881984923856628e+00
2.276881984923856628e+00
2.251006195257423848e+00
2.251006195257423848e+00
2.251006195257423848e+00
2.260756492812891150e+00
2.260756492812891150e+00
2.260756492812891150e+00
2.260756492812891150e+00
2.206192327646717910e+00
2.206192327646717910e+00
2.206192327646717910e+00
2.104939237647633021e+00
2.104939237647633021e+00
2.104939237647633021e+00
2.398010681478316641e+00
2.398010681478316641e+00
2.398010681478316641e+00
2.398010681478316641e+00
2.409823541978209693e+00
2.409823541978209693e+00
2.409823541978209693e+00
2.247068575090792386e+00
2.247068575090792386e+00
2.247068575090792386e+00
2.230193060090945423e+00
2.230193060090945423e+00
2.230193060090945423e+00
2.230193060090945423e+00
2.215942625202185212e+00
2.215942625202185212e+00
2.215942625202185212e+00
2.232255623035371173e+00
2.232255623035371173e+00
2.232255623035371173e+00
2.270881801812799416e+00
2.270881801812799416e+00
2.270881801812799416e+00
2.270881801812799416e+00
2.361822077089755112e+00
2.361822077089755112e+00
2.361822077089755112e+00
2.317945738090151586e+00
2.317945738090151586e+00
2.317945738090151586e+00
2.242005920590838475e+00
2.242005920590838475e+00
2.242005920590838475e+00
2.242005920590838475e+00
2.243880977813043742e+00
2.243880977813043742e+00
2.243880977813043742e+00
2.279319559312723342e+00
2.279319559312723342e+00
2.279319559312723342e+00
2.181441572313608468e+00
2.181441572313608468e+00
2.181441572313608468e+00
2.181441572313608468e+00
2.126689901425214746e+00
2.126689901425214746e+00
2.126689901425214746e+00
2.524202032532731454e+00
2.524202032532731454e+00
2.524202032532731454e+00
2.524202032532731454e+00
2.354884365367595489e+00
2.354884365367595489e+00
2.354884365367595489e+00
2.251568712424085295e+00
2.251568712424085295e+00
2.251568712424085295e+00
2.240693380535294654e+00
2.240693380535294654e+00
2.240693380535294654e+00
2.240693380535294654e+00
2.227942991424298746e+00
2.227942991424298746e+00
2.227942991424298746e+00
2.246318552201910457e+00
2.246318552201910457e+00
2.246318552201910457e+00
2.269381756035035114e+00
2.269381756035035114e+00
2.269381756035035114e+00
2.269381756035035114e+00
2.404573381756035300e+00
2.404573381756035300e+00
2.404573381756035300e+00
2.275944456312753772e+00
2.275944456312753772e+00
2.275944456312753772e+00
2.247068575090792386e+00
2.247068575090792386e+00
2.247068575090792386e+00
2.247068575090792386e+00
2.226255439924313961e+00
2.226255439924313961e+00
2.226255439924313961e+00
2.260568987090670667e+00
2.260568987090670667e+00
2.260568987090670667e+00
2.121252235480818982e+00
2.121252235480818982e+00
2.121252235480818982e+00
2.121252235480818982e+00
2.221755302591021497e+00
2.221755302591021497e+00
2.221755302591021497e+00
2.545015167699209435e+00
2.545015167699209435e+00
2.545015167699209435e+00
2.295070039979247412e+00
2.295070039979247412e+00
2.295070039979247412e+00
2.295070039979247412e+00
2.249318643757439062e+00
2.249318643757439062e+00
2.249318643757439062e+00
2.249881160924100509e+00
2.249881160924100509e+00
2.249881160924100509e+00
2.220067751091036712e+00
2.220067751091036712e+00
2.220067751091036712e+00
2.220067751091036712e+00
2.241255897701956545e+00
2.241255897701956545e+00
2.241255897701956545e+00
2.262069032868434526e+00
2.262069032868434526e+00
2.262069032868434526e+00
2.379072603534043484e+00
2.379072603534043484e+00
2.379072603534043484e+00
2.379072603534043484e+00
2.243130954924161813e+00
2.243130954924161813e+00
2.243130954924161813e+00
2.242568437757499922e+00
2.242568437757499922e+00
2.242568437757499922e+00
2.269569261757255596e+00
2.269569261757255596e+00
2.269569261757255596e+00
2.269569261757255596e+00
2.251568712424085295e+00
2.251568712424085295e+00
2.251568712424085295e+00
2.104939237647633021e+00
2.104939237647633021e+00
2.104939237647633021e+00
2.315883175145725836e+00
2.315883175145725836e+00
2.315883175145725836e+00
2.315883175145725836e+00
2.471512924588763038e+00
2.471512924588763038e+00
2.471512924588763038e+00
2.291882442701498768e+00
2.291882442701498768e+00
2.291882442701498768e+00
2.273694387646107540e+00
2.273694387646107540e+00
2.273694387646107540e+00
2.273694387646107540e+00
2.231130588702047834e+00
2.231130588702047834e+00
2.231130588702047834e+00
2.215005096591082356e+00
2.215005096591082356e+00
2.215005096591082356e+00
2.248568620868556689e+00
2.248568620868556689e+00
2.248568620868556689e+00
2.248568620868556689e+00
2.328446058534500818e+00
2.328446058534500818e+00
2.328446058534500818e+00
2.363884640034180418e+00
2.363884640034180418e+00
2.363884640034180418e+00
2.363884640034180418e+00
2.264319101535081202e+00
2.264319101535081202e+00
2.264319101535081202e+00
2.245193517868587563e+00
2.245193517868587563e+00
2.245193517868587563e+00
2.273694387646107540e+00
2.273694387646107540e+00
2.273694387646107540e+00
2.273694387646107540e+00
2.187629261146885273e+00
2.187629261146885273e+00
2.187629261146885273e+00
2.097251503036591469e+00
2.097251503036591469e+00
2.097251503036591469e+00
2.423886471144749422e+00
2.423886471144749422e+00
2.423886471144749422e+00
2.423886471144749422e+00
2.368009765923032361e+00
2.368009765923032361e+00
2.368009765923032361e+00
2.283632190923795324e+00
2.283632190923795324e+00
2.283632190923795324e+00
2.279507065034943825e+00
2.279507065034943825e+00
2.279507065034943825e+00
2.236755760368663637e+00
2.236755760368663637e+00
2.236755760368663637e+00
2.236755760368663637e+00
2.244068483535264225e+00
2.244068483535264225e+00
2.244068483535264225e+00
2.256818872646260132e+00
2.256818872646260132e+00
2.256818872646260132e+00
2.256818872646260132e+00
2.378135074922940628e+00
2.378135074922940628e+00
2.378135074922940628e+00
2.298070131534776017e+00
2.298070131534776017e+00
2.298070131534776017e+00
2.242380932035279439e+00
2.242380932035279439e+00
2.242380932035279439e+00
2.242380932035279439e+00
2.240505874813074172e+00
2.240505874813074172e+00
2.240505874813074172e+00
2.278007019257179522e+00
2.278007019257179522e+00
2.278007019257179522e+00
2.137940244758446351e+00
2.137940244758446351e+00
2.137940244758446351e+00
2.138127750480666833e+00
2.138127750480666833e+00
2.138127750480666833e+00
2.138127750480666833e+00
2.530577227088229186e+00
2.530577227088229186e+00
2.530577227088229186e+00
2.327133518478957885e+00
2.327133518478957885e+00
2.327133518478957885e+00
2.252506241035188150e+00
2.252506241035188150e+00
2.252506241035188150e+00
2.252506241035188150e+00
2.238818323313089387e+00
2.238818323313089387e+00
2.238818323313089387e+00
2.227755485702078264e+00
2.227755485702078264e+00
2.227755485702078264e+00
2.238443311868648422e+00
2.238443311868648422e+00
2.238443311868648422e+00
2.238443311868648422e+00
2.255881344035157721e+00
2.255881344035157721e+00
2.255881344035157721e+00
2.400448255867183356e+00
2.400448255867183356e+00
2.400448255867183356e+00
2.269006744590594149e+00
2.269006744590594149e+00
2.269006744590594149e+00
2.269006744590594149e+00
2.245943540757469048e+00
2.245943540757469048e+00
2.245943540757469048e+00
2.251381206701864812e+00
2.251381206701864812e+00
2.251381206701864812e+00
2.281757133701590057e+00
2.281757133701590057e+00
2.281757133701590057e+00
2.128564958647419569e+00
2.128564958647419569e+00
2.128564958647419569e+00
2.128564958647419569e+00
2.252318735312967224e+00
2.252318735312967224e+00
2.252318735312967224e+00
2.507889034699545494e+00
2.507889034699545494e+00
2.507889034699545494e+00
2.507889034699545494e+00
2.283069673757133433e+00
2.283069673757133433e+00
2.283069673757133433e+00
2.253256263924070080e+00
2.253256263924070080e+00
2.253256263924070080e+00
2.224567888424329176e+00
2.224567888424329176e+00
2.224567888424329176e+00
2.224567888424329176e+00
2.214817590868861874e+00
2.214817590868861874e+00
2.214817590868861874e+00
2.249318643757439062e+00
2.249318643757439062e+00
2.249318643757439062e+00
2.296945097201452679e+00
2.296945097201452679e+00
2.296945097201452679e+00
2.296945097201452679e+00
2.391635486922818910e+00
2.391635486922818910e+00
2.391635486922818910e+00
2.266194158757286470e+00
2.266194158757286470e+00
2.266194158757286470e+00
2.254568803979613900e+00
2.254568803979613900e+00
2.254568803979613900e+00
2.254568803979613900e+00
2.274069399090548504e+00
2.274069399090548504e+00
2.274069399090548504e+00
2.217442670979949515e+00
2.217442670979949515e+00
2.217442670979949515e+00
2.108126834925382109e+00
2.108126834925382109e+00
2.108126834925382109e+00
2.108126834925382109e+00
2.368197271645252844e+00
2.368197271645252844e+00
2.368197271645252844e+00
2.439449446089053009e+00
2.439449446089053009e+00
2.439449446089053009e+00
2.261319009979552597e+00
2.261319009979552597e+00
2.261319009979552597e+00
2.261319009979552597e+00
2.248943632312997654e+00
2.248943632312997654e+00
2.248943632312997654e+00
2.230755577257606870e+00
2.230755577257606870e+00
2.230755577257606870e+00
2.222505325479903426e+00
2.222505325479903426e+00
2.222505325479903426e+00
2.260568987090670667e+00
2.260568987090670667e+00
2.260568987090670667e+00
2.260568987090670667e+00
2.344946562089907705e+00
2.344946562089907705e+00
2.344946562089907705e+00
2.332758690145573244e+00
2.332758690145573244e+00
2.332758690145573244e+00
2.332758690145573244e+00
2.253818781090731527e+00
2.253818781090731527e+00
2.253818781090731527e+00
2.252881252479629115e+00
2.252881252479629115e+00
2.252881252479629115e+00
2.284569719534897736e+00
2.284569719534897736e+00
2.284569719534897736e+00
2.179754020813623683e+00
2.179754020813623683e+00
2.179754020813623683e+00
2.179754020813623683e+00
2.102501663258766751e+00
2.102501663258766751e+00
2.102501663258766751e+00
2.478638142033143144e+00
2.478638142033143144e+00
2.478638142033143144e+00
2.478638142033143144e+00
2.367259743034150432e+00
2.367259743034150432e+00
2.367259743034150432e+00
2.257943906979583026e+00
2.257943906979583026e+00
2.257943906979583026e+00
2.253256263924070080e+00
2.253256263924070080e+00
2.253256263924070080e+00
2.253256263924070080e+00
2.230943082979827352e+00
2.230943082979827352e+00
2.230943082979827352e+00
2.237505783257545566e+00
2.237505783257545566e+00
2.237505783257545566e+00
2.257193884090700653e+00
2.257193884090700653e+00
2.257193884090700653e+00
2.384697775200659287e+00
2.384697775200659287e+00
2.384697775200659287e+00
2.285132236701559627e+00
2.285132236701559627e+00
2.285132236701559627e+00
2.251756218146305777e+00
2.251756218146305777e+00
2.251756218146305777e+00
2.251756218146305777e+00
2.237505783257545566e+00
2.237505783257545566e+00
2.237505783257545566e+00
2.267881710257271255e+00
2.267881710257271255e+00
2.267881710257271255e+00
2.121627246925260390e+00
2.121627246925260390e+00
2.121627246925260390e+00
2.121627246925260390e+00
2.171128757591479275e+00
2.171128757591479275e+00
2.171128757591479275e+00
2.532639790032654936e+00
2.532639790032654936e+00
2.532639790032654936e+00
2.303507797479171337e+00
2.303507797479171337e+00
2.303507797479171337e+00
2.303507797479171337e+00
2.246318552201910457e+00
2.246318552201910457e+00
2.246318552201910457e+00
2.240130863368633207e+00
2.240130863368633207e+00
2.240130863368633207e+00
2.240130863368633207e+00
2.226630451368755370e+00
2.226630451368755370e+00
2.226630451368755370e+00
2.240693380535294654e+00
2.240693380535294654e+00
2.240693380535294654e+00
2.257943906979583026e+00
2.257943906979583026e+00
2.257943906979583026e+00
2.257943906979583026e+00
2.398760704367198571e+00
2.398760704367198571e+00
2.398760704367198571e+00
2.257006378368480615e+00
2.257006378368480615e+00
2.257006378368480615e+00
2.240505874813074172e+00
2.240505874813074172e+00
2.240505874813074172e+00
2.252318735312967224e+00
2.252318735312967224e+00
2.252318735312967224e+00
2.252318735312967224e+00
2.252318735312967224e+00
2.252318735312967224e+00
2.252318735312967224e+00
2.112439466536454535e+00
2.378322580645161111e+00
2.273694387646107540e+00
2.205817316202276945e+00
2.108689352092044000e+00
2.108689352092044000e+00
2.108689352092044000e+00
2.405698416089358194e+00
2.405698416089358194e+00
2.405698416089358194e+00
2.398573198644978088e+00
2.398573198644978088e+00
2.398573198644978088e+00
2.398573198644978088e+00
2.253443769646290562e+00
2.253443769646290562e+00
2.253443769646290562e+00
2.253256263924070080e+00
2.253256263924070080e+00
2.253256263924070080e+00
2.208629902035584625e+00
2.208629902035584625e+00
2.206192327646717910e+00
2.206192327646717910e+00
2.206192327646717910e+00
2.254943815424054865e+00
2.254943815424054865e+00
2.254943815424054865e+00
2.254943815424054865e+00
2.372322397534104788e+00
2.372322397534104788e+00
2.372322397534104788e+00
2.332571184423352761e+00
2.332571184423352761e+00
2.332571184423352761e+00
2.332571184423352761e+00
2.265631641590625023e+00
2.265631641590625023e+00
2.265631641590625023e+00
2.256818872646260132e+00
2.256818872646260132e+00
2.256818872646260132e+00
2.287382305368205859e+00
2.287382305368205859e+00
2.287382305368205859e+00
2.287382305368205859e+00
2.151253151036103706e+00
2.151253151036103706e+00
2.151253151036103706e+00
2.107001800592058771e+00
2.107001800592058771e+00
2.107001800592058771e+00
2.509389080477309353e+00
2.509389080477309353e+00
2.509389080477309353e+00
2.509389080477309353e+00
2.342508987701040546e+00
2.342508987701040546e+00
2.342508987701040546e+00
2.255131321146275347e+00
2.255131321146275347e+00
2.255131321146275347e+00
2.255131321146275347e+00
2.246131046479689974e+00
2.246131046479689974e+00
2.246131046479689974e+00
2.232630634479812137e+00
2.232630634479812137e+00
2.232630634479812137e+00
2.240693380535294654e+00
2.240693380535294654e+00
2.240693380535294654e+00
2.240693380535294654e+00
2.266006653035065987e+00
2.266006653035065987e+00
2.266006653035065987e+00
2.417136265144810281e+00
2.417136265144810281e+00
2.417136265144810281e+00
2.282507156590471986e+00
2.282507156590471986e+00
2.282507156590471986e+00
2.282507156590471986e+00
2.248381115146336207e+00
2.248381115146336207e+00
2.248381115146336207e+00
2.235068208868678852e+00
2.235068208868678852e+00
2.235068208868678852e+00
2.268631733146153184e+00
2.268631733146153184e+00
2.268631733146153184e+00
2.268631733146153184e+00
2.104376720480972018e+00
2.104376720480972018e+00
2.104376720480972018e+00
2.199442121646778769e+00
2.199442121646778769e+00
2.199442121646778769e+00
2.199442121646778769e+00
2.506576494644001674e+00
2.506576494644001674e+00
2.506576494644001674e+00
2.290757408368175430e+00
2.290757408368175430e+00
2.290757408368175430e+00
2.241068391979735619e+00
2.241068391979735619e+00
2.241068391979735619e+00
2.241068391979735619e+00
2.227567979979857782e+00
2.227567979979857782e+00
2.227567979979857782e+00
2.220255256813257638e+00
2.220255256813257638e+00
2.220255256813257638e+00
2.257756401257362544e+00
2.257756401257362544e+00
2.257756401257362544e+00
2.257756401257362544e+00
2.291882442701498768e+00
2.291882442701498768e+00
2.291882442701498768e+00
2.395010589922788480e+00
2.395010589922788480e+00
2.395010589922788480e+00
2.271069307535019899e+00
2.271069307535019899e+00
2.271069307535019899e+00
2.271069307535019899e+00
2.255131321146275347e+00
2.255131321146275347e+00
2.255131321146275347e+00
2.258506424146244473e+00
2.258506424146244473e+00
2.258506424146244473e+00
2.234130680257575996e+00
2.234130680257575996e+00
2.234130680257575996e+00
2.234130680257575996e+00
2.107564317758720662e+00
2.107564317758720662e+00
2.107564317758720662e+00
2.330508621478927012e+00
2.330508621478927012e+00
2.330508621478927012e+00
2.448824732200079346e+00
2.448824732200079346e+00
2.448824732200079346e+00
2.448824732200079346e+00
2.261694021423993561e+00
2.261694021423993561e+00
2.261694021423993561e+00
2.251193700979644330e+00
2.251193700979644330e+00
2.251193700979644330e+00
2.228880520035401602e+00
2.228880520035401602e+00
2.228880520035401602e+00
2.228880520035401602e+00
2.230755577257606870e+00
2.230755577257606870e+00
2.230755577257606870e+00
2.264131595812860720e+00
2.264131595812860720e+00
2.264131595812860720e+00
2.337821344645527599e+00
2.337821344645527599e+00
2.337821344645527599e+00
2.337821344645527599e+00
2.344196539201025331e+00
2.344196539201025331e+00
2.344196539201025331e+00
2.252318735312967224e+00
2.252318735312967224e+00
2.252318735312967224e+00
2.243693472090823260e+00
2.243693472090823260e+00
2.243693472090823260e+00
2.243693472090823260e+00
2.268069215979491737e+00
2.268069215979491737e+00
2.268069215979491737e+00
2.180691549424726094e+00
2.180691549424726094e+00
2.180691549424726094e+00
2.180691549424726094e+00
2.108126834925382109e+00
2.108126834925382109e+00
2.108126834925382109e+00
2.463262672811060039e+00
2.463262672811060039e+00
2.463262672811060039e+00
2.387697866756187448e+00
2.387697866756187448e+00
2.387697866756187448e+00
2.387697866756187448e+00
2.265256630146183614e+00
2.265256630146183614e+00
2.265256630146183614e+00
2.253443769646290562e+00
2.253443769646290562e+00
2.253443769646290562e+00
2.227005462813196335e+00
2.227005462813196335e+00
2.227005462813196335e+00
2.227005462813196335e+00
2.230943082979827352e+00
2.230943082979827352e+00
2.230943082979827352e+00
2.250818689535202921e+00
2.250818689535202921e+00
2.250818689535202921e+00
2.365197180089724238e+00
2.365197180089724238e+00
2.365197180089724238e+00
2.365197180089724238e+00
2.290944914090395912e+00
2.290944914090395912e+00
2.290944914090395912e+00
2.234693197424237443e+00
2.234693197424237443e+00
2.234693197424237443e+00
2.216692648091067142e+00
2.216692648091067142e+00
2.216692648091067142e+00
2.216692648091067142e+00
2.256068849757378203e+00
2.256068849757378203e+00
2.256068849757378203e+00
2.135502670369579192e+00
2.135502670369579192e+00
2.135502670369579192e+00
2.150503128147221332e+00
2.150503128147221332e+00
2.150503128147221332e+00
2.150503128147221332e+00
2.531139744254890633e+00
2.531139744254890633e+00
2.531139744254890633e+00
2.335946287423322332e+00
2.335946287423322332e+00
2.335946287423322332e+00
2.270131778923917043e+00
2.270131778923917043e+00
2.270131778923917043e+00
2.270131778923917043e+00
2.266944181646168399e+00
2.266944181646168399e+00
2.266944181646168399e+00
2.244631000701926116e+00
2.244631000701926116e+00
2.244631000701926116e+00
2.271069307535019899e+00
2.271069307535019899e+00
2.271069307535019899e+00
2.271069307535019899e+00
2.288132328257088233e+00
2.288132328257088233e+00
2.288132328257088233e+00
2.422198919644764192e+00
2.422198919644764192e+00
2.422198919644764192e+00
2.289632374034852091e+00
2.289632374034852091e+00
2.289632374034852091e+00
2.289632374034852091e+00
2.265631641590625023e+00
2.265631641590625023e+00
2.265631641590625023e+00
2.262631550035096417e+00
2.262631550035096417e+00
2.262631550035096417e+00
2.262631550035096417e+00
2.261694021423993561e+00
2.261694021423993561e+00
2.096688985869930022e+00
2.096688985869930022e+00
2.096688985869930022e+00
2.251943723868526259e+00
2.251943723868526259e+00
2.251943723868526259e+00
2.499076265755180604e+00
2.499076265755180604e+00
2.499076265755180604e+00
2.499076265755180604e+00
2.277632007812738557e+00
2.277632007812738557e+00
2.277632007812738557e+00
2.241255897701956545e+00
2.241255897701956545e+00
2.241255897701956545e+00
2.218755211035493335e+00
2.218755211035493335e+00
2.218755211035493335e+00
2.215192602313302839e+00
2.215192602313302839e+00
2.215192602313302839e+00
2.251943723868526259e+00
2.251943723868526259e+00
2.251943723868526259e+00
2.311945554979094819e+00
2.311945554979094819e+00
2.311945554979094819e+00
2.311945554979094819e+00
2.374947477645191540e+00
2.374947477645191540e+00
2.374947477645191540e+00
2.242005920590838475e+00
2.242005920590838475e+00
2.242005920590838475e+00
2.225880428479872997e+00
2.225880428479872997e+00
2.225880428479872997e+00
2.225880428479872997e+00
2.243130954924161813e+00
2.243130954924161813e+00
2.243130954924161813e+00
2.214255073702200427e+00
2.214255073702200427e+00
2.214255073702200427e+00
2.126877407147435228e+00
2.126877407147435228e+00
2.126877407147435228e+00
2.126877407147435228e+00
2.393135532700583212e+00
2.393135532700583212e+00
2.393135532700583212e+00
2.446387157811212187e+00
2.446387157811212187e+00
2.446387157811212187e+00
2.278382030701620931e+00
2.278382030701620931e+00
2.278382030701620931e+00
2.278382030701620931e+00
2.259256447035126847e+00
2.259256447035126847e+00
2.259256447035126847e+00
2.230005554368724940e+00
2.230005554368724940e+00
2.230005554368724940e+00
2.230005554368724940e+00
2.230755577257606870e+00
2.230755577257606870e+00
2.230755577257606870e+00
2.255318826868495830e+00
2.255318826868495830e+00
2.255318826868495830e+00
2.344384044923245813e+00
2.344384044923245813e+00
2.344384044923245813e+00
2.344384044923245813e+00
2.330508621478927012e+00
2.330508621478927012e+00
2.330508621478927012e+00
2.251943723868526259e+00
2.251943723868526259e+00
2.251943723868526259e+00
2.236943266090884119e+00
2.236943266090884119e+00
2.236943266090884119e+00
2.236943266090884119e+00
2.266194158757286470e+00
2.266194158757286470e+00
2.266194158757286470e+00
2.151815668202764709e+00
2.151815668202764709e+00
2.151815668202764709e+00
2.078500930814539238e+00
2.078500930814539238e+00
2.078500930814539238e+00
2.078500930814539238e+00
2.478825647755364070e+00
2.478825647755364070e+00
2.478825647755364070e+00
2.348884182256538722e+00
2.348884182256538722e+00
2.348884182256538722e+00
2.246506057924130939e+00
2.246506057924130939e+00
2.246506057924130939e+00
2.246506057924130939e+00
2.254756309701834383e+00
2.254756309701834383e+00
2.254756309701834383e+00
2.218005188146610962e+00
2.218005188146610962e+00
2.218005188146610962e+00
2.227192968535416817e+00
2.227192968535416817e+00
2.227192968535416817e+00
2.227192968535416817e+00
2.253256263924070080e+00
2.253256263924070080e+00
2.253256263924070080e+00
2.406635944700461049e+00
2.406635944700461049e+00
2.406635944700461049e+00
2.304257820368053267e+00
2.304257820368053267e+00
2.304257820368053267e+00
2.304257820368053267e+00
2.262631550035096417e+00
2.262631550035096417e+00
2.262631550035096417e+00
2.258506424146244473e+00
2.258506424146244473e+00
2.258506424146244473e+00
2.258506424146244473e+00
2.291319925534837321e+00
2.291319925534837321e+00
2.291319925534837321e+00
2.151253151036103706e+00
2.151253151036103706e+00
2.219317728202154782e+00
2.219317728202154782e+00
2.219317728202154782e+00
2.219317728202154782e+00
2.561890682699057287e+00
2.561890682699057287e+00
2.561890682699057287e+00
2.317945738090151586e+00
2.317945738090151586e+00
2.317945738090151586e+00
2.250818689535202921e+00
2.250818689535202921e+00
2.250818689535202921e+00
2.250818689535202921e+00
2.237505783257545566e+00
2.237505783257545566e+00
2.237505783257545566e+00
2.217442670979949515e+00
2.217442670979949515e+00
2.217442670979949515e+00
2.240693380535294654e+00
2.240693380535294654e+00
2.240693380535294654e+00
2.263381572923978347e+00
2.263381572923978347e+00
2.398760704367198571e+00
2.398760704367198571e+00
2.269006744590594149e+00
2.269006744590594149e+00
2.249131138035218136e+00
2.249131138035218136e+00
2.263194067201757864e+00
2.263194067201757864e+00
2.262256538590655452e+00
2.262256538590655452e+00
2.262256538590655452e+00
2.121064729758598499e+00
2.121064729758598499e+00
2.300320200201422249e+00
2.300320200201422249e+00
2.454449903866695148e+00
2.454449903866695148e+00
2.238068300424207457e+00
2.238068300424207457e+00
2.237318277535325084e+00
2.237318277535325084e+00
2.223067842646564873e+00
2.223067842646564873e+00
2.226067934202093479e+00
2.226067934202093479e+00
2.249693655201880027e+00
2.249693655201880027e+00
2.249693655201880027e+00
2.320008301034577336e+00
2.320008301034577336e+00
2.358821985534226506e+00
2.358821985534226506e+00
2.252131229590746742e+00
2.252131229590746742e+00
2.237693288979766049e+00
2.237693288979766049e+00
2.260381481368449741e+00
2.260381481368449741e+00
2.196254524369030126e+00
2.196254524369030126e+00
2.123127292703024249e+00
2.123127292703024249e+00
2.445824640644550740e+00
2.445824640644550740e+00
2.445824640644550740e+00
2.412636127811517817e+00
2.412636127811517817e+00
2.262256538590655452e+00
2.262256538590655452e+00
2.260568987090670667e+00
2.260568987090670667e+00
2.242193426313058957e+00
2.242193426313058957e+00
2.248568620868556689e+00
2.248568620868556689e+00
2.262256538590655452e+00
2.262256538590655452e+00
2.364072145756401344e+00
2.364072145756401344e+00
2.323570909756767389e+00
2.323570909756767389e+00
2.323570909756767389e+00
2.246318552201910457e+00
2.246318552201910457e+00
2.215192602313302839e+00
2.215192602313302839e+00
2.231505600146489243e+00
2.231505600146489243e+00
2.105126743369853504e+00
2.099689077425458628e+00
2.099689077425458628e+00
2.522514481032746669e+00
2.522514481032746669e+00
2.339508896145511940e+00
2.339508896145511940e+00
2.242568437757499922e+00
2.242568437757499922e+00
2.220067751091036712e+00
2.220067751091036712e+00
2.193816949980162967e+00
2.206567339091158875e+00
2.206567339091158875e+00
2.233755668813135031e+00
2.233755668813135031e+00
2.406635944700461049e+00
2.406635944700461049e+00
2.285694753868221074e+00
2.285694753868221074e+00
2.285694753868221074e+00
2.262256538590655452e+00
2.262256538590655452e+00
2.271631824701681346e+00
2.271631824701681346e+00
2.288882351145970162e+00
2.288882351145970162e+00
2.137002716147343495e+00
2.137002716147343495e+00
2.250256172368541474e+00
2.250256172368541474e+00
2.543327616199224650e+00
2.543327616199224650e+00
2.338571367534409973e+00
2.338571367534409973e+00
2.309695486312448587e+00
2.309695486312448587e+00
2.309695486312448587e+00
2.277632007812738557e+00
2.277632007812738557e+00
2.248381115146336207e+00
2.248381115146336207e+00
2.257381389812921579e+00
2.257381389812921579e+00
2.265069124423963132e+00
2.265069124423963132e+00
2.371947386089663379e+00
2.371947386089663379e+00
2.244443494979705633e+00
2.244443494979705633e+00
2.224380382702108694e+00
2.224380382702108694e+00
2.238818323313089387e+00
2.238818323313089387e+00
2.238818323313089387e+00
2.201692190313425002e+00
2.201692190313425002e+00
2.071375713370158689e+00
2.071375713370158689e+00
2.302570268868068482e+00
2.302570268868068482e+00
2.414136173589282119e+00
2.414136173589282119e+00
2.244818506424146598e+00
2.244818506424146598e+00
2.250068666646320992e+00
2.250068666646320992e+00
2.233193151646474028e+00
2.233193151646474028e+00
2.225130405590991067e+00
2.225130405590991067e+00
2.260193975646229259e+00
2.260193975646229259e+00
2.260193975646229259e+00
2.349071687978759204e+00
2.349071687978759204e+00
2.329196081423383191e+00
2.329196081423383191e+00
2.198317087313455875e+00
2.198317087313455875e+00
2.152190679647205673e+00
2.152190679647205673e+00
2.187066743980223826e+00
2.187066743980223826e+00
2.126877407147435228e+00
2.126877407147435228e+00
2.090313791314432290e+00
2.090313791314432290e+00
2.503201391644032547e+00
2.503201391644032547e+00
2.408886013367107282e+00
2.408886013367107282e+00
2.299195165868098911e+00
2.299195165868098911e+00
2.314008117923521013e+00
2.314008117923521013e+00
2.314008117923521013e+00
2.312508072145756710e+00
2.312508072145756710e+00
2.317945738090151586e+00
2.317945738090151586e+00
2.339883907589953349e+00
2.339883907589953349e+00
2.444512100589007364e+00
2.444512100589007364e+00
2.345696584978789634e+00
2.345696584978789634e+00
2.291507431257057803e+00
2.291507431257057803e+00
2.272756859035004684e+00
2.272756859035004684e+00
2.293757499923703591e+00
2.293757499923703591e+00
2.293757499923703591e+00
2.135127658925138228e+00
2.135127658925138228e+00
2.152003173924985191e+00
2.152003173924985191e+00
2.544827661976988953e+00
2.544827661976988953e+00
2.361822077089755112e+00
2.361822077089755112e+00
2.283444685201574842e+00
2.283444685201574842e+00
2.248943632312997654e+00
2.248943632312997654e+00
2.218567705313272853e+00
2.218567705313272853e+00
2.224380382702108694e+00
2.224380382702108694e+00
2.236380748924222672e+00
2.236380748924222672e+00
2.236380748924222672e+00
2.383760246589556875e+00
2.383760246589556875e+00
2.247818597979674760e+00
2.247818597979674760e+00
2.241818414868617992e+00
2.241818414868617992e+00
2.257006378368480615e+00
2.257006378368480615e+00
2.269944273201696561e+00
2.269944273201696561e+00
2.116752098147526517e+00
2.116752098147526517e+00
2.272194341868343237e+00
2.272194341868343237e+00
2.497576219977416301e+00
2.497576219977416301e+00
2.497576219977416301e+00
2.298070131534776017e+00
2.298070131534776017e+00
2.276131962034974254e+00
2.276131962034974254e+00
2.254568803979613900e+00
2.254568803979613900e+00
2.224755394146549659e+00
2.224755394146549659e+00
2.234130680257575996e+00
2.234130680257575996e+00
2.285694753868221074e+00
2.285694753868221074e+00
2.312883083590197675e+00
2.312883083590197675e+00
2.183129123813593253e+00
2.183129123813593253e+00
2.183129123813593253e+00
2.190254341257972914e+00
2.190254341257972914e+00
2.233380657368694511e+00
2.233380657368694511e+00
2.179754020813623683e+00
2.179754020813623683e+00
2.073625782036805365e+00
2.073625782036805365e+00
2.360884548478652700e+00
2.360884548478652700e+00
2.418823816644795066e+00
2.418823816644795066e+00
2.278569536423841413e+00
2.278569536423841413e+00
2.285319742423780109e+00
2.285319742423780109e+00
2.279882076479384789e+00
2.265256630146183614e+00
2.265256630146183614e+00
2.304820337534714714e+00
2.304820337534714714e+00
2.408698507644886799e+00
2.408698507644886799e+00
2.408698507644886799e+00
2.369509811700796664e+00
2.369509811700796664e+00
2.289444868312631609e+00
2.289444868312631609e+00
2.255506332590716312e+00
2.255506332590716312e+00
2.260943998535111632e+00
2.260943998535111632e+00
2.140190313425092139e+00
2.140190313425092139e+00
2.087876216925565576e+00
2.087876216925565576e+00
2.478825647755364070e+00
2.478825647755364070e+00
2.321320841090121156e+00
2.321320841090121156e+00
2.321320841090121156e+00
2.211067476424451339e+00
2.211067476424451339e+00
2.183879146702475182e+00
2.183879146702475182e+00
2.147690542313913653e+00
2.147690542313913653e+00
2.181254066591387542e+00
2.181254066591387542e+00
2.211067476424451339e+00
2.211067476424451339e+00
2.345696584978789634e+00
2.345696584978789634e+00
2.246881069368571904e+00
2.246881069368571904e+00
2.245756035035248566e+00
2.245756035035248566e+00
2.245756035035248566e+00
2.236193243202001746e+00
2.236193243202001746e+00
2.301070223090304623e+00
2.301070223090304623e+00
2.184066652424695665e+00
2.184066652424695665e+00
2.267131687368389326e+00
2.267131687368389326e+00
2.587391460921048658e+00
2.587391460921048658e+00
2.334821253089998994e+00
2.334821253089998994e+00
2.253818781090731527e+00
2.253818781090731527e+00
2.195692007202368234e+00
2.195692007202368234e+00
2.195692007202368234e+00
2.153128208258308529e+00
2.153128208258308529e+00
2.173753837702566916e+00
2.173753837702566916e+00
2.229255531479842567e+00
2.229255531479842567e+00
2.385635303811762142e+00
2.385635303811762142e+00
2.280444593646046680e+00
2.280444593646046680e+00
2.282319650868251504e+00
2.282319650868251504e+00
2.299570177312540320e+00
2.299570177312540320e+00
2.305007843256935196e+00
2.305007843256935196e+00
2.161003448591571008e+00
2.161003448591571008e+00
2.369697317423017147e+00
2.369697317423017147e+00
2.369697317423017147e+00
2.533952330088198757e+00
2.533952330088198757e+00
2.345134067812128187e+00
2.345134067812128187e+00
2.327133518478957885e+00
2.327133518478957885e+00
2.264694112979522167e+00
2.264694112979522167e+00
2.187816766869105756e+00
2.187816766869105756e+00
2.143752922147282192e+00
2.143752922147282192e+00
2.194191961424603932e+00
2.194191961424603932e+00
2.233193151646474028e+00
2.233193151646474028e+00
2.233193151646474028e+00
2.152565691091647082e+00
2.152565691091647082e+00
2.162128482924894346e+00
2.162128482924894346e+00
2.206942350535599839e+00
2.206942350535599839e+00
2.170378734702597345e+00
2.170378734702597345e+00
2.128752464369640052e+00
2.128752464369640052e+00
2.513514206366161297e+00
2.513514206366161297e+00
2.562453199865718290e+00
2.562453199865718290e+00
2.409823541978209693e+00
2.409823541978209693e+00
2.409823541978209693e+00
2.353196813867610704e+00
2.353196813867610704e+00
2.297320108645893644e+00
2.297320108645893644e+00
2.257381389812921579e+00
2.257381389812921579e+00
2.257943906979583026e+00
2.257943906979583026e+00
2.354134342478713116e+00
2.354134342478713116e+00
2.279694570757164307e+00
2.279694570757164307e+00
2.224755394146549659e+00
2.224755394146549659e+00
2.207504867702261730e+00
2.207504867702261730e+00
2.207504867702261730e+00
2.238818323313089387e+00
2.238818323313089387e+00
2.102689168980987233e+00
2.102689168980987233e+00
2.100439100314340557e+00
2.100439100314340557e+00
2.500951322977385871e+00
2.500951322977385871e+00
2.292069948423719250e+00
2.292069948423719250e+00
2.182191595202490397e+00
2.182191595202490397e+00
2.196629535813471090e+00
2.196629535813471090e+00
2.215380108035523765e+00
2.215380108035523765e+00
2.215380108035523765e+00
2.286819788201544412e+00
2.286819788201544412e+00
2.348884182256538722e+00
2.348884182256538722e+00
2.504138920255134515e+00
2.504138920255134515e+00
2.389385418256172233e+00
2.389385418256172233e+00
2.345321573534348669e+00
2.345321573534348669e+00
2.318133243812372069e+00
2.318133243812372069e+00
2.320570818201239227e+00
2.320570818201239227e+00
2.147690542313913653e+00
2.147690542313913653e+00
2.223442854091006282e+00
2.473950498977630197e+00
2.473950498977630197e+00
2.223630359813226764e+00
2.223630359813226764e+00
2.150503128147221332e+00
2.150503128147221332e+00
2.138502761925107798e+00
2.138502761925107798e+00
2.129689992980742907e+00
2.188191778313547164e+00
2.188191778313547164e+00
2.248568620868556689e+00
2.248568620868556689e+00
2.345321573534348669e+00
2.345321573534348669e+00
2.345321573534348669e+00
2.203754753257850751e+00
2.203754753257850751e+00
2.208067384868923178e+00
2.208067384868923178e+00
2.245756035035248566e+00
2.245756035035248566e+00
2.201129673146763555e+00
2.201129673146763555e+00
2.023186742759483625e+00
2.023186742759483625e+00
2.210317453535568966e+00
2.210317453535568966e+00
2.320945829645680192e+00
2.320945829645680192e+00
2.218380199591051927e+00
2.218380199591051927e+00
2.218380199591051927e+00
2.257006378368480615e+00
2.257006378368480615e+00
2.278569536423841413e+00
2.278569536423841413e+00
2.331071138645588459e+00
2.331071138645588459e+00
2.478450636310922661e+00
2.478450636310922661e+00
2.636142948698385613e+00
2.636142948698385613e+00
2.551765373699148576e+00
2.551765373699148576e+00
2.401385784478286212e+00
2.401385784478286212e+00
2.371947386089663379e+00
2.371947386089663379e+00
2.371947386089663379e+00
2.358634479812006024e+00
2.358634479812006024e+00
2.194566972869045340e+00
2.194566972869045340e+00
2.060125370036927084e+00
2.060125370036927084e+00
2.427261574144718992e+00
2.427261574144718992e+00
2.324508438367870244e+00
2.324508438367870244e+00
2.207504867702261730e+00
2.207504867702261730e+00
2.162878505813776275e+00
2.162878505813776275e+00
2.163628528702658205e+00
2.163628528702658205e+00
2.163628528702658205e+00
2.204129764702292160e+00
2.204129764702292160e+00
2.242755943479720404e+00
2.242755943479720404e+00
2.367072237311929506e+00
2.367072237311929506e+00
2.266569170201727434e+00
2.266569170201727434e+00
2.225880428479872997e+00
2.225880428479872997e+00
2.209004913480026033e+00
2.209004913480026033e+00
2.222505325479903426e+00
2.222505325479903426e+00
2.097814020203253360e+00
2.097814020203253360e+00
2.097814020203253360e+00
2.146190496536149350e+00
2.531139744254890633e+00
2.531139744254890633e+00
2.292257454145939732e+00
2.292257454145939732e+00
2.292257454145939732e+00
2.203192236091189304e+00
2.203192236091189304e+00
2.216317636646626177e+00
2.216317636646626177e+00
2.227192968535416817e+00
2.227192968535416817e+00
2.272194341868343237e+00
2.272194341868343237e+00
2.302757774590289408e+00
2.302757774590289408e+00
2.435511825922421991e+00
2.435511825922421991e+00
2.295445051423688376e+00
2.295445051423688376e+00
2.277444502090518075e+00
2.277444502090518075e+00
2.277444502090518075e+00
2.286069765312662039e+00
2.286069765312662039e+00
2.320195806756797818e+00
2.320195806756797818e+00
2.182566606646931362e+00
2.182566606646931362e+00
2.321695852534562121e+00
2.321695852534562121e+00
2.462325144199957183e+00
2.462325144199957183e+00
2.231880611590930208e+00
2.231880611590930208e+00
2.221755302591021497e+00
2.221755302591021497e+00
2.230005554368724940e+00
2.230005554368724940e+00
2.230005554368724940e+00
2.221192785424360050e+00
2.221192785424360050e+00
2.262819055757316900e+00
2.262819055757316900e+00
2.325820978423414065e+00
2.325820978423414065e+00
2.427449079866939474e+00
2.427449079866939474e+00
2.365197180089724238e+00
2.365197180089724238e+00
2.387697866756187448e+00
2.387697866756187448e+00
2.365197180089724238e+00
2.365197180089724238e+00
2.254568803979613900e+00
2.254568803979613900e+00
2.254568803979613900e+00
2.101189123203222930e+00
2.101189123203222930e+00
2.365947202978606612e+00
2.365947202978606612e+00
2.385822809533982625e+00
2.385822809533982625e+00
2.238630817590868904e+00
2.238630817590868904e+00
2.212005005035553751e+00
2.212005005035553751e+00
2.241068391979735619e+00
2.241068391979735619e+00
2.255693838312936794e+00
2.255693838312936794e+00
2.262069032868434526e+00
2.262069032868434526e+00
2.262069032868434526e+00
2.336133793145542814e+00
2.336133793145542814e+00
2.285132236701559627e+00
2.285132236701559627e+00
2.239943357646412725e+00
2.239943357646412725e+00
2.251193700979644330e+00
2.251193700979644330e+00
2.224380382702108694e+00
2.224380382702108694e+00
2.037812189092684800e+00
2.037812189092684800e+00
1.952872096926786094e+00
2.363884640034180418e+00
2.363884640034180418e+00
2.246318552201910457e+00
2.246318552201910457e+00
2.246318552201910457e+00
2.197004547257912055e+00
2.197004547257912055e+00
2.224755394146549659e+00
2.224755394146549659e+00
2.208254890591143660e+00
2.241818414868617992e+00
2.241818414868617992e+00
2.321320841090121156e+00
2.321320841090121156e+00
2.504326425977354997e+00
2.504326425977354997e+00
2.438886928922391562e+00
2.438886928922391562e+00
2.438886928922391562e+00
2.351696768089846401e+00
2.351696768089846401e+00
2.346071596423230599e+00
2.346071596423230599e+00
2.370822351756340485e+00
2.370822351756340485e+00
2.181629078035828950e+00
2.181629078035828950e+00
2.246881069368571904e+00
2.246881069368571904e+00
2.566765831476790716e+00
2.566765831476790716e+00
2.347571642200994901e+00
2.347571642200994901e+00
2.347571642200994901e+00
2.265819147312845505e+00
2.265819147312845505e+00
2.185941709646900932e+00
2.185941709646900932e+00
2.087501205481124167e+00
2.087501205481124167e+00
2.060125370036927084e+00
2.060125370036927084e+00
2.068000610370189563e+00
2.068000610370189563e+00
2.176003906369212704e+00
2.176003906369212704e+00
2.008561296426282894e+00
2.008561296426282894e+00
2.028436902981658463e+00
2.028436902981658463e+00
2.028436902981658463e+00
2.071000701925717724e+00
2.071000701925717724e+00
2.085438642536698417e+00
2.085438642536698417e+00
2.033499557481612818e+00
2.033499557481612818e+00
2.290569902645954947e+00
2.290569902645954947e+00
2.493638599810785283e+00
2.493638599810785283e+00
2.368384777367473326e+00
2.368384777367473326e+00
2.371384868923001932e+00
2.371384868923001932e+00
2.379072603534043484e+00
2.379072603534043484e+00
2.379072603534043484e+00
2.343259010589922919e+00
2.343259010589922919e+00
2.388635395367290304e+00
2.388635395367290304e+00
2.467387798699911539e+00
2.467387798699911539e+00
2.485763359477523249e+00
2.485763359477523249e+00
2.385635303811762142e+00
2.385635303811762142e+00
2.407948484756004870e+00
2.407948484756004870e+00
2.426324045533616136e+00
2.426324045533616136e+00
2.289819879757073018e+00
2.289819879757073018e+00
2.201879696035645484e+00
2.201879696035645484e+00
2.482575762199774161e+00
2.482575762199774161e+00
2.327696035645618888e+00
2.327696035645618888e+00
2.178253975035859380e+00
2.178253975035859380e+00
2.177878963591417971e+00
2.177878963591417971e+00
2.212755027924436124e+00
2.212755027924436124e+00
2.212755027924436124e+00
2.209754936368907963e+00
2.209754936368907963e+00
2.161190954313791490e+00
2.161190954313791490e+00
2.154628254036072832e+00
2.154628254036072832e+00
2.000311044648579006e+00
2.000311044648579006e+00
2.061625415814691387e+00
2.061625415814691387e+00
2.227380474257637299e+00
2.227380474257637299e+00
2.339696401867732423e+00
2.339696401867732423e+00
2.232630634479812137e+00
2.232630634479812137e+00
2.232630634479812137e+00
2.215192602313302839e+00
2.215192602313302839e+00
2.567140842921231680e+00
2.567140842921231680e+00
2.367447248756370914e+00
2.367447248756370914e+00
2.357509445478682686e+00
2.357509445478682686e+00
2.397073152867214230e+00
2.397073152867214230e+00
2.356759422589800756e+00
2.356759422589800756e+00
2.331821161534470832e+00
2.331821161534470832e+00
2.288132328257088233e+00
2.288132328257088233e+00
2.361072054200873183e+00
2.361072054200873183e+00
2.361072054200873183e+00
2.206192327646717910e+00
2.206192327646717910e+00
2.181066560869167059e+00
2.181066560869167059e+00
2.141877864925076924e+00
2.141877864925076924e+00
1.964684957426679368e+00
1.964684957426679368e+00
1.696176763206885152e+00
1.696176763206885152e+00
1.854056581316568586e+00
1.854056581316568586e+00
2.211254982146671821e+00
2.211254982146671821e+00
2.211254982146671821e+00
2.171316263313699757e+00
2.171316263313699757e+00
2.236193243202001746e+00
2.236193243202001746e+00
2.173378826258125951e+00
2.173378826258125951e+00
2.185566698202459968e+00
2.185566698202459968e+00
2.262444044312875935e+00
2.262444044312875935e+00
2.316445692312387283e+00
2.316445692312387283e+00
2.459700064088869986e+00
2.459700064088869986e+00
2.402323313089388623e+00
2.402323313089388623e+00
2.380197637867366822e+00
2.380197637867366822e+00
2.380197637867366822e+00
2.378135074922940628e+00
2.378135074922940628e+00
2.417136265144810281e+00
2.417136265144810281e+00
2.443199560533463544e+00
2.443199560533463544e+00
2.777334757530442122e+00
2.814835901974547472e+00
2.814835901974547472e+00
2.636142948698385613e+00
2.636142948698385613e+00
2.561140659810174913e+00
2.561140659810174913e+00
2.470012878810998735e+00
2.470012878810998735e+00
2.470012878810998735e+00
2.447324686422315043e+00
2.406448438978240567e+00
2.406448438978240567e+00
2.372697408978545752e+00
2.372697408978545752e+00
2.307632923368022837e+00
2.307632923368022837e+00
2.307632923368022837e+00
2.191004364146854844e+00
2.191004364146854844e+00
2.049062532425916405e+00
2.049062532425916405e+00
1.883682485427411901e+00
1.883682485427411901e+00
1.695614246040223483e+00
1.695614246040223483e+00
1.520858912930692641e+00
1.520858912930692641e+00
1.811305276650288398e+00
1.811305276650288398e+00
1.674238593707083389e+00
1.674238593707083389e+00
1.599986327707754841e+00
1.599986327707754841e+00
1.599986327707754841e+00
1.728990264595477111e+00
1.728990264595477111e+00
1.996185918759727951e+00
1.996185918759727951e+00
2.350571733756523507e+00
2.350571733756523507e+00
2.645143223364970542e+00
2.645143223364970542e+00
2.833773979918820629e+00
2.833773979918820629e+00
2.697832331308938958e+00
2.697832331308938958e+00
2.591516586809900158e+00
2.591516586809900158e+00
2.471700430310983521e+00
2.471700430310983521e+00
2.471700430310983521e+00
2.417886288033692654e+00
2.417886288033692654e+00
2.262256538590655452e+00
2.262256538590655452e+00
2.293757499923703591e+00
2.293757499923703591e+00
2.664643818475905590e+00
2.664643818475905590e+00
2.424261482589190386e+00
2.424261482589190386e+00
2.255693838312936794e+00
2.255693838312936794e+00
2.114502029480880285e+00
2.114502029480880285e+00
2.012498916592913467e+00
2.012498916592913467e+00
2.012498916592913467e+00
1.958872280037843083e+00
1.958872280037843083e+00
2.044562395092623941e+00
2.044562395092623941e+00
2.191379375591296252e+00
2.191379375591296252e+00
2.081501022370067400e+00
2.081501022370067400e+00
2.192316904202398664e+00
2.192316904202398664e+00
2.371384868923001932e+00
2.371384868923001932e+00
2.430261665700247153e+00
2.430261665700247153e+00
2.349071687978759204e+00
2.349071687978759204e+00
2.349071687978759204e+00
2.552515396588030505e+00
2.552515396588030505e+00
2.611767204809717136e+00
2.611767204809717136e+00
2.393698049867244659e+00
2.393698049867244659e+00
2.199067110202337361e+00
2.199067110202337361e+00
1.818993011261330173e+00
1.818993011261330173e+00
1.508671040986358403e+00
1.508671040986358403e+00
1.493858088930936523e+00
1.493858088930936523e+00
1.586485915707876782e+00
1.586485915707876782e+00
1.759553697317423060e+00
1.759553697317423060e+00
1.759553697317423060e+00
1.886682576982940063e+00
1.886682576982940063e+00
2.298820154423657947e+00
2.298820154423657947e+00
2.659768669698171717e+00
2.659768669698171717e+00
2.682831873531296818e+00
2.682831873531296818e+00
2.541640064699239865e+00
2.541640064699239865e+00
2.683956907864619712e+00
2.683956907864619712e+00
2.434761803033539618e+00
2.434761803033539618e+00
1.978372875148777910e+00
1.978372875148777910e+00
1.978372875148777910e+00
1.585548387096774370e+00
1.585548387096774370e+00
1.339915890987884106e+00
1.339915890987884106e+00
1.380792138431958804e+00
1.380792138431958804e+00
1.710989715262306587e+00
1.710989715262306587e+00
2.045312417981505870e+00
2.045312417981505870e+00
2.201317178868984037e+00
2.201317178868984037e+00
2.547452742088076594e+00
2.547452742088076594e+00
2.813148350474562687e+00
2.813148350474562687e+00
2.813148350474562687e+00
2.891713248084963439e+00
2.891713248084963439e+00
2.681706839197973480e+00
2.681706839197973480e+00
2.578391186254463285e+00
2.578391186254463285e+00
3.082031556138798312e+00
3.082031556138798312e+00
3.013779473250526308e+00
3.013779473250526308e+00
2.775459700308236854e+00
2.775459700308236854e+00
2.488763451033051854e+00
2.488763451033051854e+00
2.335383770256660885e+00
2.335383770256660885e+00
2.335383770256660885e+00
2.386197820978423145e+00
2.386197820978423145e+00
2.423323953978087530e+00
2.423323953978087530e+00
2.565828302865687860e+00
2.565828302865687860e+00
2.473012970366527341e+00
2.473012970366527341e+00
2.491013519699698087e+00
2.491013519699698087e+00
2.465512741477706271e+00
2.465512741477706271e+00
2.526827112643818651e+00
2.526827112643818651e+00
2.338758873256630455e+00
2.338758873256630455e+00
2.250068666646320992e+00
2.250068666646320992e+00
2.487450910977508034e+00
2.487450910977508034e+00
2.267694204535050773e+00
2.267694204535050773e+00
2.332383678701132279e+00
2.332383678701132279e+00
2.366697225867488541e+00
2.366697225867488541e+00
2.186504226813562823e+00
1.958684774315622379e+00
1.958684774315622379e+00
1.866244453260902825e+00
1.866244453260902825e+00
1.858181707205420086e+00
1.858181707205420086e+00
1.858181707205420086e+00
1.507733512375255769e+00
1.507733512375255769e+00
1.353041291543320979e+00
1.353041291543320979e+00
1.659238135929441249e+00
1.659238135929441249e+00
2.236380748924222672e+00
2.236380748924222672e+00
2.382072695089572090e+00
2.382072695089572090e+00
2.663331278420362214e+00
2.663331278420362214e+00
2.686394482253486871e+00
2.686394482253486871e+00
2.466262764366588645e+00
2.466262764366588645e+00
2.487450910977508034e+00
2.487450910977508034e+00
2.487450910977508034e+00
2.472450453199865894e+00
2.472450453199865894e+00
2.427824091311380439e+00
2.427824091311380439e+00
2.364072145756401344e+00
2.364072145756401344e+00
2.413573656422620228e+00
2.413573656422620228e+00
2.499826288644062977e+00
2.499826288644062977e+00
2.519701895199438546e+00
2.519701895199438546e+00
2.376260017700735361e+00
2.376260017700735361e+00
2.082251045258949329e+00
2.082251045258949329e+00
2.082251045258949329e+00
1.651175389873958510e+00
1.651175389873958510e+00
1.542984588152714664e+00
1.542984588152714664e+00
2.102876674703207716e+00
2.102876674703207716e+00
2.347384136478774419e+00
2.347384136478774419e+00
2.570515945921201251e+00
2.570515945921201251e+00
2.759146702475051338e+00
2.759146702475051338e+00
2.870150090029603085e+00
2.870150090029603085e+00
2.785209997863704157e+00
2.785209997863704157e+00
2.785209997863704157e+00
2.569203405865657430e+00
2.569203405865657430e+00
2.393323038422803695e+00
2.393323038422803695e+00
2.004248664815210468e+00
2.004248664815210468e+00
1.771554063539536816e+00
1.771554063539536816e+00
1.663363261818292749e+00
1.663363261818292749e+00
1.812805322428052701e+00
1.812805322428052701e+00
1.978747886593218652e+00
1.978747886593218652e+00
2.331258644367808941e+00
2.331258644367808941e+00
2.331258644367808941e+00
2.712832789086581098e+00
2.492888576921902910e+00
2.492888576921902910e+00
2.492888576921902910e+00
2.520826929532761884e+00
2.520826929532761884e+00
2.524202032532731454e+00
2.524202032532731454e+00
2.396698141422773265e+00
2.396698141422773265e+00
2.410011047700430176e+00
2.410011047700430176e+00
2.416761253700369316e+00
2.416761253700369316e+00
2.581578783532212373e+00
2.581578783532212373e+00
2.439074434644612044e+00
2.439074434644612044e+00
2.276319467757194737e+00
2.276319467757194737e+00
2.276319467757194737e+00
2.093688894314401416e+00
2.093688894314401416e+00
1.953434614093447763e+00
1.953434614093447763e+00
1.667488387707144470e+00
1.667488387707144470e+00
1.662425733207190115e+00
1.662425733207190115e+00
1.925121250038148268e+00
1.925121250038148268e+00
1.872619647816400779e+00
1.872619647816400779e+00
2.089938779869991325e+00
2.089938779869991325e+00
2.404010864589373409e+00
2.404010864589373409e+00
2.404010864589373409e+00
2.464200201422162451e+00
2.464200201422162451e+00
2.466450270088809127e+00
2.466450270088809127e+00
2.449012237922299828e+00
2.449012237922299828e+00
2.399698232978301426e+00
2.399698232978301426e+00
2.261319009979552597e+00
2.261319009979552597e+00
2.418073793755913137e+00
2.418073793755913137e+00
2.617392376476332938e+00
2.617392376476332938e+00
2.654331003753776841e+00
2.654331003753776841e+00
2.654331003753776841e+00
2.461200109866634289e+00
2.461200109866634289e+00
2.122377269814142320e+00
2.122377269814142320e+00
1.471169896542252831e+00
1.471169896542252831e+00
9.960303964354381145e-01
9.960303964354381145e-01
1.152222663045136875e+00
1.152222663045136875e+00
1.545609668263801861e+00
1.545609668263801861e+00
2.118627155369731785e+00
2.118627155369731785e+00
3.116345103305154574e+00
3.116345103305154574e+00
3.686550004577776818e+00
3.686550004577776818e+00
3.686550004577776818e+00
3.607235084078493692e+00
3.607235084078493692e+00
3.012466933194982932e+00
3.012466933194982932e+00
2.477513107699820250e+00
2.477513107699820250e+00
2.297882625812555535e+00
2.297882625812555535e+00
2.127064912869655711e+00
2.127064912869655711e+00
2.040249763481551515e+00
2.040249763481551515e+00
2.428386608478041886e+00
2.428386608478041886e+00
2.226817957090975852e+00
2.226817957090975852e+00
2.186504226813562823e+00
2.186504226813562823e+00
2.248568620868556689e+00
2.248568620868556689e+00
2.226067934202093479e+00
2.226067934202093479e+00
2.148065553758354618e+00
2.037062166203802427e+00
2.037062166203802427e+00
2.138690267647328280e+00
2.138690267647328280e+00
2.090501297036652772e+00
2.090501297036652772e+00
1.954184636982329915e+00
1.954184636982329915e+00
1.922871181371501814e+00
1.922871181371501814e+00
1.922871181371501814e+00
2.027874385814997016e+00
2.027874385814997016e+00
1.858556718649861272e+00
1.858556718649861272e+00
2.101189123203222930e+00
2.101189123203222930e+00
2.689019562364574512e+00
2.689019562364574512e+00
2.583266335032197158e+00
2.583266335032197158e+00
2.226630451368755370e+00
2.226630451368755370e+00
2.207692373424482213e+00
2.207692373424482213e+00
2.361822077089755112e+00
2.361822077089755112e+00
2.361822077089755112e+00
2.761021759697256606e+00
2.761021759697256606e+00
2.605579515976439886e+00
2.605579515976439886e+00
2.721083040864284097e+00
2.721083040864284097e+00
2.874275215918454585e+00
2.874275215918454585e+00
3.000091555528427989e+00
3.000091555528427989e+00
2.681519333475752997e+00
2.681519333475752997e+00
2.349821710867641578e+00
2.349821710867641578e+00
2.131565050202948175e+00
2.131565050202948175e+00
2.131565050202948175e+00
2.245568529313028083e+00
2.245568529313028083e+00
2.326758507034516477e+00
2.326758507034516477e+00
2.072688253425702509e+00
2.072688253425702509e+00
2.038937223426007694e+00
2.038937223426007694e+00
1.818617999816888986e+00
1.818617999816888986e+00
1.527796624652851820e+00
1.527796624652851820e+00
1.540734519486068210e+00
1.540734519486068210e+00
1.640487563707388574e+00
1.640487563707388574e+00
1.640487563707388574e+00
1.708177129428998908e+00
1.708177129428998908e+00
1.848618915372173266e+00
1.848618915372173266e+00
2.327883541367839371e+00
2.327883541367839371e+00
2.631830317087313631e+00
2.631830317087313631e+00
2.293945005645924073e+00
2.293945005645924073e+00
1.882369945371868081e+00
1.882369945371868081e+00
2.112064455092013571e+00
2.112064455092013571e+00
2.106439283425397324e+00
2.106439283425397324e+00
2.073250770592364400e+00
2.073250770592364400e+00
2.622267525254066367e+00
2.622267525254066367e+00
3.447480208746604990e+00
3.447480208746604990e+00
3.559983642078920596e+00
3.559983642078920596e+00
3.559983642078920596e+00
3.347164647358623402e+00
3.347164647358623402e+00
3.256411877803888189e+00
3.256411877803888189e+00
3.017717093417157770e+00
3.017717093417157770e+00
2.631642811365093149e+00
2.631642811365093149e+00
2.285694753868221074e+00
2.285694753868221074e+00
1.920996124149296547e+00
1.920996124149296547e+00
1.434981292153691301e+00
1.434981292153691301e+00
1.367104220709860707e+00
1.367104220709860707e+00
1.826868251594591985e+00
1.826868251594591985e+00
1.826868251594591985e+00
1.746990813928647857e+00
1.746990813928647857e+00
1.772866603595080637e+00
1.772866603595080637e+00
1.917996032593768163e+00
1.917996032593768163e+00
2.031624500259407551e+00
2.031624500259407551e+00
2.023374248481704107e+00
2.023374248481704107e+00
2.002561113315225683e+00
2.002561113315225683e+00
2.394260567033906106e+00
2.394260567033906106e+00
2.826086245307779077e+00
2.826086245307779077e+00
2.826086245307779077e+00
3.092719382305368025e+00
3.092719382305368025e+00
2.805085604419080170e+00
2.805085604419080170e+00
2.386947843867305519e+00
2.386947843867305519e+00
1.927746330149235465e+00
1.927746330149235465e+00
1.896245368816187105e+00
1.896245368816187105e+00
2.299195165868098911e+00
2.299195165868098911e+00
2.434574297311319135e+00
2.434574297311319135e+00
2.707957640308847225e+00
2.707957640308847225e+00
2.707957640308847225e+00
2.916088991973631916e+00
2.916088991973631916e+00
2.704020020142216207e+00
2.704020020142216207e+00
2.408698507644886799e+00
2.408698507644886799e+00
2.021686696981719766e+00
2.021686696981719766e+00
1.830618366039002742e+00
1.830618366039002742e+00
1.704052003540146965e+00
1.704052003540146965e+00
1.734240424817651949e+00
1.734240424817651949e+00
1.788054567094943037e+00
1.788054567094943037e+00
1.788054567094943037e+00
1.944246833704641908e+00
1.944246833704641908e+00
1.874682210760826528e+00
1.874682210760826528e+00
1.993373332926419828e+00
1.993373332926419828e+00
2.071563219092379615e+00
2.071563219092379615e+00
2.240880886257515137e+00
2.240880886257515137e+00
2.724270638142033185e+00
2.724270638142033185e+00
2.803210547196874902e+00
2.803210547196874902e+00
2.642518143253883789e+00
2.518014343699453761e+00
2.518014343699453761e+00
2.495138645588549586e+00
2.495138645588549586e+00
2.314008117923521013e+00
2.314008117923521013e+00
1.963747428815576734e+00
1.963747428815576734e+00
1.936559099093600356e+00
1.936559099093600356e+00
1.936559099093600356e+00
2.208067384868923178e+00
2.208067384868923178e+00
2.426136539811395654e+00
2.426136539811395654e+00
2.509764091921750762e+00
2.509764091921750762e+00
2.802460524307992973e+00
2.802460524307992973e+00
2.413761162144840711e+00
2.413761162144840711e+00
2.053375164036988387e+00
2.053375164036988387e+00
1.715114841151158087e+00
1.715114841151158087e+00
1.809617725150303613e+00
1.809617725150303613e+00
2.139440290536210654e+00
2.139440290536210654e+00
2.139440290536210654e+00
2.299007660145878429e+00
2.299007660145878429e+00
2.515951780755027567e+00
2.515951780755027567e+00
2.384135258033997840e+00
2.384135258033997840e+00
2.291507431257057803e+00
2.291507431257057803e+00
2.096313974425489057e+00
2.096313974425489057e+00
1.829680837427900109e+00
1.829680837427900109e+00
1.742303170873134688e+00
1.742303170873134688e+00
2.245756035035248566e+00
2.245756035035248566e+00
2.245756035035248566e+00
2.785397503585924639e+00
2.785397503585924639e+00
2.663893795587023661e+00
2.663893795587023661e+00
2.611767204809717136e+00
2.611767204809717136e+00
2.472075441755424485e+00
2.472075441755424485e+00
2.272756859035004684e+00
2.272756859035004684e+00
2.297132602923673161e+00
2.297132602923673161e+00
2.492138554033020981e+00
2.492138554033020981e+00
2.745646290475173501e+00
2.745646290475173501e+00
2.745646290475173501e+00
2.750708944975127412e+00
2.750708944975127412e+00
2.612892239143040030e+00
2.612892239143040030e+00
2.342133976256599581e+00
2.342133976256599581e+00
2.098751548814355772e+00
2.098751548814355772e+00
1.623799554429761649e+00
1.623799554429761649e+00
1.562297677541429008e+00
1.562297677541429008e+00
1.861931821649830621e+00
1.861931821649830621e+00
2.019436628315073090e+00
2.019436628315073090e+00
2.398385692922757606e+00
2.398385692922757606e+00
2.398385692922757606e+00
2.710582720419934866e+00
2.710582720419934866e+00
3.107907345805231092e+00
3.107907345805231092e+00
3.057655812250129834e+00
3.057655812250129834e+00
2.723145603808710291e+00
2.723145603808710291e+00
2.519514389477218064e+00
2.519514389477218064e+00
2.247818597979674760e+00
2.247818597979674760e+00
2.132877590258491995e+00
2.132877590258491995e+00
2.286069765312662039e+00
2.286069765312662039e+00
2.463450178533280521e+00
2.463450178533280521e+00
2.463450178533280521e+00
2.418261299478133619e+00
2.418261299478133619e+00
2.642518143253883789e+00
2.642518143253883789e+00
2.513139194921720332e+00
2.513139194921720332e+00
2.170753746147038310e+00
2.170753746147038310e+00
1.946309396649067658e+00
1.946309396649067658e+00
1.758803674428540909e+00
1.758803674428540909e+00
1.614049256874294347e+00
1.614049256874294347e+00
1.632237311929685575e+00
1.632237311929685575e+00
1.632237311929685575e+00
1.842993743705557463e+00
1.842993743705557463e+00
1.898682943205053819e+00
1.898682943205053819e+00
2.082251045258949329e+00
2.082251045258949329e+00
2.315320657979064389e+00
2.315320657979064389e+00
2.502638874477370656e+00
2.502638874477370656e+00
2.305382854701376161e+00
2.305382854701376161e+00
2.116002075258644588e+00
2.116002075258644588e+00
2.420511368144779851e+00
2.420511368144779851e+00
2.420511368144779851e+00
2.224192876979888212e+00
2.224192876979888212e+00
2.280632099368266719e+00
2.280632099368266719e+00
2.498138737144077748e+00
2.498138737144077748e+00
2.508826563310647906e+00
2.508826563310647906e+00
2.361259559923093665e+00
2.361259559923093665e+00
2.203192236091189304e+00
2.203192236091189304e+00
2.034999603259376677e+00
2.034999603259376677e+00
1.568297860652485554e+00
1.568297860652485554e+00
1.568297860652485554e+00
1.422418408764915876e+00
1.422418408764915876e+00
1.653237952818384482e+00
1.653237952818384482e+00
2.082813562425611220e+00
2.082813562425611220e+00
2.284007202368236289e+00
2.284007202368236289e+00
2.780897366252632175e+00
2.780897366252632175e+00
3.222285836359751965e+00
3.222285836359751965e+00
2.871650135807367388e+00
2.871650135807367388e+00
2.765146885586108105e+00
2.765146885586108105e+00
2.272006836146122755e+00
2.272006836146122755e+00
1.966372508926664153e+00
1.966372508926664153e+00
1.951934568315683460e+00
2.104939237647633021e+00
2.104939237647633021e+00
2.558890591143528681e+00
2.558890591143528681e+00
2.864149906918546318e+00
2.864149906918546318e+00
2.902776085695974562e+00
2.902776085695974562e+00
2.902776085695974562e+00
2.709457686086611528e+00
2.709457686086611528e+00
2.396510635700552783e+00
2.396510635700552783e+00
2.082438550981169811e+00
2.082438550981169811e+00
2.367634754478591397e+00
2.367634754478591397e+00
2.700457411420026599e+00
2.700457411420026599e+00
2.540890041810357936e+00
2.540890041810357936e+00
2.345884090701010116e+00
2.345884090701010116e+00
2.125189855647450443e+00
2.125189855647450443e+00
2.125189855647450443e+00
1.966560014648884636e+00
1.966560014648884636e+00
1.921933652760399180e+00
1.921933652760399180e+00
2.001061067537461380e+00
2.001061067537461380e+00
2.154815759758293314e+00
2.154815759758293314e+00
2.169628711813714972e+00
2.169628711813714972e+00
1.992060792870876229e+00
1.992060792870876229e+00
1.895495345927304953e+00
1.895495345927304953e+00
1.903370586260566988e+00
1.903370586260566988e+00
1.903370586260566988e+00
1.947809442426831961e+00
1.947809442426831961e+00
2.372884914700766235e+00
2.372884914700766235e+00
2.523076998199408116e+00
2.523076998199408116e+00
2.635580431531724166e+00
2.635580431531724166e+00
2.615704824976348153e+00
2.615704824976348153e+00
2.343446516312143402e+00
2.343446516312143402e+00
2.170191228980376863e+00
2.170191228980376863e+00
2.205629810480056463e+00
2.205629810480056463e+00
2.205629810480056463e+00
2.399135715811639535e+00
2.399135715811639535e+00
2.352634296700948813e+00
2.352634296700948813e+00
2.277444502090518075e+00
2.277444502090518075e+00
2.364072145756401344e+00
2.364072145756401344e+00
2.497576219977416301e+00
2.497576219977416301e+00
2.338758873256630455e+00
2.338758873256630455e+00
2.281382122257148648e+00
2.281382122257148648e+00
2.586078920865504838e+00
2.586078920865504838e+00
2.214255073702200427e+00
2.214255073702200427e+00
2.007811273537400520e+00
2.007811273537400520e+00
1.933559007538071750e+00
1.933559007538071750e+00
1.933559007538071750e+00
1.854619098483230255e+00
1.854619098483230255e+00
1.947246925260170292e+00
1.947246925260170292e+00
1.953434614093447763e+00
1.953434614093447763e+00
2.068375621814630971e+00
2.068375621814630971e+00
2.052625141148106458e+00
2.052625141148106458e+00
2.073813287759025847e+00
2.073813287759025847e+00
1.898682943205053819e+00
1.898682943205053819e+00
1.864556901760918040e+00
1.864556901760918040e+00
1.864556901760918040e+00
1.723552598651082013e+00
1.723552598651082013e+00
1.921558641315958216e+00
1.921558641315958216e+00
2.606892056031983707e+00
2.606892056031983707e+00
2.926589312417981592e+00
2.926589312417981592e+00
3.256036866359446780e+00
3.256036866359446780e+00
3.364602679525132256e+00
3.364602679525132256e+00
3.299163182470168376e+00
3.299163182470168376e+00
2.929214392529068789e+00
2.929214392529068789e+00
2.929214392529068789e+00
2.536202398754844989e+00
2.536202398754844989e+00
2.313820612201300086e+00
2.313820612201300086e+00
2.023936765648365554e+00
2.023936765648365554e+00
2.004811181981871915e+00
2.004811181981871915e+00
2.059187841425824672e+00
2.059187841425824672e+00
2.076438367870113488e+00
2.076438367870113488e+00
2.019061616870632125e+00
2.019061616870632125e+00
2.204879787591174090e+00
2.204879787591174090e+00
2.295632557145908859e+00
2.295632557145908859e+00
2.295632557145908859e+00
2.148065553758354618e+00
2.148065553758354618e+00
2.176941434980315559e+00
2.176941434980315559e+00
2.248943632312997654e+00
2.248943632312997654e+00
2.298820154423657947e+00
2.298820154423657947e+00
2.373072420422986717e+00
2.373072420422986717e+00
2.446762169255653596e+00
2.446762169255653596e+00
2.355446882534256936e+00
2.355446882534256936e+00
2.149940610980559885e+00
2.149940610980559885e+00
2.149940610980559885e+00
2.031624500259407551e+00
2.031624500259407551e+00
2.062562944425794242e+00
2.062562944425794242e+00
2.052812646870326940e+00
2.052812646870326940e+00
2.099876583147679110e+00
2.099876583147679110e+00
2.612892239143040030e+00
2.612892239143040030e+00
2.416761253700369316e+00
2.416761253700369316e+00
2.104001709036531054e+00
2.104001709036531054e+00
1.906745689260536558e+00
1.906745689260536558e+00
1.687551499984740744e+00
1.687551499984740744e+00
1.562110171819208526e+00
1.805305093539231631e+00
1.805305093539231631e+00
2.424448988311410869e+00
2.424448988311410869e+00
2.646830774864955327e+00
2.646830774864955327e+00
2.720895535142063615e+00
2.720895535142063615e+00
2.679269264809107209e+00
2.679269264809107209e+00
2.576328623310037536e+00
2.576328623310037536e+00
2.576328623310037536e+00
2.267319193090609808e+00
2.267319193090609808e+00
2.052250129703665493e+00
2.052250129703665493e+00
2.234693197424237443e+00
2.234693197424237443e+00
2.161003448591571008e+00
2.161003448591571008e+00
2.342883999145481511e+00
2.342883999145481511e+00
2.368197271645252844e+00
2.368197271645252844e+00
2.256818872646260132e+00
2.256818872646260132e+00
2.505826471755119300e+00
2.505826471755119300e+00
2.505826471755119300e+00
2.750708944975127412e+00
2.750708944975127412e+00
2.865649952696310621e+00
2.865649952696310621e+00
2.562453199865718290e+00
2.562453199865718290e+00
2.455387432477798004e+00
2.455387432477798004e+00
2.380385143589587305e+00
2.380385143589587305e+00
2.319070772423474924e+00
2.319070772423474924e+00
2.038562211981566730e+00
2.038562211981566730e+00
2.150315622425000850e+00
2.150315622425000850e+00
2.150315622425000850e+00
2.281007110812707683e+00
2.281007110812707683e+00
2.066125553147984295e+00
2.066125553147984295e+00
2.078500930814539238e+00
2.078500930814539238e+00
1.987748161259804025e+00
1.987748161259804025e+00
1.900933011871700273e+00
1.900933011871700273e+00
1.944246833704641908e+00
1.944246833704641908e+00
1.967497543259987047e+00
1.967497543259987047e+00
2.073250770592364400e+00
2.073250770592364400e+00
2.101001617481002448e+00
2.101001617481002448e+00
2.101001617481002448e+00
2.368759788811914291e+00
2.368759788811914291e+00
2.515951780755027567e+00
2.515951780755027567e+00
2.496263679921872480e+00
2.496263679921872480e+00
2.352071779534287366e+00
2.352071779534287366e+00
2.564328257087923557e+00
2.564328257087923557e+00
2.442637043366802097e+00
2.442637043366802097e+00
2.162878505813776275e+00
2.162878505813776275e+00
2.103251686147648680e+00
2.103251686147648680e+00
1.958309762871181414e+00
1.958309762871181414e+00
1.905245643482772255e+00
1.905245643482772255e+00
2.156315805536057617e+00
2.156315805536057617e+00
2.503201391644032547e+00
2.503201391644032547e+00
2.503201391644032547e+00
2.580266243476668553e+00
2.580266243476668553e+00
2.561140659810174913e+00
2.561140659810174913e+00
2.534702352977080686e+00
2.534702352977080686e+00
2.487825922421948999e+00
2.487825922421948999e+00
2.321133335367900674e+00
2.321133335367900674e+00
2.246881069368571904e+00
2.246881069368571904e+00
2.568453382976775501e+00
2.568453382976775501e+00
2.295632557145908859e+00
2.295632557145908859e+00
2.295632557145908859e+00
2.143752922147282192e+00
2.143752922147282192e+00
2.137377727591784460e+00
2.137377727591784460e+00
2.139065279091769245e+00
2.139065279091769245e+00
2.154253242591631867e+00
2.154253242591631867e+00
2.133065095980712478e+00
2.133065095980712478e+00
2.320008301034577336e+00
2.320008301034577336e+00
2.336321298867763296e+00
2.336321298867763296e+00
2.489513473921933784e+00
2.489513473921933784e+00
2.489513473921933784e+00
2.578766197698904250e+00
2.578766197698904250e+00
2.623392559587389705e+00
2.623392559587389705e+00
2.312695577867977192e+00
2.312695577867977192e+00
2.209004913480026033e+00
2.209004913480026033e+00
2.430449171422468080e+00
2.430449171422468080e+00
2.121252235480818982e+00
2.121252235480818982e+00
2.057312784203619849e+00
2.057312784203619849e+00
2.080938505203405953e+00
2.080938505203405953e+00
2.083751091036713632e+00
2.083751091036713632e+00
2.083751091036713632e+00
2.108314340647602592e+00
2.108314340647602592e+00
2.138315256202887316e+00
2.138315256202887316e+00
2.251756218146305777e+00
2.251756218146305777e+00
2.102689168980987233e+00
2.102689168980987233e+00
2.129502487258521981e+00
2.129502487258521981e+00
2.227192968535416817e+00
2.227192968535416817e+00
2.389947935422834124e+00
2.389947935422834124e+00
2.400073244422742391e+00
2.400073244422742391e+00
2.400073244422742391e+00
2.617017365031891973e+00
2.617017365031891973e+00
2.655081026642659214e+00
2.655081026642659214e+00
2.326571001312295994e+00
2.247443586535233351e+00
2.247443586535233351e+00
2.200942167424543072e+00
2.200942167424543072e+00
2.199629627368999252e+00
2.199629627368999252e+00
2.193066927091281038e+00
2.193066927091281038e+00
2.211442487868892304e+00
2.211442487868892304e+00
2.277632007812738557e+00
2.277632007812738557e+00
2.207317361980041248e+00
2.207317361980041248e+00
2.056000244148076028e+00
2.056000244148076028e+00
1.950997039704580827e+00
1.950997039704580827e+00
1.846743858149967998e+00
1.846743858149967998e+00
1.846743858149967998e+00
1.715114841151158087e+00
1.715114841151158087e+00
2.011561387981810611e+00
2.011561387981810611e+00
2.041187292092654371e+00
2.041187292092654371e+00
2.174691366313669327e+00
2.174691366313669327e+00
2.451262306588946061e+00
2.451262306588946061e+00
2.581578783532212373e+00
2.581578783532212373e+00
2.664081301309244143e+00
2.664081301309244143e+00
2.723333109530930773e+00
2.723333109530930773e+00
2.723333109530930773e+00
2.907088717307046544e+00
2.907088717307046544e+00
2.842024231696524073e+00
2.842024231696524073e+00
2.654518509475997323e+00
2.654518509475997323e+00
2.427636585589159957e+00
2.427636585589159957e+00
2.284944730979339145e+00
2.284944730979339145e+00
2.031812005981628033e+00
2.031812005981628033e+00
1.941059236426893042e+00
1.941059236426893042e+00
2.419573839533677440e+00
2.419573839533677440e+00
2.419573839533677440e+00
2.287569811090426342e+00
2.287569811090426342e+00
2.158753379924924776e+00
2.158753379924924776e+00
2.085251136814477935e+00
2.085251136814477935e+00
2.118627155369731785e+00
2.118627155369731785e+00
2.200192144535660699e+00
2.200192144535660699e+00
2.229630542924283532e+00
2.229630542924283532e+00
2.369884823145237629e+00
2.369884823145237629e+00
2.250631183812982439e+00
2.250631183812982439e+00
2.309132969145787140e+00
2.309132969145787140e+00
2.309132969145787140e+00
2.321695852534562121e+00
2.321695852534562121e+00
2.289257362590411127e+00
2.289257362590411127e+00
2.047187475203710694e+00
2.047187475203710694e+00
2.132127567369609622e+00
2.132127567369609622e+00
2.437761894589068223e+00
2.437761894589068223e+00
2.251193700979644330e+00
2.251193700979644330e+00
2.267131687368389326e+00
2.267131687368389326e+00
2.272381847590563719e+00
2.272381847590563719e+00
2.322633381145664977e+00
2.322633381145664977e+00
2.421636402478102745e+00
2.421636402478102745e+00
2.421636402478102745e+00
2.435511825922421991e+00
2.435511825922421991e+00
2.479575670644245999e+00
2.479575670644245999e+00
2.323570909756767389e+00
2.323570909756767389e+00
2.240130863368633207e+00
2.240130863368633207e+00
2.072125736259041062e+00
2.072125736259041062e+00
1.879182348094118993e+00
1.879182348094118993e+00
1.727865230262153995e+00
1.727865230262153995e+00
1.962997405926694583e+00
1.962997405926694583e+00
1.962997405926694583e+00
2.129314981536301499e+00
2.129314981536301499e+00
2.198504593035676358e+00
2.198504593035676358e+00
2.568453382976775501e+00
2.568453382976775501e+00
2.784459974974822671e+00
2.784459974974822671e+00
2.690894619586779779e+00
2.690894619586779779e+00
2.541452558977019383e+00
2.541452558977019383e+00
2.496076174199651998e+00
2.496076174199651998e+00
2.394260567033906106e+00
2.394260567033906106e+00
2.394260567033906106e+00
2.210504959257789892e+00
2.210504959257789892e+00
2.146753013702810797e+00
2.146753013702810797e+00
2.130440015869624837e+00
2.130440015869624837e+00
2.080375988036744506e+00
2.080375988036744506e+00
2.001811090426343309e+00
2.001811090426343309e+00
2.363322122867518971e+00
2.363322122867518971e+00
2.317383220923490139e+00
2.317383220923490139e+00
2.374572466200750576e+00
2.374572466200750576e+00
2.374572466200750576e+00
2.528702169866023475e+00
2.528702169866023475e+00
2.521764458143864296e+00
2.521764458143864296e+00
2.385822809533982625e+00
2.385822809533982625e+00
2.276881984923856628e+00
2.276881984923856628e+00
2.315695669423505798e+00
2.315695669423505798e+00
2.236380748924222672e+00
2.236380748924222672e+00
2.196442030091250608e+00
2.196442030091250608e+00
2.181066560869167059e+00
2.181066560869167059e+00
2.269006744590594149e+00
2.269006744590594149e+00
2.269006744590594149e+00
2.174691366313669327e+00
2.174691366313669327e+00
2.194004455702383449e+00
2.194004455702383449e+00
2.530764732810449669e+00
2.530764732810449669e+00
2.287007293923764895e+00
2.287007293923764895e+00
2.224380382702108694e+00
2.224380382702108694e+00
2.204317270424512643e+00
2.204317270424512643e+00
2.108689352092044000e+00
2.108689352092044000e+00
1.976872829371013607e+00
1.877119785149693465e+00
1.877119785149693465e+00
1.950434522537919158e+00
1.950434522537919158e+00
1.831368388927884894e+00
1.831368388927884894e+00
1.868869533371990022e+00
1.868869533371990022e+00
2.025624317148350340e+00
2.025624317148350340e+00
2.335008758812219920e+00
2.335008758812219920e+00
2.335008758812219920e+00
2.491576036866359534e+00
2.491576036866359534e+00
2.776209723197119228e+00
2.776209723197119228e+00
2.942152287362285179e+00
2.942152287362285179e+00
2.643268166142765718e+00
2.643268166142765718e+00
2.494951139866329104e+00
2.494951139866329104e+00
2.353759331034272151e+00
2.353759331034272151e+00
2.291507431257057803e+00
2.291507431257057803e+00
2.267881710257271255e+00
2.267881710257271255e+00
2.267881710257271255e+00
2.318133243812372069e+00
2.318133243812372069e+00
2.396135624256111374e+00
2.396135624256111374e+00
2.317008209479048730e+00
2.317008209479048730e+00
2.310258003479110034e+00
2.310258003479110034e+00
2.233005645924253102e+00
2.233005645924253102e+00
2.070438184759056277e+00
2.070438184759056277e+00
1.968247566148869199e+00
1.968247566148869199e+00
2.272756859035004684e+00
2.272756859035004684e+00
2.272756859035004684e+00
2.260943998535111632e+00
2.260943998535111632e+00
2.058062807092501334e+00
2.058062807092501334e+00
2.081501022370067400e+00
2.081501022370067400e+00
2.149003082369457029e+00
2.149003082369457029e+00
2.231318094424268317e+00
2.231318094424268317e+00
2.308757957701345731e+00
2.308757957701345731e+00
2.462325144199957183e+00
2.462325144199957183e+00
2.480888210699789376e+00
2.480888210699789376e+00
2.480888210699789376e+00
2.440011963255714900e+00
2.440011963255714900e+00
2.528327158421582510e+00
2.528327158421582510e+00
2.559640614032411055e+00
2.559640614032411055e+00
2.419198828089236475e+00
2.419198828089236475e+00
2.300507705923642732e+00
2.300507705923642732e+00
2.545577684865871326e+00
2.545577684865871326e+00
2.216880153813287624e+00
2.216880153813287624e+00
2.024686788537247928e+00
2.024686788537247928e+00
2.029936948759422766e+00
2.029936948759422766e+00
2.080938505203405953e+00
2.080938505203405953e+00
2.168128666035950669e+00
2.168128666035950669e+00
2.168128666035950669e+00
2.262631550035096417e+00
2.262631550035096417e+00
2.445074617755668811e+00
2.445074617755668811e+00
2.343634022034363884e+00
2.343634022034363884e+00
2.299757683034760802e+00
2.299757683034760802e+00
2.236755760368663637e+00
2.236755760368663637e+00
2.214255073702200427e+00
2.214255073702200427e+00
2.050375072481459782e+00
2.050375072481459782e+00
2.158940885647145258e+00
2.158940885647145258e+00
2.158940885647145258e+00
2.508264046143986459e+00
2.508264046143986459e+00
2.291882442701498768e+00
2.291882442701498768e+00
2.252131229590746742e+00
2.252131229590746742e+00
2.263006561479537382e+00
2.263006561479537382e+00
2.237880794701986531e+00
2.237880794701986531e+00
2.262819055757316900e+00
2.262819055757316900e+00
2.269381756035035114e+00
2.269381756035035114e+00
2.339133884701071420e+00
2.339133884701071420e+00
2.339133884701071420e+00
2.134940153202917745e+00
2.134940153202917745e+00
2.076250862147892562e+00
2.076250862147892562e+00
2.031061983092746104e+00
2.031061983092746104e+00
2.025999328592791304e+00
2.025999328592791304e+00
1.971997680593279956e+00
1.971997680593279956e+00
2.283819696646015807e+00
2.283819696646015807e+00
2.565265785699026413e+00
2.565265785699026413e+00
2.431199194311350009e+00
2.431199194311350009e+00
2.478638142033143144e+00
2.478638142033143144e+00
2.478638142033143144e+00
2.504326425977354997e+00
2.504326425977354997e+00
2.410011047700430176e+00
2.410011047700430176e+00
2.359384502700888397e+00
2.359384502700888397e+00
2.362384594256416559e+00
2.362384594256416559e+00
2.344196539201025331e+00
2.344196539201025331e+00
2.216317636646626177e+00
2.216317636646626177e+00
2.197192052980132537e+00
2.197192052980132537e+00
2.278944547868282378e+00
2.278944547868282378e+00
2.278944547868282378e+00
2.232443128757591655e+00
2.232443128757591655e+00
2.146190496536149350e+00
2.146190496536149350e+00
2.503576403088473068e+00
2.503576403088473068e+00
2.445637134922330258e+00
2.445637134922330258e+00
2.298257637256996500e+00
2.298257637256996500e+00
2.252693746757408633e+00
2.187629261146885273e+00
2.187629261146885273e+00
2.184441663869136629e+00
2.184441663869136629e+00
2.278569536423841413e+00
2.278569536423841413e+00
2.473762993255409270e+00
2.473762993255409270e+00
2.401385784478286212e+00
2.401385784478286212e+00
2.290757408368175430e+00
2.290757408368175430e+00
2.241630909146397510e+00
2.241630909146397510e+00
2.268256721701712220e+00
2.268256721701712220e+00
2.128564958647419569e+00
2.128564958647419569e+00
2.128564958647419569e+00
2.144690450758385047e+00
2.144690450758385047e+00
2.545952696310312291e+00
2.545952696310312291e+00
2.312133060701315301e+00
2.312133060701315301e+00
2.205817316202276945e+00
2.205817316202276945e+00
2.184816675313578038e+00
2.184816675313578038e+00
2.155940794091616652e+00
2.155940794091616652e+00
2.166441114535965884e+00
2.166441114535965884e+00
2.206942350535599839e+00
2.206942350535599839e+00
2.206942350535599839e+00
2.365009674367503756e+00
2.365009674367503756e+00
2.252318735312967224e+00
2.252318735312967224e+00
2.264131595812860720e+00
2.264131595812860720e+00
2.279319559312723342e+00
2.279319559312723342e+00
2.264131595812860720e+00
2.264131595812860720e+00
2.102689168980987233e+00
2.102689168980987233e+00
2.206379833368938392e+00
2.206379833368938392e+00
2.439636951811273491e+00
2.439636951811273491e+00
2.439636951811273491e+00
2.175816400646992221e+00
2.175816400646992221e+00
2.132877590258491995e+00
2.132877590258491995e+00
2.130252510147404355e+00
2.130252510147404355e+00
2.146940519425031280e+00
2.146940519425031280e+00
2.221755302591021497e+00
2.221755302591021497e+00
2.306132877590258534e+00
2.306132877590258534e+00
2.404198370311593891e+00
2.404198370311593891e+00
2.291882442701498768e+00
2.291882442701498768e+00
2.291882442701498768e+00
2.313258095034638639e+00
2.313258095034638639e+00
2.383010223700674501e+00
2.383010223700674501e+00
2.368197271645252844e+00
2.368197271645252844e+00
2.207692373424482213e+00
2.207692373424482213e+00
2.451262306588946061e+00
2.451262306588946061e+00
2.524577043977172419e+00
2.524577043977172419e+00
2.351134250923184954e+00
2.351134250923184954e+00
2.357509445478682686e+00
2.357509445478682686e+00
2.357509445478682686e+00
2.329196081423383191e+00
2.329196081423383191e+00
2.296195074312570750e+00
2.296195074312570750e+00
2.282319650868251504e+00
2.282319650868251504e+00
2.321695852534562121e+00
2.321695852534562121e+00
2.311195532090212890e+00
2.311195532090212890e+00
2.244631000701926116e+00
2.244631000701926116e+00
2.221567796868801015e+00
2.221567796868801015e+00
2.271631824701681346e+00
2.271631824701681346e+00
2.271631824701681346e+00
2.177503952146977007e+00
2.177503952146977007e+00
2.077563402203436382e+00
2.077563402203436382e+00
2.449762260811182202e+00
2.449762260811182202e+00
2.300882717368083696e+00
2.300882717368083696e+00
2.161753471480452937e+00
2.161753471480452937e+00
2.156128299813837135e+00
2.156128299813837135e+00
2.155190771202734279e+00
2.155190771202734279e+00
2.157815851313821920e+00
2.157815851313821920e+00
2.157815851313821920e+00
2.139065279091769245e+00
2.139065279091769245e+00
2.242568437757499922e+00
2.242568437757499922e+00
2.208254890591143660e+00
2.208254890591143660e+00
2.252318735312967224e+00
2.252318735312967224e+00
2.300507705923642732e+00
2.300507705923642732e+00
2.363884640034180418e+00
2.363884640034180418e+00
2.236568254646443155e+00
2.236568254646443155e+00
2.317945738090151586e+00
2.317945738090151586e+00
2.317945738090151586e+00
2.697644825586718476e+00
2.697644825586718476e+00
2.424448988311410869e+00
2.424448988311410869e+00
2.316820703756828248e+00
2.316820703756828248e+00
2.277069490646077110e+00
2.277069490646077110e+00
2.245756035035248566e+00
2.245756035035248566e+00
2.236568254646443155e+00
2.236568254646443155e+00
2.200942167424543072e+00
2.200942167424543072e+00
2.290757408368175430e+00
2.290757408368175430e+00
2.290757408368175430e+00
2.114127018036439321e+00
2.114127018036439321e+00
2.102314157536546269e+00
2.102314157536546269e+00
2.122752281258583285e+00
2.122752281258583285e+00
2.138502761925107798e+00
2.138502761925107798e+00
2.041187292092654371e+00
2.041187292092654371e+00
2.236943266090884119e+00
2.236943266090884119e+00
2.480325693533127485e+00
2.480325693533127485e+00
2.326758507034516477e+00
2.326758507034516477e+00
2.355259376812036454e+00
2.355259376812036454e+00
2.367822260200811879e+00
2.367822260200811879e+00
2.374572466200750576e+00
2.374572466200750576e+00
2.401198278756065729e+00
2.399323221533860018e+00
2.399323221533860018e+00
2.387885372478407930e+00
2.387885372478407930e+00
2.221755302591021497e+00
2.221755302591021497e+00
2.191379375591296252e+00
2.191379375591296252e+00
2.240693380535294654e+00
2.240693380535294654e+00
2.240693380535294654e+00
2.211254982146671821e+00
2.211254982146671821e+00
2.129502487258521981e+00
2.129502487258521981e+00
2.426511551255836618e+00
2.426511551255836618e+00
2.452949858088931290e+00
2.452949858088931290e+00
2.335008758812219920e+00
2.335008758812219920e+00
2.352071779534287366e+00
2.352071779534287366e+00
2.300507705923642732e+00
2.300507705923642732e+00
2.254193792535172935e+00
2.254193792535172935e+00
2.249131138035218136e+00
2.249131138035218136e+00
2.312320566423536228e+00
2.312320566423536228e+00
2.312320566423536228e+00
2.262631550035096417e+00
2.262631550035096417e+00
2.182941618091372327e+00
2.182941618091372327e+00
2.165503585924863472e+00
2.165503585924863472e+00
2.214067567979979945e+00
2.214067567979979945e+00
2.127627430036317158e+00
2.127627430036317158e+00
2.116002075258644588e+00
2.116002075258644588e+00
2.535827387310404024e+00
2.535827387310404024e+00
2.371759880367442896e+00
2.371759880367442896e+00
2.280257087923826198e+00
2.280257087923826198e+00
2.280257087923826198e+00
2.292257454145939732e+00
2.292257454145939732e+00
2.278007019257179522e+00
2.278007019257179522e+00
2.276694479201635701e+00
2.276694479201635701e+00
2.272756859035004684e+00
2.272756859035004684e+00
2.380760155034028269e+00
2.380760155034028269e+00
2.252506241035188150e+00
2.252506241035188150e+00
2.221942808313242423e+00
2.221942808313242423e+00
2.198879604480116878e+00
2.198879604480116878e+00
2.198879604480116878e+00
2.236568254646443155e+00
2.236568254646443155e+00
2.099126560258797181e+00
2.099126560258797181e+00
2.192129398480178182e+00
2.192129398480178182e+00
2.523076998199408116e+00
2.523076998199408116e+00
2.278007019257179522e+00
2.278007019257179522e+00
2.243318460646382295e+00
2.243318460646382295e+00
2.245943540757469048e+00
2.245943540757469048e+00
2.229255531479842567e+00
2.229255531479842567e+00
2.263006561479537382e+00
2.263006561479537382e+00
2.306882900479140464e+00
2.306882900479140464e+00
2.426511551255836618e+00
2.426511551255836618e+00
2.284194708090456771e+00
2.284194708090456771e+00
2.265069124423963132e+00
2.265069124423963132e+00
2.289257362590411127e+00
2.289257362590411127e+00
2.278569536423841413e+00
2.278569536423841413e+00
2.278569536423841413e+00
2.150503128147221332e+00
2.150503128147221332e+00
2.350009216589862060e+00
2.350009216589862060e+00
2.455574938200018487e+00
2.455574938200018487e+00
2.248568620868556689e+00
2.248568620868556689e+00
2.213880062257759462e+00
2.213880062257759462e+00
2.172441297647023095e+00
2.172441297647023095e+00
2.160815942869350526e+00
2.160815942869350526e+00
2.204129764702292160e+00
2.204129764702292160e+00
2.204129764702292160e+00
2.299195165868098911e+00
2.299195165868098911e+00
2.345134067812128187e+00
2.345134067812128187e+00
2.255318826868495830e+00
2.255318826868495830e+00
2.255131321146275347e+00
2.255131321146275347e+00
2.292257454145939732e+00
2.292257454145939732e+00
2.206754844813379357e+00
2.206754844813379357e+00
2.135690176091799675e+00
2.135690176091799675e+00
2.499263771477401086e+00
2.499263771477401086e+00
2.499263771477401086e+00
2.439636951811273491e+00
2.439636951811273491e+00
2.311945554979094819e+00
2.311945554979094819e+00
2.279507065034943825e+00
2.279507065034943825e+00
2.227942991424298746e+00
2.227942991424298746e+00
2.227192968535416817e+00
2.227192968535416817e+00
2.224380382702108694e+00
2.224380382702108694e+00
2.302382763145847999e+00
2.302382763145847999e+00
2.221005279702139568e+00
2.221005279702139568e+00
2.221005279702139568e+00
2.179941526535844165e+00
2.179941526535844165e+00
2.164566057313760616e+00
2.164566057313760616e+00
2.181066560869167059e+00
2.181066560869167059e+00
2.057312784203619849e+00
2.057312784203619849e+00
2.108501846369823074e+00
2.108501846369823074e+00
2.569015900143436948e+00
2.569015900143436948e+00
2.426324045533616136e+00
2.426324045533616136e+00
2.381135166478469234e+00
2.381135166478469234e+00
2.372134891811884305e+00
2.372134891811884305e+00
2.344196539201025331e+00
2.344196539201025331e+00
2.316633198034607766e+00
2.316633198034607766e+00
2.297132602923673161e+00
2.418823816644795066e+00
2.418823816644795066e+00
2.265069124423963132e+00
2.265069124423963132e+00
2.227380474257637299e+00
2.227380474257637299e+00
2.220630268257698603e+00
2.220630268257698603e+00
2.244631000701926116e+00
2.244631000701926116e+00
2.244631000701926116e+00
2.088438734092227023e+00
2.088438734092227023e+00
2.221755302591021497e+00
2.221755302591021497e+00
2.470387890255439700e+00
2.470387890255439700e+00
2.238255806146427940e+00
2.238255806146427940e+00
2.202629718924527857e+00
2.202629718924527857e+00
2.201879696035645484e+00
2.201879696035645484e+00
2.176378917813653668e+00
2.176378917813653668e+00
2.188566789757988129e+00
2.188566789757988129e+00
2.188566789757988129e+00
2.225317911313211550e+00
2.225317911313211550e+00
2.326571001312295994e+00
2.326571001312295994e+00
2.246131046479689974e+00
2.246131046479689974e+00
2.243130954924161813e+00
2.243130954924161813e+00
2.281007110812707683e+00
2.281007110812707683e+00
2.271069307535019899e+00
2.271069307535019899e+00
2.219880245368816230e+00
2.219880245368816230e+00
2.480138187810907002e+00
2.480138187810907002e+00
2.480138187810907002e+00
2.542202581865901756e+00
2.542202581865901756e+00
2.339883907589953349e+00
2.339883907589953349e+00
2.315883175145725836e+00
2.315883175145725836e+00
2.267881710257271255e+00
2.267881710257271255e+00
2.203754753257850751e+00
2.203754753257850751e+00
2.175066377758110736e+00
2.175066377758110736e+00
2.238255806146427940e+00
2.238255806146427940e+00
2.228693014313181120e+00
2.228693014313181120e+00
2.228693014313181120e+00
2.151815668202764709e+00
2.151815668202764709e+00
2.154253242591631867e+00
2.154253242591631867e+00
2.207692373424482213e+00
2.207692373424482213e+00
2.169066194647053525e+00
2.169066194647053525e+00
2.173753837702566916e+00
2.173753837702566916e+00
2.608392101809748009e+00
2.608392101809748009e+00
2.464950224311044824e+00
2.464950224311044824e+00
2.304070314645832784e+00
2.304070314645832784e+00
2.304070314645832784e+00
2.257381389812921579e+00
2.219130222479934300e+00
2.219130222479934300e+00
2.211067476424451339e+00
2.211067476424451339e+00
2.211067476424451339e+00
2.221005279702139568e+00
2.221005279702139568e+00
2.346446607867672007e+00
2.346446607867672007e+00
2.247818597979674760e+00
2.247818597979674760e+00
2.229255531479842567e+00
2.229255531479842567e+00
2.244255989257484707e+00
2.244255989257484707e+00
2.302757774590289408e+00
2.302757774590289408e+00
2.170003723258155937e+00
2.170003723258155937e+00
2.252506241035188150e+00
2.252506241035188150e+00
2.617017365031891973e+00
2.617017365031891973e+00
2.617017365031891973e+00
2.371759880367442896e+00
2.371759880367442896e+00
2.295257545701467894e+00
2.295257545701467894e+00
2.289069856868190644e+00
2.289069856868190644e+00
2.247631092257453833e+00
2.247631092257453833e+00
2.230568071535386387e+00
2.230568071535386387e+00
2.242568437757499922e+00
2.242568437757499922e+00
2.389572923978392716e+00
2.389572923978392716e+00
2.244068483535264225e+00
2.244068483535264225e+00
2.222880336924344391e+00
2.222880336924344391e+00
2.222880336924344391e+00
2.230943082979827352e+00
2.230943082979827352e+00
2.230005554368724940e+00
2.230005554368724940e+00
2.094063905758842381e+00
2.094063905758842381e+00
2.287194799645985377e+00
2.287194799645985377e+00
2.489325968199713301e+00
2.489325968199713301e+00
2.275194433423871843e+00
2.275194433423871843e+00
2.275006927701650916e+00
2.275006927701650916e+00
2.245381023590808045e+00
2.245381023590808045e+00
2.213692556535538980e+00
2.213692556535538980e+00
2.213692556535538980e+00
2.236943266090884119e+00
2.236943266090884119e+00
2.285694753868221074e+00
2.285694753868221074e+00
2.333883724478896582e+00
2.333883724478896582e+00
2.226067934202093479e+00
2.226067934202093479e+00
2.218942716757713818e+00
2.218942716757713818e+00
2.255131321146275347e+00
2.255131321146275347e+00
2.196442030091250608e+00
2.196442030091250608e+00
2.122939786980803767e+00
2.122939786980803767e+00
2.122939786980803767e+00
2.444324594866786882e+00
2.444324594866786882e+00
2.434949308755760100e+00
2.434949308755760100e+00
2.276131962034974254e+00
2.276131962034974254e+00
2.272006836146122755e+00
2.250631183812982439e+00
2.250631183812982439e+00
2.225505417035432032e+00
2.225505417035432032e+00
2.248756126590777171e+00
2.357696951200903612e+00
2.357696951200903612e+00
2.317570726645710621e+00
2.317570726645710621e+00
2.266006653035065987e+00
2.266006653035065987e+00
2.264131595812860720e+00
2.264131595812860720e+00
2.292069948423719250e+00
2.292069948423719250e+00
2.179191503646961792e+00
2.179191503646961792e+00
2.120314706869716570e+00
2.120314706869716570e+00
2.505263954588457853e+00
2.505263954588457853e+00
2.505263954588457853e+00
2.341758964812158617e+00
2.341758964812158617e+00
2.251568712424085295e+00
2.251568712424085295e+00
2.237505783257545566e+00
2.237505783257545566e+00
2.210317453535568966e+00
2.210317453535568966e+00
2.216692648091067142e+00
2.216692648091067142e+00
2.238818323313089387e+00
2.238818323313089387e+00
2.378135074922940628e+00
2.378135074922940628e+00
2.247631092257453833e+00
2.247631092257453833e+00
2.247631092257453833e+00
2.223817865535447247e+00
2.223817865535447247e+00
2.226817957090975852e+00
2.226817957090975852e+00
2.249131138035218136e+00
2.249131138035218136e+00
2.086001159703360308e+00
2.086001159703360308e+00
2.202442213202307375e+00
2.202442213202307375e+00
2.532639790032654936e+00
2.532639790032654936e+00
2.318695760979033516e+00
2.318695760979033516e+00
2.286257271034882521e+00
2.286257271034882521e+00
2.266944181646168399e+00
2.266944181646168399e+00
2.266944181646168399e+00
2.246881069368571904e+00
2.246881069368571904e+00
2.266381664479506952e+00
2.266381664479506952e+00
2.301445234534745587e+00
2.301445234534745587e+00
2.421261391033662225e+00
2.421261391033662225e+00
2.264881618701742649e+00
2.264881618701742649e+00
2.241818414868617992e+00
2.241818414868617992e+00
2.254381298257393418e+00
2.254381298257393418e+00
2.215380108035523765e+00
2.215380108035523765e+00
2.074750816370128703e+00
2.074750816370128703e+00
2.074750816370128703e+00
2.299007660145878429e+00
2.299007660145878429e+00
2.457262489700002828e+00
2.457262489700002828e+00
2.277819513534959039e+00
2.277819513534959039e+00
2.258506424146244473e+00
2.258506424146244473e+00
2.236380748924222672e+00
2.236380748924222672e+00
2.228318002868740155e+00
2.228318002868740155e+00
2.252693746757408633e+00
2.252693746757408633e+00
2.328071047090059853e+00
2.328071047090059853e+00
2.333696218756676100e+00
2.333696218756676100e+00
2.241255897701956545e+00
2.241255897701956545e+00
2.251756218146305777e+00
2.251756218146305777e+00
2.251756218146305777e+00
2.289257362590411127e+00
2.289257362590411127e+00
2.218005188146610962e+00
2.218005188146610962e+00
2.125752372814111890e+00
2.125752372814111890e+00
2.471700430310983521e+00
2.471700430310983521e+00
2.415261207922605013e+00
2.415261207922605013e+00
2.281007110812707683e+00
2.281007110812707683e+00
2.266944181646168399e+00
2.266944181646168399e+00
2.246506057924130939e+00
2.246506057924130939e+00
2.246506057924130939e+00
2.248756126590777171e+00
2.248756126590777171e+00
2.274069399090548504e+00
2.274069399090548504e+00
2.393510544145024177e+00
2.393510544145024177e+00
2.297132602923673161e+00
2.297132602923673161e+00
2.237693288979766049e+00
2.237693288979766049e+00
2.219317728202154782e+00
2.219317728202154782e+00
2.238630817590868904e+00
2.238630817590868904e+00
2.108876857814264483e+00
2.108876857814264483e+00
2.108876857814264483e+00
2.110001892147587377e+00
2.110001892147587377e+00
2.514639240699484635e+00
2.514639240699484635e+00
2.319633289590136371e+00
2.319633289590136371e+00
2.249318643757439062e+00
2.249318643757439062e+00
2.241068391979735619e+00
2.241068391979735619e+00
2.218755211035493335e+00
2.218755211035493335e+00
2.237318277535325084e+00
2.237318277535325084e+00
2.254756309701834383e+00
2.254756309701834383e+00
2.254756309701834383e+00
2.403823358867152926e+00
2.403823358867152926e+00
2.271256813257240381e+00
2.271256813257240381e+00
2.248381115146336207e+00
2.248381115146336207e+00
2.260381481368449741e+00
2.260381481368449741e+00
2.278757042146061895e+00
2.278757042146061895e+00
2.122002258369701355e+00
2.122002258369701355e+00
2.251943723868526259e+00
2.251943723868526259e+00
2.507139011810663121e+00
2.507139011810663121e+00
2.507139011810663121e+00
2.297882625812555535e+00
2.297882625812555535e+00
2.277256996368297592e+00
2.277256996368297592e+00
2.263194067201757864e+00
2.263194067201757864e+00
2.243505966368602778e+00
2.243505966368602778e+00
2.262256538590655452e+00
2.262256538590655452e+00
2.305195348979155678e+00
2.385260292367321178e+00
2.385260292367321178e+00
2.218380199591051927e+00
2.218380199591051927e+00
2.162691000091555793e+00
2.162691000091555793e+00
2.170566240424817828e+00
2.170566240424817828e+00
2.136815210425123013e+00
2.136815210425123013e+00
2.055062715536973172e+00
2.055062715536973172e+00
2.330696127201147494e+00
2.330696127201147494e+00
2.330696127201147494e+00
2.447887203588976490e+00
2.447887203588976490e+00
2.315508163701284872e+00
2.315508163701284872e+00
2.330133610034486047e+00
2.330133610034486047e+00
2.331071138645588459e+00
2.331071138645588459e+00
2.334821253089998994e+00
2.334821253089998994e+00
2.349821710867641578e+00
2.349821710867641578e+00
2.420698873867000778e+00
2.420698873867000778e+00
2.372884914700766235e+00
2.372884914700766235e+00
2.372884914700766235e+00
2.264694112979522167e+00
2.264694112979522167e+00
2.233943174535355514e+00
2.233943174535355514e+00
2.259068941312906365e+00
2.259068941312906365e+00
2.166441114535965884e+00
2.166441114535965884e+00
2.109251869258705447e+00
2.109251869258705447e+00
2.462700155644398592e+00
2.462700155644398592e+00
2.321508346812341639e+00
2.321508346812341639e+00
2.215192602313302839e+00
2.215192602313302839e+00
2.215192602313302839e+00
2.212380016479995160e+00
2.212380016479995160e+00
2.197379558702353020e+00
2.197379558702353020e+00
2.232068117313150690e+00
2.232068117313150690e+00
2.262256538590655452e+00
2.262256538590655452e+00
2.391822992645039392e+00
2.391822992645039392e+00
2.284007202368236289e+00
2.284007202368236289e+00
2.262256538590655452e+00
2.262256538590655452e+00
2.260568987090670667e+00
2.260568987090670667e+00
2.260568987090670667e+00
2.287757316812646824e+00
2.287757316812646824e+00
2.138315256202887316e+00
2.138315256202887316e+00
2.169253700369274007e+00
2.169253700369274007e+00
2.524202032532731454e+00
2.524202032532731454e+00
2.307445417645802355e+00
2.307445417645802355e+00
2.242755943479720404e+00
2.242755943479720404e+00
2.247443586535233351e+00
2.247443586535233351e+00
2.240318369090853690e+00
2.240318369090853690e+00
2.244068483535264225e+00
2.244068483535264225e+00
2.244068483535264225e+00
2.231318094424268317e+00
2.231318094424268317e+00
2.371384868923001932e+00
2.371384868923001932e+00
2.203192236091189304e+00
2.203192236091189304e+00
2.196067018646809643e+00
2.196067018646809643e+00
2.198879604480116878e+00
2.198879604480116878e+00
2.206942350535599839e+00
2.206942350535599839e+00
2.086938688314462720e+00
2.086938688314462720e+00
2.281944639423810539e+00
2.281944639423810539e+00
2.281944639423810539e+00
2.534889858699301168e+00
2.534889858699301168e+00
2.331821161534470832e+00
2.331821161534470832e+00
2.323383404034546906e+00
2.323383404034546906e+00
2.299007660145878429e+00
2.299007660145878429e+00
2.271631824701681346e+00
2.271631824701681346e+00
2.291882442701498768e+00
2.291882442701498768e+00
2.391635486922818910e+00
2.391635486922818910e+00
2.411136082033753514e+00
2.411136082033753514e+00
2.411136082033753514e+00
2.255881344035157721e+00
2.255881344035157721e+00
2.240130863368633207e+00
2.240130863368633207e+00
2.275006927701650916e+00
2.275006927701650916e+00
2.224380382702108694e+00
2.224380382702108694e+00
2.129502487258521981e+00
2.129502487258521981e+00
2.410386059144871140e+00
2.410386059144871140e+00
2.401010773033844803e+00
2.401010773033844803e+00
2.245568529313028083e+00
2.245568529313028083e+00
2.245568529313028083e+00
2.232818140202032620e+00
2.232818140202032620e+00
2.217067659535508550e+00
2.217067659535508550e+00
2.215005096591082356e+00
2.215005096591082356e+00
2.248006103701895242e+00
2.248006103701895242e+00
2.342883999145481511e+00
2.342883999145481511e+00
2.299945188756981285e+00
2.299945188756981285e+00
2.241068391979735619e+00
2.241068391979735619e+00
2.234505691702016961e+00
2.234505691702016961e+00
2.234505691702016961e+00
2.259818964201788294e+00
2.259818964201788294e+00
2.145627979369487459e+00
2.145627979369487459e+00
2.102689168980987233e+00
2.102689168980987233e+00
2.541827570421460791e+00
2.541827570421460791e+00
2.342321481978820064e+00
2.342321481978820064e+00
2.251193700979644330e+00
2.251193700979644330e+00
2.241443403424177028e+00
2.241443403424177028e+00
2.217817682424390480e+00
2.217817682424390480e+00
2.221567796868801015e+00
2.221567796868801015e+00
2.221567796868801015e+00
2.242755943479720404e+00
2.381697683645130681e+00
2.381697683645130681e+00
2.235255714590899334e+00
2.235255714590899334e+00
2.208817407757805107e+00
2.208817407757805107e+00
2.209004913480026033e+00
2.209004913480026033e+00
2.238818323313089387e+00
2.238818323313089387e+00
2.068563127536851454e+00
2.068563127536851454e+00
2.166816125980407293e+00
2.166816125980407293e+00
2.166816125980407293e+00
2.514264229255043226e+00
2.514264229255043226e+00
2.324883449812311209e+00
2.324883449812311209e+00
2.292257454145939732e+00
2.292257454145939732e+00
2.307070406201360946e+00
2.307070406201360946e+00
2.303320291756950855e+00
2.303320291756950855e+00
2.335758781701101849e+00
2.335758781701101849e+00
2.355634388256477418e+00
2.355634388256477418e+00
2.458200018311105683e+00
2.458200018311105683e+00
2.458200018311105683e+00
2.282882168034912951e+00
2.282882168034912951e+00
2.254381298257393418e+00
2.254381298257393418e+00
2.263194067201757864e+00
2.263194067201757864e+00
2.224567888424329176e+00
2.224567888424329176e+00
2.091438825647755628e+00
2.091438825647755628e+00
2.317008209479048730e+00
2.317008209479048730e+00
2.463637684255501004e+00
2.463637684255501004e+00
2.272756859035004684e+00
2.272756859035004684e+00
2.272756859035004684e+00
2.251943723868526259e+00
2.251943723868526259e+00
2.229818048646504014e+00
2.229818048646504014e+00
2.209192419202246516e+00
2.209192419202246516e+00
2.299007660145878429e+00
2.299007660145878429e+00
2.345321573534348669e+00
2.345321573534348669e+00
2.344571550645466296e+00
2.344571550645466296e+00
2.195504501480147752e+00
2.195504501480147752e+00
2.179754020813623683e+00
2.179754020813623683e+00
2.179754020813623683e+00
2.213505050813318054e+00
2.213505050813318054e+00
2.142627887813959298e+00
2.142627887813959298e+00
2.068563127536851454e+00
2.068563127536851454e+00
2.418636310922574584e+00
2.418636310922574584e+00
2.350946745200964472e+00
2.350946745200964472e+00
2.222880336924344391e+00
2.222880336924344391e+00
2.229068025757622085e+00
2.229068025757622085e+00
2.212942533646656607e+00
2.212942533646656607e+00
2.224005371257667729e+00
2.224005371257667729e+00
2.252318735312967224e+00
2.252318735312967224e+00
2.371947386089663379e+00
2.371947386089663379e+00
2.371947386089663379e+00
2.313445600756859122e+00
2.313445600756859122e+00
2.284194708090456771e+00
2.284194708090456771e+00
2.302757774590289408e+00
2.302757774590289408e+00
2.356759422589800756e+00
2.356759422589800756e+00
2.208629902035584625e+00
2.208629902035584625e+00
2.179191503646961792e+00
2.179191503646961792e+00
2.560765648365733949e+00
2.560765648365733949e+00
2.343259010589922919e+00
2.343259010589922919e+00
2.256443861201819168e+00
2.256443861201819168e+00
2.256443861201819168e+00
2.250443678090761956e+00
2.250443678090761956e+00
2.227005462813196335e+00
2.227005462813196335e+00
2.251006195257423848e+00
2.251006195257423848e+00
2.273319376201666131e+00
2.273319376201666131e+00
2.427636585589159957e+00
2.427636585589159957e+00
2.283632190923795324e+00
2.283632190923795324e+00
2.269944273201696561e+00
2.269944273201696561e+00
2.260381481368449741e+00
2.260381481368449741e+00
2.260381481368449741e+00
2.282132145146031021e+00
2.282132145146031021e+00
2.105126743369853504e+00
2.105126743369853504e+00
2.251381206701864812e+00
2.251381206701864812e+00
2.515576769310586602e+00
2.515576769310586602e+00
2.279507065034943825e+00
2.279507065034943825e+00
2.240880886257515137e+00
2.240880886257515137e+00
2.222317819757682944e+00
2.222317819757682944e+00
2.209004913480026033e+00
2.209004913480026033e+00
2.209004913480026033e+00
2.232818140202032620e+00
2.232818140202032620e+00
2.282882168034912951e+00
2.282882168034912951e+00
2.369697317423017147e+00
2.369697317423017147e+00
2.237880794701986531e+00
2.237880794701986531e+00
2.234505691702016961e+00
2.234505691702016961e+00
