2.290757408368175430e+00
2.290757408368175430e+00
2.286444776757103448e+00
2.286444776757103448e+00
2.286444776757103448e+00
2.286444776757103448e+00
2.284757225257118218e+00
2.284757225257118218e+00
2.284757225257118218e+00
2.285319742423780109e+00
2.285319742423780109e+00
2.285319742423780109e+00
2.285319742423780109e+00
2.284944730979339145e+00
2.284944730979339145e+00
2.284944730979339145e+00
2.332008667256691314e+00
2.332008667256691314e+00
2.332008667256691314e+00
2.263381572923978347e+00
2.263381572923978347e+00
2.263381572923978347e+00
2.243318460646382295e+00
2.243318460646382295e+00
2.243318460646382295e+00
2.243318460646382295e+00
2.228693014313181120e+00
2.228693014313181120e+00
2.228693014313181120e+00
2.235818231757560781e+00
2.235818231757560781e+00
2.235818231757560781e+00
2.158190862758262885e+00
2.158190862758262885e+00
2.158190862758262885e+00
2.158190862758262885e+00
2.237880794701986531e+00
2.237880794701986531e+00
2.237880794701986531e+00
2.392198004089480357e+00
2.392198004089480357e+00
2.392198004089480357e+00
2.329196081423383191e+00
2.329196081423383191e+00
2.329196081423383191e+00
2.329196081423383191e+00
2.302570268868068482e+00
2.302570268868068482e+00
2.302570268868068482e+00
2.295820062868129341e+00
2.295820062868129341e+00
2.295820062868129341e+00
2.295820062868129341e+00
2.286444776757103448e+00
2.286444776757103448e+00
2.286444776757103448e+00
2.285319742423780109e+00
2.285319742423780109e+00
2.285319742423780109e+00
2.304445326090273749e+00
2.304445326090273749e+00
2.304445326090273749e+00
2.304445326090273749e+00
2.334446241645558029e+00
2.334446241645558029e+00
2.334446241645558029e+00
2.279319559312723342e+00
2.279319559312723342e+00
2.279319559312723342e+00
2.279319559312723342e+00
2.256818872646260132e+00
2.256818872646260132e+00
2.256818872646260132e+00
2.244255989257484707e+00
2.244255989257484707e+00
2.244255989257484707e+00
2.217442670979949515e+00
2.217442670979949515e+00
2.217442670979949515e+00
2.217442670979949515e+00
2.136440198980682048e+00
2.136440198980682048e+00
2.136440198980682048e+00
2.294320017090365038e+00
2.294320017090365038e+00
2.294320017090365038e+00
2.365572191534165203e+00
2.365572191534165203e+00
2.365572191534165203e+00
2.365572191534165203e+00
2.297882625812555535e+00
2.297882625812555535e+00
2.282882168034912951e+00
2.282882168034912951e+00
2.282882168034912951e+00
2.279882076479384789e+00
2.279882076479384789e+00
2.279882076479384789e+00
2.279882076479384789e+00
2.274256904812768987e+00
2.274256904812768987e+00
2.274256904812768987e+00
2.283069673757133433e+00
2.283069673757133433e+00
2.283069673757133433e+00
2.330133610034486047e+00
2.330133610034486047e+00
2.330133610034486047e+00
2.330133610034486047e+00
2.341383953367717208e+00
2.341383953367717208e+00
2.341383953367717208e+00
2.296945097201452679e+00
2.296945097201452679e+00
2.296945097201452679e+00
2.265069124423963132e+00
2.265069124423963132e+00
2.265069124423963132e+00
2.265069124423963132e+00
2.259631458479567812e+00
2.259631458479567812e+00
2.259631458479567812e+00
2.205817316202276945e+00
2.205817316202276945e+00
2.205817316202276945e+00
2.143002899258400262e+00
2.143002899258400262e+00
2.143002899258400262e+00
2.143002899258400262e+00
2.357509445478682686e+00
2.357509445478682686e+00
2.357509445478682686e+00
2.332571184423352761e+00
2.332571184423352761e+00
2.332571184423352761e+00
2.281382122257148648e+00
2.281382122257148648e+00
2.281382122257148648e+00
2.287007293923764895e+00
2.287007293923764895e+00
2.287007293923764895e+00
2.287007293923764895e+00
2.287194799645985377e+00
2.287194799645985377e+00
2.287194799645985377e+00
2.259443952757347329e+00
2.259443952757347329e+00
2.259443952757347329e+00
2.306695394756919981e+00
2.306695394756919981e+00
2.306695394756919981e+00
2.306695394756919981e+00
2.349071687978759204e+00
2.349071687978759204e+00
2.349071687978759204e+00
2.310445509201330516e+00
2.310445509201330516e+00
2.310445509201330516e+00
2.278944547868282378e+00
2.278944547868282378e+00
2.278944547868282378e+00
2.259256447035126847e+00
2.259256447035126847e+00
2.259256447035126847e+00
2.259256447035126847e+00
2.233380657368694511e+00
2.233380657368694511e+00
2.233380657368694511e+00
2.164003540147099169e+00
2.164003540147099169e+00
2.164003540147099169e+00
2.204879787591174090e+00
2.204879787591174090e+00
2.204879787591174090e+00
2.204879787591174090e+00
2.416948759422589799e+00
2.416948759422589799e+00
2.416948759422589799e+00
2.344946562089907705e+00
2.344946562089907705e+00
2.344946562089907705e+00
2.295070039979247412e+00
2.295070039979247412e+00
2.295070039979247412e+00
2.295070039979247412e+00
2.284944730979339145e+00
2.284944730979339145e+00
2.284944730979339145e+00
2.275569444868312807e+00
2.275569444868312807e+00
2.275569444868312807e+00
2.276506973479415219e+00
2.276506973479415219e+00
2.276506973479415219e+00
2.276506973479415219e+00
2.290757408368175430e+00
2.290757408368175430e+00
2.290757408368175430e+00
2.318695760979033516e+00
2.318695760979033516e+00
2.318695760979033516e+00
2.259256447035126847e+00
2.259256447035126847e+00
2.259256447035126847e+00
2.259256447035126847e+00
2.250256172368541474e+00
2.250256172368541474e+00
2.250256172368541474e+00
2.231880611590930208e+00
2.231880611590930208e+00
2.231880611590930208e+00
2.228693014313181120e+00
2.228693014313181120e+00
2.228693014313181120e+00
2.228693014313181120e+00
2.168878688924833043e+00
2.168878688924833043e+00
2.168878688924833043e+00
2.274444410534989469e+00
2.274444410534989469e+00
2.274444410534989469e+00
2.392010498367259874e+00
2.392010498367259874e+00
2.392010498367259874e+00
2.392010498367259874e+00
2.324508438367870244e+00
2.324508438367870244e+00
2.324508438367870244e+00
2.308382946256904766e+00
2.308382946256904766e+00
2.308382946256904766e+00
2.301070223090304623e+00
2.301070223090304623e+00
2.301070223090304623e+00
2.301070223090304623e+00
2.288132328257088233e+00
2.288132328257088233e+00
2.288132328257088233e+00
2.295070039979247412e+00
2.295070039979247412e+00
2.295070039979247412e+00
2.328071047090059853e+00
2.328071047090059853e+00
2.328071047090059853e+00
2.328071047090059853e+00
2.337258827478866152e+00
2.337258827478866152e+00
2.337258827478866152e+00
2.275381939146092325e+00
2.275381939146092325e+00
2.275381939146092325e+00
2.237505783257545566e+00
2.237505783257545566e+00
2.237505783257545566e+00
2.237505783257545566e+00
2.234880703146458369e+00
2.234880703146458369e+00
2.234880703146458369e+00
2.205817316202276945e+00
2.205817316202276945e+00
2.205817316202276945e+00
2.137377727591784460e+00
2.137377727591784460e+00
2.137377727591784460e+00
2.137377727591784460e+00
2.323570909756767389e+00
2.323570909756767389e+00
2.323570909756767389e+00
2.344759056367687222e+00
2.344759056367687222e+00
2.344759056367687222e+00
2.288694845423749680e+00
2.288694845423749680e+00
2.288694845423749680e+00
2.288694845423749680e+00
2.285507248146000592e+00
2.285507248146000592e+00
2.285507248146000592e+00
2.289257362590411127e+00
2.289257362590411127e+00
2.289257362590411127e+00
2.292069948423719250e+00
2.292069948423719250e+00
2.292069948423719250e+00
2.292069948423719250e+00
2.304820337534714714e+00
2.304820337534714714e+00
2.304820337534714714e+00
2.360509537034211291e+00
2.360509537034211291e+00
2.360509537034211291e+00
2.360509537034211291e+00
2.337258827478866152e+00
2.337258827478866152e+00
2.337258827478866152e+00
2.282132145146031021e+00
2.282132145146031021e+00
2.282132145146031021e+00
2.239380840479750834e+00
2.239380840479750834e+00
2.239380840479750834e+00
2.239380840479750834e+00
2.238255806146427940e+00
2.238255806146427940e+00
2.238255806146427940e+00
2.175628894924771739e+00
2.175628894924771739e+00
2.175628894924771739e+00
2.150690633869442259e+00
2.150690633869442259e+00
2.150690633869442259e+00
2.150690633869442259e+00
2.367634754478591397e+00
2.367634754478591397e+00
2.367634754478591397e+00
2.320570818201239227e+00
2.320570818201239227e+00
2.320570818201239227e+00
2.279319559312723342e+00
2.279319559312723342e+00
2.279319559312723342e+00
2.279319559312723342e+00
2.289257362590411127e+00
2.289257362590411127e+00
2.289257362590411127e+00
2.287944822534867306e+00
2.287944822534867306e+00
2.287944822534867306e+00
2.291132419812616394e+00
2.291132419812616394e+00
2.291132419812616394e+00
2.291132419812616394e+00
2.300507705923642732e+00
2.300507705923642732e+00
2.300507705923642732e+00
2.347384136478774419e+00
2.347384136478774419e+00
2.347384136478774419e+00
2.273319376201666131e+00
2.273319376201666131e+00
2.273319376201666131e+00
2.273319376201666131e+00
2.247256080813012868e+00
2.247256080813012868e+00
2.247256080813012868e+00
2.225880428479872997e+00
2.225880428479872997e+00
2.225880428479872997e+00
2.231505600146489243e+00
2.231505600146489243e+00
2.231505600146489243e+00
2.231505600146489243e+00
2.146002990813928868e+00
2.146002990813928868e+00
2.146002990813928868e+00
2.221567796868801015e+00
2.221567796868801015e+00
2.221567796868801015e+00
2.388822901089510786e+00
2.388822901089510786e+00
2.388822901089510786e+00
2.388822901089510786e+00
2.327508529923398850e+00
2.327508529923398850e+00
2.327508529923398850e+00
2.311195532090212890e+00
2.311195532090212890e+00
2.311195532090212890e+00
2.311195532090212890e+00
2.319633289590136371e+00
2.319633289590136371e+00
2.319633289590136371e+00
2.308195440534684284e+00
2.308195440534684284e+00
2.308195440534684284e+00
2.304820337534714714e+00
2.304820337534714714e+00
2.304820337534714714e+00
2.323758415478988315e+00
2.323758415478988315e+00
2.323758415478988315e+00
2.323758415478988315e+00
2.356759422589800756e+00
2.356759422589800756e+00
2.356759422589800756e+00
2.293007477034821662e+00
2.293007477034821662e+00
2.293007477034821662e+00
2.293007477034821662e+00
2.263006561479537382e+00
2.263006561479537382e+00
2.263006561479537382e+00
2.248193609424115724e+00
2.248193609424115724e+00
2.248193609424115724e+00
2.230755577257606870e+00
2.230755577257606870e+00
2.230755577257606870e+00
2.230755577257606870e+00
2.146753013702810797e+00
2.146753013702810797e+00
2.146753013702810797e+00
2.282507156590471986e+00
2.282507156590471986e+00
2.282507156590471986e+00
2.358259468367565059e+00
2.358259468367565059e+00
2.358259468367565059e+00
2.358259468367565059e+00
2.289257362590411127e+00
2.289257362590411127e+00
2.289257362590411127e+00
2.278944547868282378e+00
2.278944547868282378e+00
2.278944547868282378e+00
2.284007202368236289e+00
2.284007202368236289e+00
2.284007202368236289e+00
2.285507248146000592e+00
2.285507248146000592e+00
2.285507248146000592e+00
2.285507248146000592e+00
2.298445142979216982e+00
2.298445142979216982e+00
2.298445142979216982e+00
2.327508529923398850e+00
2.327508529923398850e+00
2.327508529923398850e+00
2.332758690145573244e+00
2.332758690145573244e+00
2.332758690145573244e+00
2.332758690145573244e+00
2.294695028534806447e+00
2.294695028534806447e+00
2.294695028534806447e+00
2.260006469924008776e+00
2.260006469924008776e+00
2.260006469924008776e+00
2.246506057924130939e+00
2.246506057924130939e+00
2.246506057924130939e+00
2.246506057924130939e+00
2.205629810480056463e+00
2.205629810480056463e+00
2.205629810480056463e+00
2.140940336313974068e+00
2.140940336313974068e+00
2.140940336313974068e+00
2.351134250923184954e+00
2.351134250923184954e+00
2.351134250923184954e+00
2.351134250923184954e+00
2.339883907589953349e+00
2.339883907589953349e+00
2.339883907589953349e+00
2.291132419812616394e+00
2.291132419812616394e+00
2.291132419812616394e+00
2.287194799645985377e+00
2.287194799645985377e+00
2.287194799645985377e+00
2.287194799645985377e+00
2.278007019257179522e+00
2.278007019257179522e+00
2.278007019257179522e+00
2.273131870479445649e+00
2.273131870479445649e+00
2.273131870479445649e+00
2.273131870479445649e+00
2.284007202368236289e+00
2.284007202368236289e+00
2.284007202368236289e+00
2.341008941923276243e+00
2.341008941923276243e+00
2.341008941923276243e+00
2.304070314645832784e+00
2.304070314645832784e+00
2.304070314645832784e+00
2.304070314645832784e+00
2.272194341868343237e+00
2.272194341868343237e+00
2.272194341868343237e+00
2.244443494979705633e+00
2.244443494979705633e+00
2.244443494979705633e+00
2.257006378368480615e+00
2.257006378368480615e+00
2.257006378368480615e+00
2.257006378368480615e+00
2.174878872035889810e+00
2.174878872035889810e+00
2.174878872035889810e+00
2.176378917813653668e+00
2.176378917813653668e+00
2.176378917813653668e+00
2.374572466200750576e+00
2.374572466200750576e+00
2.374572466200750576e+00
2.374572466200750576e+00
2.318508255256813033e+00
2.318508255256813033e+00
2.318508255256813033e+00
2.274256904812768987e+00
2.274256904812768987e+00
2.274256904812768987e+00
2.284382213812677254e+00
2.284382213812677254e+00
2.284382213812677254e+00
2.284382213812677254e+00
2.278007019257179522e+00
2.278007019257179522e+00
2.278007019257179522e+00
2.273506881923887057e+00
2.273506881923887057e+00
2.273506881923887057e+00
2.287007293923764895e+00
2.287007293923764895e+00
2.287007293923764895e+00
2.287007293923764895e+00
2.349071687978759204e+00
2.349071687978759204e+00
2.349071687978759204e+00
2.289819879757073018e+00
2.289819879757073018e+00
2.289819879757073018e+00
2.265256630146183614e+00
2.265256630146183614e+00
2.265256630146183614e+00
2.265256630146183614e+00
2.263006561479537382e+00
2.263006561479537382e+00
2.263006561479537382e+00
2.280819605090487201e+00
2.280819605090487201e+00
2.280819605090487201e+00
2.280819605090487201e+00
2.195316995757927270e+00
2.195316995757927270e+00
2.195316995757927270e+00
2.279132053590502860e+00
2.279132053590502860e+00
2.279132053590502860e+00
2.391260475478377501e+00
2.391260475478377501e+00
2.391260475478377501e+00
2.391260475478377501e+00
2.313258095034638639e+00
2.313258095034638639e+00
2.313258095034638639e+00
2.281944639423810539e+00
2.281944639423810539e+00
2.281944639423810539e+00
2.278194524979400004e+00
2.278194524979400004e+00
2.278194524979400004e+00
2.278194524979400004e+00
2.265819147312845505e+00
2.265819147312845505e+00
2.265819147312845505e+00
2.271256813257240381e+00
2.271256813257240381e+00
2.271256813257240381e+00
2.300695211645863214e+00
2.300695211645863214e+00
2.300695211645863214e+00
2.300695211645863214e+00
2.316820703756828248e+00
2.316820703756828248e+00
2.316820703756828248e+00
2.257568895535142062e+00
2.257568895535142062e+00
2.257568895535142062e+00
2.225505417035432032e+00
2.225505417035432032e+00
2.225505417035432032e+00
2.225505417035432032e+00
2.228130497146519229e+00
2.228130497146519229e+00
2.228130497146519229e+00
2.206379833368938392e+00
2.206379833368938392e+00
2.206379833368938392e+00
2.206379833368938392e+00
2.143565416425061709e+00
2.143565416425061709e+00
2.143565416425061709e+00
2.329008575701162709e+00
2.329008575701162709e+00
2.329008575701162709e+00
2.362009582811975594e+00
2.362009582811975594e+00
2.362009582811975594e+00
2.362009582811975594e+00
2.307070406201360946e+00
2.307070406201360946e+00
2.307070406201360946e+00
2.309695486312448587e+00
2.309695486312448587e+00
2.309695486312448587e+00
2.311008026367992407e+00
2.311008026367992407e+00
2.311008026367992407e+00
2.311008026367992407e+00
2.297507614368114126e+00
2.297507614368114126e+00
2.297507614368114126e+00
2.297507614368114126e+00
2.297507614368114126e+00
2.297507614368114126e+00
2.336696310312204705e+00
2.336696310312204705e+00
2.336696310312204705e+00
2.336696310312204705e+00
2.321695852534562121e+00
2.321695852534562121e+00
2.321695852534562121e+00
2.283444685201574842e+00
2.283444685201574842e+00
2.283444685201574842e+00
2.257943906979583026e+00
2.257943906979583026e+00
2.257943906979583026e+00
2.257943906979583026e+00
2.262256538590655452e+00
2.262256538590655452e+00
2.262256538590655452e+00
2.194004455702383449e+00
2.194004455702383449e+00
2.194004455702383449e+00
2.144690450758385047e+00
2.144690450758385047e+00
2.144690450758385047e+00
2.144690450758385047e+00
2.362572099978637485e+00
2.362572099978637485e+00
2.362572099978637485e+00
2.328821069978942226e+00
2.328821069978942226e+00
2.328821069978942226e+00
2.328821069978942226e+00
2.285882259590441556e+00
2.285882259590441556e+00
2.285882259590441556e+00
2.281569627979369130e+00
2.281569627979369130e+00
2.281569627979369130e+00
2.270131778923917043e+00
2.270131778923917043e+00
2.270131778923917043e+00
2.270131778923917043e+00
2.265256630146183614e+00
2.265256630146183614e+00
2.265256630146183614e+00
2.278569536423841413e+00
2.278569536423841413e+00
2.278569536423841413e+00
2.344759056367687222e+00
2.344759056367687222e+00
2.344759056367687222e+00
2.344759056367687222e+00
2.286444776757103448e+00
2.286444776757103448e+00
2.286444776757103448e+00
2.256068849757378203e+00
2.256068849757378203e+00
2.256068849757378203e+00
2.247443586535233351e+00
2.247443586535233351e+00
2.247443586535233351e+00
2.247443586535233351e+00
2.269006744590594149e+00
2.269006744590594149e+00
2.269006744590594149e+00
2.188566789757988129e+00
2.188566789757988129e+00
2.188566789757988129e+00
2.233943174535355514e+00
2.233943174535355514e+00
2.233943174535355514e+00
2.233943174535355514e+00
2.413761162144840711e+00
2.413761162144840711e+00
2.413761162144840711e+00
2.348134159367656792e+00
2.348134159367656792e+00
2.348134159367656792e+00
2.310070497756889552e+00
2.310070497756889552e+00
2.310070497756889552e+00
2.310070497756889552e+00
2.300320200201422249e+00
2.300320200201422249e+00
2.300320200201422249e+00
2.278569536423841413e+00
2.278569536423841413e+00
2.278569536423841413e+00
2.263569078646198829e+00
2.263569078646198829e+00
2.263569078646198829e+00
2.263569078646198829e+00
2.271631824701681346e+00
2.271631824701681346e+00
2.271631824701681346e+00
2.314570635090182460e+00
2.314570635090182460e+00
2.314570635090182460e+00
2.258318918424023991e+00
2.258318918424023991e+00
2.258318918424023991e+00
2.258318918424023991e+00
2.239193334757530351e+00
2.239193334757530351e+00
2.239193334757530351e+00
2.230755577257606870e+00
2.230755577257606870e+00
2.230755577257606870e+00
2.230755577257606870e+00
2.230755577257606870e+00
2.230755577257606870e+00
2.230755577257606870e+00
2.160440931424909561e+00
2.160440931424909561e+00
2.160440931424909561e+00
2.300507705923642732e+00
2.300507705923642732e+00
2.300507705923642732e+00
2.390885464033936536e+00
2.390885464033936536e+00
2.390885464033936536e+00
2.390885464033936536e+00
2.326008484145634547e+00
2.326008484145634547e+00
2.326008484145634547e+00
2.306507889034699499e+00
2.306507889034699499e+00
2.306507889034699499e+00
2.295632557145908859e+00
2.295632557145908859e+00
2.295632557145908859e+00
2.295632557145908859e+00
2.286819788201544412e+00
2.286819788201544412e+00
2.286819788201544412e+00
2.296945097201452679e+00
2.296945097201452679e+00
2.296945097201452679e+00
2.326946012756737403e+00
2.326946012756737403e+00
2.326946012756737403e+00
2.326946012756737403e+00
2.326383495590075512e+00
2.326383495590075512e+00
2.326383495590075512e+00
2.271631824701681346e+00
2.271631824701681346e+00
2.271631824701681346e+00
2.243130954924161813e+00
2.243130954924161813e+00
2.243130954924161813e+00
2.243130954924161813e+00
2.243318460646382295e+00
2.243318460646382295e+00
2.243318460646382295e+00
2.200192144535660699e+00
2.200192144535660699e+00
2.200192144535660699e+00
2.200192144535660699e+00
2.127439924314096675e+00
2.127439924314096675e+00
2.127439924314096675e+00
2.337446333201086635e+00
2.337446333201086635e+00
2.337446333201086635e+00
2.335946287423322332e+00
2.335946287423322332e+00
2.335946287423322332e+00
2.335946287423322332e+00
2.284944730979339145e+00
2.284944730979339145e+00
2.284944730979339145e+00
2.282694662312692468e+00
2.282694662312692468e+00
2.282694662312692468e+00
2.289257362590411127e+00
2.289257362590411127e+00
2.289257362590411127e+00
2.289257362590411127e+00
2.284569719534897736e+00
2.284569719534897736e+00
2.284569719534897736e+00
2.302382763145847999e+00
2.302382763145847999e+00
2.302382763145847999e+00
2.353196813867610704e+00
2.353196813867610704e+00
2.353196813867610704e+00
2.353196813867610704e+00
2.318508255256813033e+00
2.318508255256813033e+00
2.318508255256813033e+00
2.286819788201544412e+00
2.286819788201544412e+00
2.286819788201544412e+00
2.269569261757255596e+00
2.269569261757255596e+00
2.269569261757255596e+00
2.269569261757255596e+00
2.284569719534897736e+00
2.284569719534897736e+00
2.284569719534897736e+00
2.204317270424512643e+00
2.204317270424512643e+00
2.204317270424512643e+00
2.189129306924649576e+00
2.189129306924649576e+00
2.189129306924649576e+00
2.189129306924649576e+00
2.378510086367381593e+00
2.378510086367381593e+00
2.378510086367381593e+00
2.317195715201269657e+00
2.317195715201269657e+00
2.317195715201269657e+00
2.268256721701712220e+00
2.268256721701712220e+00
2.268256721701712220e+00
2.268256721701712220e+00
2.267319193090609808e+00
2.267319193090609808e+00
2.267319193090609808e+00
2.256631366924039650e+00
2.256631366924039650e+00
2.256631366924039650e+00
2.253256263924070080e+00
2.253256263924070080e+00
2.253256263924070080e+00
2.253256263924070080e+00
2.276319467757194737e+00
2.276319467757194737e+00
2.276319467757194737e+00
2.342133976256599581e+00
2.342133976256599581e+00
2.342133976256599581e+00
2.284944730979339145e+00
2.284944730979339145e+00
2.284944730979339145e+00
2.284944730979339145e+00
2.260381481368449741e+00
2.260381481368449741e+00
2.260381481368449741e+00
2.250256172368541474e+00
2.250256172368541474e+00
2.250256172368541474e+00
2.254943815424054865e+00
2.254943815424054865e+00
2.254943815424054865e+00
2.254943815424054865e+00
2.166628620258186366e+00
2.166628620258186366e+00
2.166628620258186366e+00
2.256256355479598685e+00
2.256256355479598685e+00
2.256256355479598685e+00
2.256256355479598685e+00
2.395198095645008962e+00
2.395198095645008962e+00
2.395198095645008962e+00
2.328446058534500818e+00
2.328446058534500818e+00
2.328446058534500818e+00
2.298445142979216982e+00
2.298445142979216982e+00
2.298445142979216982e+00
2.298445142979216982e+00
2.297695120090334608e+00
2.297695120090334608e+00
2.297695120090334608e+00
2.288319833979308715e+00
2.288319833979308715e+00
2.288319833979308715e+00
2.286069765312662039e+00
2.286069765312662039e+00
2.286069765312662039e+00
2.286069765312662039e+00
2.301445234534745587e+00
2.301445234534745587e+00
2.301445234534745587e+00
2.319070772423474924e+00
2.319070772423474924e+00
2.319070772423474924e+00
2.273881893368328022e+00
2.273881893368328022e+00
2.273881893368328022e+00
2.273881893368328022e+00
2.245756035035248566e+00
2.245756035035248566e+00
2.245756035035248566e+00
2.242380932035279439e+00
2.242380932035279439e+00
2.242380932035279439e+00
2.218192693868831444e+00
2.218192693868831444e+00
2.218192693868831444e+00
2.218192693868831444e+00
2.137940244758446351e+00
2.137940244758446351e+00
2.137940244758446351e+00
2.311008026367992407e+00
2.311008026367992407e+00
2.311008026367992407e+00
2.370072328867458111e+00
2.370072328867458111e+00
2.370072328867458111e+00
2.370072328867458111e+00
2.312695577867977192e+00
2.312695577867977192e+00
2.312695577867977192e+00
2.301632740256966070e+00
2.301632740256966070e+00
2.301632740256966070e+00
2.301632740256966070e+00
2.305945371868038052e+00
2.305945371868038052e+00
2.305945371868038052e+00
2.300132694479201767e+00
2.300132694479201767e+00
2.300132694479201767e+00
2.308382946256904766e+00
2.308382946256904766e+00
2.308382946256904766e+00
2.308382946256904766e+00
2.337258827478866152e+00
2.337258827478866152e+00
2.337258827478866152e+00
2.312320566423536228e+00
2.312320566423536228e+00
2.312320566423536228e+00
2.266381664479506952e+00
2.266381664479506952e+00
2.266381664479506952e+00
2.266381664479506952e+00
2.232818140202032620e+00
2.232818140202032620e+00
2.232818140202032620e+00
2.239943357646412725e+00
2.239943357646412725e+00
2.239943357646412725e+00
2.189879329813531950e+00
2.189879329813531950e+00
2.189879329813531950e+00
2.189879329813531950e+00
2.144502945036164565e+00
2.144502945036164565e+00
2.144502945036164565e+00
2.360134525589770327e+00
2.360134525589770327e+00
2.360134525589770327e+00
2.330508621478927012e+00
2.330508621478927012e+00
2.330508621478927012e+00
2.330508621478927012e+00
2.283257179479354360e+00
2.283257179479354360e+00
2.283257179479354360e+00
2.288319833979308715e+00
2.288319833979308715e+00
2.288319833979308715e+00
2.281944639423810539e+00
2.281944639423810539e+00
2.281944639423810539e+00
2.281944639423810539e+00
2.283257179479354360e+00
2.283257179479354360e+00
2.283257179479354360e+00
2.296195074312570750e+00
2.296195074312570750e+00
2.296195074312570750e+00
2.363322122867518971e+00
2.363322122867518971e+00
2.363322122867518971e+00
2.363322122867518971e+00
2.312695577867977192e+00
2.312695577867977192e+00
2.312695577867977192e+00
2.284944730979339145e+00
2.284944730979339145e+00
2.284944730979339145e+00
2.267881710257271255e+00
2.267881710257271255e+00
2.267881710257271255e+00
2.271256813257240381e+00
2.271256813257240381e+00
2.271256813257240381e+00
2.271256813257240381e+00
2.172066286202582130e+00
2.172066286202582130e+00
2.172066286202582130e+00
2.200192144535660699e+00
2.200192144535660699e+00
2.200192144535660699e+00
2.376447523422955843e+00
2.376447523422955843e+00
2.376447523422955843e+00
2.376447523422955843e+00
2.305570360423596643e+00
2.305570360423596643e+00
2.305570360423596643e+00
2.266569170201727434e+00
2.266569170201727434e+00
2.266569170201727434e+00
2.269569261757255596e+00
2.269569261757255596e+00
2.269569261757255596e+00
2.269569261757255596e+00
2.266381664479506952e+00
2.266381664479506952e+00
2.266381664479506952e+00
2.267506698812830290e+00
2.267506698812830290e+00
2.267506698812830290e+00
2.286444776757103448e+00
2.286444776757103448e+00
2.286444776757103448e+00
2.286444776757103448e+00
2.339321390423291458e+00
2.339321390423291458e+00
2.339321390423291458e+00
2.290757408368175430e+00
2.290757408368175430e+00
2.290757408368175430e+00
2.279319559312723342e+00
2.279319559312723342e+00
2.279319559312723342e+00
2.279319559312723342e+00
2.276131962034974254e+00
2.276131962034974254e+00
2.276131962034974254e+00
2.269944273201696561e+00
2.269944273201696561e+00
2.269944273201696561e+00
2.269944273201696561e+00
2.181629078035828950e+00
2.181629078035828950e+00
2.181629078035828950e+00
2.285694753868221074e+00
2.285694753868221074e+00
2.285694753868221074e+00
2.371009857478560967e+00
2.371009857478560967e+00
2.371009857478560967e+00
2.371009857478560967e+00
2.296757591479232197e+00
2.296757591479232197e+00
2.296757591479232197e+00
2.274631916257209951e+00
2.274631916257209951e+00
2.274631916257209951e+00
2.278007019257179522e+00
2.278007019257179522e+00
2.278007019257179522e+00
2.278007019257179522e+00
2.277256996368297592e+00
2.277256996368297592e+00
2.277256996368297592e+00
2.282507156590471986e+00
2.282507156590471986e+00
2.282507156590471986e+00
2.308007934812463802e+00
2.308007934812463802e+00
2.308007934812463802e+00
2.308007934812463802e+00
2.321320841090121156e+00
2.321320841090121156e+00
2.321320841090121156e+00
2.272756859035004684e+00
2.272756859035004684e+00
2.272756859035004684e+00
2.241443403424177028e+00
2.241443403424177028e+00
2.241443403424177028e+00
2.242005920590838475e+00
2.242005920590838475e+00
2.242005920590838475e+00
2.242005920590838475e+00
2.203942258980071234e+00
2.203942258980071234e+00
2.203942258980071234e+00
2.149378093813898438e+00
2.149378093813898438e+00
2.149378093813898438e+00
2.149378093813898438e+00
2.349446699423200169e+00
2.349446699423200169e+00
2.349446699423200169e+00
2.351134250923184954e+00
2.351134250923184954e+00
2.351134250923184954e+00
2.292444959868159771e+00
2.292444959868159771e+00
2.292444959868159771e+00
2.287007293923764895e+00
2.287007293923764895e+00
2.287007293923764895e+00
2.287007293923764895e+00
2.287757316812646824e+00
2.287757316812646824e+00
2.287757316812646824e+00
2.282132145146031021e+00
2.282132145146031021e+00
2.282132145146031021e+00
2.282132145146031021e+00
2.278944547868282378e+00
2.278944547868282378e+00
2.278944547868282378e+00
2.324883449812311209e+00
2.324883449812311209e+00
2.324883449812311209e+00
2.296382580034791232e+00
2.296382580034791232e+00
2.296382580034791232e+00
2.296382580034791232e+00
2.265256630146183614e+00
2.265256630146183614e+00
2.265256630146183614e+00
2.247443586535233351e+00
2.247443586535233351e+00
2.247443586535233351e+00
2.259068941312906365e+00
2.259068941312906365e+00
2.259068941312906365e+00
2.259068941312906365e+00
2.195316995757927270e+00
2.195316995757927270e+00
2.195316995757927270e+00
2.182754112369151844e+00
2.182754112369151844e+00
2.182754112369151844e+00
2.391260475478377501e+00
2.391260475478377501e+00
2.391260475478377501e+00
2.391260475478377501e+00
2.337258827478866152e+00
2.337258827478866152e+00
2.337258827478866152e+00
2.294320017090365038e+00
2.294320017090365038e+00
2.294320017090365038e+00
2.295445051423688376e+00
2.295445051423688376e+00
2.295445051423688376e+00
2.295445051423688376e+00
2.291319925534837321e+00
2.291319925534837321e+00
2.291319925534837321e+00
2.288694845423749680e+00
2.288694845423749680e+00
2.288694845423749680e+00
2.295820062868129341e+00
2.295820062868129341e+00
2.295820062868129341e+00
2.295820062868129341e+00
2.354696859645375007e+00
2.354696859645375007e+00
2.354696859645375007e+00
2.294507522812585520e+00
2.294507522812585520e+00
2.294507522812585520e+00
2.263194067201757864e+00
2.263194067201757864e+00
2.263194067201757864e+00
2.263194067201757864e+00
2.245943540757469048e+00
2.245943540757469048e+00
2.245943540757469048e+00
2.260006469924008776e+00
2.260006469924008776e+00
2.260006469924008776e+00
2.169628711813714972e+00
2.169628711813714972e+00
2.169628711813714972e+00
2.169628711813714972e+00
2.231505600146489243e+00
2.231505600146489243e+00
2.231505600146489243e+00
2.369322305978576182e+00
2.369322305978576182e+00
2.369322305978576182e+00
2.300320200201422249e+00
2.300320200201422249e+00
2.300320200201422249e+00
2.300320200201422249e+00
2.273694387646107540e+00
2.273694387646107540e+00
2.273694387646107540e+00
2.269006744590594149e+00
2.269006744590594149e+00
2.269006744590594149e+00
2.269006744590594149e+00
2.261506515701773079e+00
2.261506515701773079e+00
2.261506515701773079e+00
2.265819147312845505e+00
2.265819147312845505e+00
2.265819147312845505e+00
2.297882625812555535e+00
2.297882625812555535e+00
2.297882625812555535e+00
2.297882625812555535e+00
2.330133610034486047e+00
2.330133610034486047e+00
2.330133610034486047e+00
2.282319650868251504e+00
2.282319650868251504e+00
2.282319650868251504e+00
2.267319193090609808e+00
2.267319193090609808e+00
2.267319193090609808e+00
2.267319193090609808e+00
2.277632007812738557e+00
2.277632007812738557e+00
2.277632007812738557e+00
2.262631550035096417e+00
2.262631550035096417e+00
2.262631550035096417e+00
2.178816492202520827e+00
2.178816492202520827e+00
2.178816492202520827e+00
2.178816492202520827e+00
2.325633472701193583e+00
2.325633472701193583e+00
2.325633472701193583e+00
2.373634937589648164e+00
2.373634937589648164e+00
2.373634937589648164e+00
2.295070039979247412e+00
2.295070039979247412e+00
2.295070039979247412e+00
2.295070039979247412e+00
2.279132053590502860e+00
2.279132053590502860e+00
2.279132053590502860e+00
2.280819605090487201e+00
2.280819605090487201e+00
2.280819605090487201e+00
2.269756767479476078e+00
2.269756767479476078e+00
2.269756767479476078e+00
2.269756767479476078e+00
2.270881801812799416e+00
2.270881801812799416e+00
2.270881801812799416e+00
2.304445326090273749e+00
2.304445326090273749e+00
2.304445326090273749e+00
2.302945280312509890e+00
2.302945280312509890e+00
2.302945280312509890e+00
2.302945280312509890e+00
2.268819238868374111e+00
2.268819238868374111e+00
2.268819238868374111e+00
2.251943723868526259e+00
2.251943723868526259e+00
2.251943723868526259e+00
2.263194067201757864e+00
2.263194067201757864e+00
2.263194067201757864e+00
2.263194067201757864e+00
2.222505325479903426e+00
2.222505325479903426e+00
2.222505325479903426e+00
2.169628711813714972e+00
2.169628711813714972e+00
2.169628711813714972e+00
2.389385418256172233e+00
2.389385418256172233e+00
2.389385418256172233e+00
2.389385418256172233e+00
2.362384594256416559e+00
2.362384594256416559e+00
2.362384594256416559e+00
2.298070131534776017e+00
2.298070131534776017e+00
2.298070131534776017e+00
2.294695028534806447e+00
2.294695028534806447e+00
2.294695028534806447e+00
2.294695028534806447e+00
2.286069765312662039e+00
2.286069765312662039e+00
2.286069765312662039e+00
2.268444227423932702e+00
2.268444227423932702e+00
2.268444227423932702e+00
2.274631916257209951e+00
2.274631916257209951e+00
2.274631916257209951e+00
2.274631916257209951e+00
2.334071230201117064e+00
2.334071230201117064e+00
2.334071230201117064e+00
2.291694936979278285e+00
2.291694936979278285e+00
2.291694936979278285e+00
2.259443952757347329e+00
2.259443952757347329e+00
2.259443952757347329e+00
2.259443952757347329e+00
2.230380565813165905e+00
2.230380565813165905e+00
2.230380565813165905e+00
2.241443403424177028e+00
2.241443403424177028e+00
2.241443403424177028e+00
2.241443403424177028e+00
2.163628528702658205e+00
2.163628528702658205e+00
2.163628528702658205e+00
2.191566881313516735e+00
2.191566881313516735e+00
2.191566881313516735e+00
2.391822992645039392e+00
2.391822992645039392e+00
2.391822992645039392e+00
2.391822992645039392e+00
2.340071413312173831e+00
2.340071413312173831e+00
2.340071413312173831e+00
2.304257820368053267e+00
2.304257820368053267e+00
2.304257820368053267e+00
2.296570085757011714e+00
2.296570085757011714e+00
2.296570085757011714e+00
2.296570085757011714e+00
2.287007293923764895e+00
2.287007293923764895e+00
2.287007293923764895e+00
2.285507248146000592e+00
2.285507248146000592e+00
2.285507248146000592e+00
2.292257454145939732e+00
2.292257454145939732e+00
2.292257454145939732e+00
2.292257454145939732e+00
2.344384044923245813e+00
2.344384044923245813e+00
2.344384044923245813e+00
2.272944364757225166e+00
2.272944364757225166e+00
2.272944364757225166e+00
2.239005829035309869e+00
2.239005829035309869e+00
2.239005829035309869e+00
2.239005829035309869e+00
2.231880611590930208e+00
2.231880611590930208e+00
2.231880611590930208e+00
2.231130588702047834e+00
2.231130588702047834e+00
2.231130588702047834e+00
2.151628162480544670e+00
2.151628162480544670e+00
2.151628162480544670e+00
2.151628162480544670e+00
2.264319101535081202e+00
2.264319101535081202e+00
2.264319101535081202e+00
2.378322580645161111e+00
2.378322580645161111e+00
2.378322580645161111e+00
2.378322580645161111e+00
2.316633198034607766e+00
2.316633198034607766e+00
2.316633198034607766e+00
2.297132602923673161e+00
2.297132602923673161e+00
2.297132602923673161e+00
2.295632557145908859e+00
2.295632557145908859e+00
2.295632557145908859e+00
2.295632557145908859e+00
2.290757408368175430e+00
2.290757408368175430e+00
2.290757408368175430e+00
2.295820062868129341e+00
2.295820062868129341e+00
2.295820062868129341e+00
2.320008301034577336e+00
2.320008301034577336e+00
2.320008301034577336e+00
2.320008301034577336e+00
2.326946012756737403e+00
2.326946012756737403e+00
2.326946012756737403e+00
2.272944364757225166e+00
2.272944364757225166e+00
2.272944364757225166e+00
2.246693563646351421e+00
2.246693563646351421e+00
2.246693563646351421e+00
2.246693563646351421e+00
2.246506057924130939e+00
2.246506057924130939e+00
2.246506057924130939e+00
2.209942442091128445e+00
2.209942442091128445e+00
2.209942442091128445e+00
2.136065187536240639e+00
2.136065187536240639e+00
2.136065187536240639e+00
2.136065187536240639e+00
2.329008575701162709e+00
2.329008575701162709e+00
2.329008575701162709e+00
2.350196722312082542e+00
2.350196722312082542e+00
2.350196722312082542e+00
2.295070039979247412e+00
2.295070039979247412e+00
2.295070039979247412e+00
2.295070039979247412e+00
2.290382396923734465e+00
2.290382396923734465e+00
2.290382396923734465e+00
2.289257362590411127e+00
2.289257362590411127e+00
2.289257362590411127e+00
2.289257362590411127e+00
2.287007293923764895e+00
2.287007293923764895e+00
2.287007293923764895e+00
2.307070406201360946e+00
2.307070406201360946e+00
2.307070406201360946e+00
2.356946928312021239e+00
2.356946928312021239e+00
2.356946928312021239e+00
2.356946928312021239e+00
2.321883358256782603e+00
2.321883358256782603e+00
2.321883358256782603e+00
2.277069490646077110e+00
2.277069490646077110e+00
2.277069490646077110e+00
2.248193609424115724e+00
2.248193609424115724e+00
2.248193609424115724e+00
2.248193609424115724e+00
2.260568987090670667e+00
2.260568987090670667e+00
2.260568987090670667e+00
2.196067018646809643e+00
2.196067018646809643e+00
2.196067018646809643e+00
2.170753746147038310e+00
2.170753746147038310e+00
2.170753746147038310e+00
2.170753746147038310e+00
2.382072695089572090e+00
2.382072695089572090e+00
2.382072695089572090e+00
2.328258552812280335e+00
2.328258552812280335e+00
2.328258552812280335e+00
2.285882259590441556e+00
2.285882259590441556e+00
2.285882259590441556e+00
2.285882259590441556e+00
2.291507431257057803e+00
2.291507431257057803e+00
2.291507431257057803e+00
2.282882168034912951e+00
2.282882168034912951e+00
2.282882168034912951e+00
2.273506881923887057e+00
2.273506881923887057e+00
2.273506881923887057e+00
2.273506881923887057e+00
2.283444685201574842e+00
2.283444685201574842e+00
2.283444685201574842e+00
2.346259102145451525e+00
2.346259102145451525e+00
2.346259102145451525e+00
2.285694753868221074e+00
2.285694753868221074e+00
2.285694753868221074e+00
2.285694753868221074e+00
2.260756492812891150e+00
2.260756492812891150e+00
2.260756492812891150e+00
2.237880794701986531e+00
2.237880794701986531e+00
2.237880794701986531e+00
2.244068483535264225e+00
2.244068483535264225e+00
2.244068483535264225e+00
2.244068483535264225e+00
2.152565691091647082e+00
2.152565691091647082e+00
2.152565691091647082e+00
2.212005005035553751e+00
2.212005005035553751e+00
2.212005005035553751e+00
2.375322489089632505e+00
2.375322489089632505e+00
2.375322489089632505e+00
2.375322489089632505e+00
2.312883083590197675e+00
2.312883083590197675e+00
2.312883083590197675e+00
2.289069856868190644e+00
2.289069856868190644e+00
2.289069856868190644e+00
2.293382488479262626e+00
2.293382488479262626e+00
2.293382488479262626e+00
2.293382488479262626e+00
2.286632282479323930e+00
2.286632282479323930e+00
2.286632282479323930e+00
2.291694936979278285e+00
2.291694936979278285e+00
2.291694936979278285e+00
2.313633106479079604e+00
2.313633106479079604e+00
2.313633106479079604e+00
2.313633106479079604e+00
2.355071871089815971e+00
2.355071871089815971e+00
2.355071871089815971e+00
2.296007568590349823e+00
2.296007568590349823e+00
2.296007568590349823e+00
2.272381847590563719e+00
2.272381847590563719e+00
2.272381847590563719e+00
2.272381847590563719e+00
2.270881801812799416e+00
2.270881801812799416e+00
2.270881801812799416e+00
2.247068575090792386e+00
2.247068575090792386e+00
2.247068575090792386e+00
2.159878414258247670e+00
2.159878414258247670e+00
2.159878414258247670e+00
2.159878414258247670e+00
2.286257271034882521e+00
2.286257271034882521e+00
2.286257271034882521e+00
2.355821893978697901e+00
2.355821893978697901e+00
2.355821893978697901e+00
2.297132602923673161e+00
2.297132602923673161e+00
2.297132602923673161e+00
2.297132602923673161e+00
2.283632190923795324e+00
2.283632190923795324e+00
2.283632190923795324e+00
2.279694570757164307e+00
2.279694570757164307e+00
2.279694570757164307e+00
2.268444227423932702e+00
2.268444227423932702e+00
2.268444227423932702e+00
2.268444227423932702e+00
2.282694662312692468e+00
2.282694662312692468e+00
2.282694662312692468e+00
2.322445875423444495e+00
2.322445875423444495e+00
2.322445875423444495e+00
2.316258186590166801e+00
2.316258186590166801e+00
2.316258186590166801e+00
2.316258186590166801e+00
2.271069307535019899e+00
2.271069307535019899e+00
2.271069307535019899e+00
2.244068483535264225e+00
2.244068483535264225e+00
2.244068483535264225e+00
2.245756035035248566e+00
2.245756035035248566e+00
2.245756035035248566e+00
2.245756035035248566e+00
2.197754570146794428e+00
2.197754570146794428e+00
2.197754570146794428e+00
2.134752647480697263e+00
2.134752647480697263e+00
2.134752647480697263e+00
2.134752647480697263e+00
2.344759056367687222e+00
2.344759056367687222e+00
2.344759056367687222e+00
2.328446058534500818e+00
2.328446058534500818e+00
2.328446058534500818e+00
2.275569444868312807e+00
2.275569444868312807e+00
2.275569444868312807e+00
2.275569444868312807e+00
2.269944273201696561e+00
2.269944273201696561e+00
2.269944273201696561e+00
2.267881710257271255e+00
2.267881710257271255e+00
2.267881710257271255e+00
2.261319009979552597e+00
2.261319009979552597e+00
2.261319009979552597e+00
2.261319009979552597e+00
2.271819330423901828e+00
2.271819330423901828e+00
2.271819330423901828e+00
2.339696401867732423e+00
2.339696401867732423e+00
2.339696401867732423e+00
2.301070223090304623e+00
2.301070223090304623e+00
2.301070223090304623e+00
2.301070223090304623e+00
2.274819421979430434e+00
2.274819421979430434e+00
2.274819421979430434e+00
2.259443952757347329e+00
2.259443952757347329e+00
2.259443952757347329e+00
2.293007477034821662e+00
2.293007477034821662e+00
2.293007477034821662e+00
2.293007477034821662e+00
2.226067934202093479e+00
2.226067934202093479e+00
2.226067934202093479e+00
2.235255714590899334e+00
2.235255714590899334e+00
2.235255714590899334e+00
2.429886654255806189e+00
2.429886654255806189e+00
2.429886654255806189e+00
2.429886654255806189e+00
2.355259376812036454e+00
2.355259376812036454e+00
2.355259376812036454e+00
2.312695577867977192e+00
2.312695577867977192e+00
2.312695577867977192e+00
2.307445417645802355e+00
2.307445417645802355e+00
2.307445417645802355e+00
2.307445417645802355e+00
2.290007385479293500e+00
2.290007385479293500e+00
2.290007385479293500e+00
2.285132236701559627e+00
2.285132236701559627e+00
2.285132236701559627e+00
2.295257545701467894e+00
2.295257545701467894e+00
2.295257545701467894e+00
2.295257545701467894e+00
2.342133976256599581e+00
2.342133976256599581e+00
2.342133976256599581e+00
2.278382030701620931e+00
2.278382030701620931e+00
2.278382030701620931e+00
2.252318735312967224e+00
2.252318735312967224e+00
2.252318735312967224e+00
2.252318735312967224e+00
2.236755760368663637e+00
2.236755760368663637e+00
2.236755760368663637e+00
2.233568163090914993e+00
2.233568163090914993e+00
2.233568163090914993e+00
2.233568163090914993e+00
2.149753105258339403e+00
2.149753105258339403e+00
2.149753105258339403e+00
2.251943723868526259e+00
2.251943723868526259e+00
2.251943723868526259e+00
2.377760063478499664e+00
2.377760063478499664e+00
2.377760063478499664e+00
2.377760063478499664e+00
2.311945554979094819e+00
2.311945554979094819e+00
2.311945554979094819e+00
2.293007477034821662e+00
2.293007477034821662e+00
2.293007477034821662e+00
2.291132419812616394e+00
2.291132419812616394e+00
2.291132419812616394e+00
2.291132419812616394e+00
2.270506790368358452e+00
2.270506790368358452e+00
2.270506790368358452e+00
2.265069124423963132e+00
2.265069124423963132e+00
2.265069124423963132e+00
2.296945097201452679e+00
2.296945097201452679e+00
2.296945097201452679e+00
2.296945097201452679e+00
2.314945646534623425e+00
2.314945646534623425e+00
2.314945646534623425e+00
2.256256355479598685e+00
2.256256355479598685e+00
2.256256355479598685e+00
2.228130497146519229e+00
2.228130497146519229e+00
2.228130497146519229e+00
2.228130497146519229e+00
2.226442945646534444e+00
2.226442945646534444e+00
2.226442945646534444e+00
2.202629718924527857e+00
2.202629718924527857e+00
2.202629718924527857e+00
2.134377636036255854e+00
2.134377636036255854e+00
2.134377636036255854e+00
2.134377636036255854e+00
2.330883632923367976e+00
2.330883632923367976e+00
2.330883632923367976e+00
2.374947477645191540e+00
2.374947477645191540e+00
2.374947477645191540e+00
2.374947477645191540e+00
2.333883724478896582e+00
2.333883724478896582e+00
2.333883724478896582e+00
2.333883724478896582e+00
2.333883724478896582e+00
2.333883724478896582e+00
2.331821161534470832e+00
2.331821161534470832e+00
2.331821161534470832e+00
2.331821161534470832e+00
2.322070863979003530e+00
2.322070863979003530e+00
2.322070863979003530e+00
2.316258186590166801e+00
2.316258186590166801e+00
2.316258186590166801e+00
2.345884090701010116e+00
2.345884090701010116e+00
2.345884090701010116e+00
2.345884090701010116e+00
2.311758049256874337e+00
2.311758049256874337e+00
2.311758049256874337e+00
2.263381572923978347e+00
2.263381572923978347e+00
2.263381572923978347e+00
2.233755668813135031e+00
2.233755668813135031e+00
2.233755668813135031e+00
2.233755668813135031e+00
2.248006103701895242e+00
2.248006103701895242e+00
2.248006103701895242e+00
2.192316904202398664e+00
2.192316904202398664e+00
2.192316904202398664e+00
2.149565599536118921e+00
2.149565599536118921e+00
2.149565599536118921e+00
2.149565599536118921e+00
2.367822260200811879e+00
2.367822260200811879e+00
2.367822260200811879e+00
2.324320932645649762e+00
2.324320932645649762e+00
2.324320932645649762e+00
2.272381847590563719e+00
2.272381847590563719e+00
2.272381847590563719e+00
2.272381847590563719e+00
2.269756767479476078e+00
2.269756767479476078e+00
2.269756767479476078e+00
2.263944090090640238e+00
2.263944090090640238e+00
2.263944090090640238e+00
2.264131595812860720e+00
2.264131595812860720e+00
2.282507156590471986e+00
2.282507156590471986e+00
2.346634113589892490e+00
2.346634113589892490e+00
2.301445234534745587e+00
2.301445234534745587e+00
2.277632007812738557e+00
2.277632007812738557e+00
2.277632007812738557e+00
2.260943998535111632e+00
2.260943998535111632e+00
2.273881893368328022e+00
2.273881893368328022e+00
2.195129490035706787e+00
2.195129490035706787e+00
2.249881160924100509e+00
2.249881160924100509e+00
2.416198736533707869e+00
2.416198736533707869e+00
2.355071871089815971e+00
2.355071871089815971e+00
2.319445783867915889e+00
2.319445783867915889e+00
2.310258003479110034e+00
2.310258003479110034e+00
2.291882442701498768e+00
2.291882442701498768e+00
2.291882442701498768e+00
2.283257179479354360e+00
2.283257179479354360e+00
2.289069856868190644e+00
2.289069856868190644e+00
2.334446241645558029e+00
2.334446241645558029e+00
2.270319284646137969e+00
2.270319284646137969e+00
2.235818231757560781e+00
2.235818231757560781e+00
2.221380291146580532e+00
2.221380291146580532e+00
2.207129856257820322e+00
2.207129856257820322e+00
2.127627430036317158e+00
2.127627430036317158e+00
2.127627430036317158e+00
2.264881618701742649e+00
2.264881618701742649e+00
2.358071962645344577e+00
2.358071962645344577e+00
2.293945005645924073e+00
2.293945005645924073e+00
2.277444502090518075e+00
2.277444502090518075e+00
2.276319467757194737e+00
2.276319467757194737e+00
2.269006744590594149e+00
2.269006744590594149e+00
2.280257087923826198e+00
2.280257087923826198e+00
2.322633381145664977e+00
2.322633381145664977e+00
2.322633381145664977e+00
2.325445966978973100e+00
2.325445966978973100e+00
2.271256813257240381e+00
2.271256813257240381e+00
2.242755943479720404e+00
2.242755943479720404e+00
2.248756126590777171e+00
2.248756126590777171e+00
2.217255165257729033e+00
2.217255165257729033e+00
2.167378643147068740e+00
2.167378643147068740e+00
2.377010040589617734e+00
2.377010040589617734e+00
2.370447340311899076e+00
2.370447340311899076e+00
2.311008026367992407e+00
2.311008026367992407e+00
2.311008026367992407e+00
2.300320200201422249e+00
2.300320200201422249e+00
2.288319833979308715e+00
2.288319833979308715e+00
2.274256904812768987e+00
2.274256904812768987e+00
2.276881984923856628e+00
2.276881984923856628e+00
2.329946104312265120e+00
2.329946104312265120e+00
2.292069948423719250e+00
2.292069948423719250e+00
2.245943540757469048e+00
2.245943540757469048e+00
2.224005371257667729e+00
2.224005371257667729e+00
2.224005371257667729e+00
2.241818414868617992e+00
2.241818414868617992e+00
2.175628894924771739e+00
2.175628894924771739e+00
2.185941709646900932e+00
2.185941709646900932e+00
2.390885464033936536e+00
2.390885464033936536e+00
2.334071230201117064e+00
2.334071230201117064e+00
2.298632648701437464e+00
2.298632648701437464e+00
2.299757683034760802e+00
2.299757683034760802e+00
2.285694753868221074e+00
2.285694753868221074e+00
2.285694753868221074e+00
2.270694296090578934e+00
2.270694296090578934e+00
2.278007019257179522e+00
2.278007019257179522e+00
2.341946470534379099e+00
2.341946470534379099e+00
2.286069765312662039e+00
2.286069765312662039e+00
2.262819055757316900e+00
2.262819055757316900e+00
2.247068575090792386e+00
2.247068575090792386e+00
2.244068483535264225e+00
2.244068483535264225e+00
2.157065828424939546e+00
2.157065828424939546e+00
2.157065828424939546e+00
2.243130954924161813e+00
2.243130954924161813e+00
2.388072878200628413e+00
2.388072878200628413e+00
2.327508529923398850e+00
2.327508529923398850e+00
2.308382946256904766e+00
2.308382946256904766e+00
2.305570360423596643e+00
2.305570360423596643e+00
2.289257362590411127e+00
2.289257362590411127e+00
2.283632190923795324e+00
2.283632190923795324e+00
2.310070497756889552e+00
2.310070497756889552e+00
2.310070497756889552e+00
2.336508804589983779e+00
2.336508804589983779e+00
2.275569444868312807e+00
2.275569444868312807e+00
2.252693746757408633e+00
2.252693746757408633e+00
2.249881160924100509e+00
2.249881160924100509e+00
2.225692922757652514e+00
2.225692922757652514e+00
2.139252784813989727e+00
2.139252784813989727e+00
2.305570360423596643e+00
2.305570360423596643e+00
2.357134434034241721e+00
2.357134434034241721e+00
2.291694936979278285e+00
2.291694936979278285e+00
2.291694936979278285e+00
2.285507248146000592e+00
2.285507248146000592e+00
2.284569719534897736e+00
2.284569719534897736e+00
2.280632099368266719e+00
2.280632099368266719e+00
2.285507248146000592e+00
2.285507248146000592e+00
2.319633289590136371e+00
2.319633289590136371e+00
2.307445417645802355e+00
2.307445417645802355e+00
2.268256721701712220e+00
2.268256721701712220e+00
2.245006012146367080e+00
2.245006012146367080e+00
2.252881252479629115e+00
2.252881252479629115e+00
2.252881252479629115e+00
2.203754753257850751e+00
2.203754753257850751e+00
2.155753288369396170e+00
2.155753288369396170e+00
2.375697500534073914e+00
2.375697500534073914e+00
2.338946378978850937e+00
2.338946378978850937e+00
2.290194891201513983e+00
2.290194891201513983e+00
2.289632374034852091e+00
2.289632374034852091e+00
2.294320017090365038e+00
2.294320017090365038e+00
2.300507705923642732e+00
2.300507705923642732e+00
2.300507705923642732e+00
2.305007843256935196e+00
2.305007843256935196e+00
2.351321756645405436e+00
2.351321756645405436e+00
2.294132511368144556e+00
2.294132511368144556e+00
2.260381481368449741e+00
2.260381481368449741e+00
2.234880703146458369e+00
2.234880703146458369e+00
2.243880977813043742e+00
2.243880977813043742e+00
2.163253517258217240e+00
2.163253517258217240e+00
2.207317361980041248e+00
2.207317361980041248e+00
2.398573198644978088e+00
2.398573198644978088e+00
2.398573198644978088e+00
2.335758781701101849e+00
2.335758781701101849e+00
2.303695303201391820e+00
2.303695303201391820e+00
2.305570360423596643e+00
2.305570360423596643e+00
2.298445142979216982e+00
2.298445142979216982e+00
2.299195165868098911e+00
2.299195165868098911e+00
2.303695303201391820e+00
2.303695303201391820e+00
2.341196447645496725e+00
2.341196447645496725e+00
2.268819238868374111e+00
2.268819238868374111e+00
2.268819238868374111e+00
2.237693288979766049e+00
2.237693288979766049e+00
2.227192968535416817e+00
2.227192968535416817e+00
2.223067842646564873e+00
2.223067842646564873e+00
2.145065462202826012e+00
2.145065462202826012e+00
2.265444135868404540e+00
2.265444135868404540e+00
2.369322305978576182e+00
2.369322305978576182e+00
2.304445326090273749e+00
2.304445326090273749e+00
2.304445326090273749e+00
2.282882168034912951e+00
2.282882168034912951e+00
2.284194708090456771e+00
2.284194708090456771e+00
2.282694662312692468e+00
2.282694662312692468e+00
2.290757408368175430e+00
2.290757408368175430e+00
2.320195806756797818e+00
2.320195806756797818e+00
2.319070772423474924e+00
2.319070772423474924e+00
2.264694112979522167e+00
2.264694112979522167e+00
2.241068391979735619e+00
2.241068391979735619e+00
2.248568620868556689e+00
2.248568620868556689e+00
2.248568620868556689e+00
2.228505508590960638e+00
2.228505508590960638e+00
2.156690816980498582e+00
2.156690816980498582e+00
2.348134159367656792e+00
2.348134159367656792e+00
2.358634479812006024e+00
2.358634479812006024e+00
2.306507889034699499e+00
2.306507889034699499e+00
2.300507705923642732e+00
2.300507705923642732e+00
2.300132694479201767e+00
2.300132694479201767e+00
2.295445051423688376e+00
2.295445051423688376e+00
2.295445051423688376e+00
2.302382763145847999e+00
2.302382763145847999e+00
2.351509262367625919e+00
2.351509262367625919e+00
2.324508438367870244e+00
2.324508438367870244e+00
2.279132053590502860e+00
2.279132053590502860e+00
2.247256080813012868e+00
2.247256080813012868e+00
2.250818689535202921e+00
2.250818689535202921e+00
2.179566515091402756e+00
2.179566515091402756e+00
2.165128574480422063e+00
2.165128574480422063e+00
2.165128574480422063e+00
2.372884914700766235e+00
2.372884914700766235e+00
2.319820795312356854e+00
2.319820795312356854e+00
2.268819238868374111e+00
2.268819238868374111e+00
2.269194250312814631e+00
2.269194250312814631e+00
2.266194158757286470e+00
2.266194158757286470e+00
2.270881801812799416e+00
2.270881801812799416e+00
2.288319833979308715e+00
2.288319833979308715e+00
2.353196813867610704e+00
2.353196813867610704e+00
2.353196813867610704e+00
2.299195165868098911e+00
2.299195165868098911e+00
2.274256904812768987e+00
2.274256904812768987e+00
2.256443861201819168e+00
2.256443861201819168e+00
2.262256538590655452e+00
2.262256538590655452e+00
2.170003723258155937e+00
2.170003723258155937e+00
2.239568346201971760e+00
2.239568346201971760e+00
2.386197820978423145e+00
2.386197820978423145e+00
2.386197820978423145e+00
2.315133152256843907e+00
2.315133152256843907e+00
2.287382305368205859e+00
2.287382305368205859e+00
2.284757225257118218e+00
2.284757225257118218e+00
2.278007019257179522e+00
2.278007019257179522e+00
2.267881710257271255e+00
2.267881710257271255e+00
2.316633198034607766e+00
2.316633198034607766e+00
2.347196630756553937e+00
2.347196630756553937e+00
2.285507248146000592e+00
2.285507248146000592e+00
2.257193884090700653e+00
2.257193884090700653e+00
2.249318643757439062e+00
2.249318643757439062e+00
2.224192876979888212e+00
2.224192876979888212e+00
2.153690725424969976e+00
2.153690725424969976e+00
2.153690725424969976e+00
2.311758049256874337e+00
2.311758049256874337e+00
2.370634846034120002e+00
2.370634846034120002e+00
2.310445509201330516e+00
2.310445509201330516e+00
2.299570177312540320e+00
2.299570177312540320e+00
2.288694845423749680e+00
2.288694845423749680e+00
2.276881984923856628e+00
2.276881984923856628e+00
2.283257179479354360e+00
2.283257179479354360e+00
2.322633381145664977e+00
2.322633381145664977e+00
2.322633381145664977e+00
2.315320657979064389e+00
2.315320657979064389e+00
2.265819147312845505e+00
2.265819147312845505e+00
2.237693288979766049e+00
2.237693288979766049e+00
2.239943357646412725e+00
2.239943357646412725e+00
2.195316995757927270e+00
2.195316995757927270e+00
2.146940519425031280e+00
2.146940519425031280e+00
2.374009949034089573e+00
2.374009949034089573e+00
2.349071687978759204e+00
2.349071687978759204e+00
2.349071687978759204e+00
2.296382580034791232e+00
2.296382580034791232e+00
2.292632465590380253e+00
2.292632465590380253e+00
2.285319742423780109e+00
2.285319742423780109e+00
2.284569719534897736e+00
2.284569719534897736e+00
2.286069765312662039e+00
2.286069765312662039e+00
2.337071321756645670e+00
2.337071321756645670e+00
2.280444593646046680e+00
2.280444593646046680e+00
2.244255989257484707e+00
2.244255989257484707e+00
2.226255439924313961e+00
2.226255439924313961e+00
2.226255439924313961e+00
2.242755943479720404e+00
2.242755943479720404e+00
2.167753654591509704e+00
2.167753654591509704e+00
2.197192052980132537e+00
2.197192052980132537e+00
2.399135715811639535e+00
2.399135715811639535e+00
2.350759239478743989e+00
2.350759239478743989e+00
2.317383220923490139e+00
2.317383220923490139e+00
2.321883358256782603e+00
2.321883358256782603e+00
2.313258095034638639e+00
2.313258095034638639e+00
2.305382854701376161e+00
2.305382854701376161e+00
2.305382854701376161e+00
2.305757866145817125e+00
2.305757866145817125e+00
2.346821619312112972e+00
2.346821619312112972e+00
2.280819605090487201e+00
2.280819605090487201e+00
2.257006378368480615e+00
2.257006378368480615e+00
2.238068300424207457e+00
2.238068300424207457e+00
2.229630542924283532e+00
2.229630542924283532e+00
2.143565416425061709e+00
2.143565416425061709e+00
2.249881160924100509e+00
2.249881160924100509e+00
2.249881160924100509e+00
2.361072054200873183e+00
2.361072054200873183e+00
2.294695028534806447e+00
2.294695028534806447e+00
2.279132053590502860e+00
2.279132053590502860e+00
2.278007019257179522e+00
2.278007019257179522e+00
2.268069215979491737e+00
2.268069215979491737e+00
2.274444410534989469e+00
2.274444410534989469e+00
2.314008117923521013e+00
2.314008117923521013e+00
2.327508529923398850e+00
2.327508529923398850e+00
2.327508529923398850e+00
2.277632007812738557e+00
2.277632007812738557e+00
2.261131504257332114e+00
2.261131504257332114e+00
2.269944273201696561e+00
2.269944273201696561e+00
2.250631183812982439e+00
2.250631183812982439e+00
2.172628803369243577e+00
2.172628803369243577e+00
2.353571825312051669e+00
2.353571825312051669e+00
2.371009857478560967e+00
2.371009857478560967e+00
2.311008026367992407e+00
2.311008026367992407e+00
2.311008026367992407e+00
2.299382671590319838e+00
2.299382671590319838e+00
2.285694753868221074e+00
2.285694753868221074e+00
2.272756859035004684e+00
2.272756859035004684e+00
2.273319376201666131e+00
2.273319376201666131e+00
2.314945646534623425e+00
2.314945646534623425e+00
2.286444776757103448e+00
2.286444776757103448e+00
2.252693746757408633e+00
2.252693746757408633e+00
2.226630451368755370e+00
2.226630451368755370e+00
2.226630451368755370e+00
2.237130771813104602e+00
2.237130771813104602e+00
2.189129306924649576e+00
2.189129306924649576e+00
2.158003357036042402e+00
2.158003357036042402e+00
2.359947019867549844e+00
2.359947019867549844e+00
2.310258003479110034e+00
2.310258003479110034e+00
2.269569261757255596e+00
2.269569261757255596e+00
2.266756675923947917e+00
2.266756675923947917e+00
2.261506515701773079e+00
2.261506515701773079e+00
2.269006744590594149e+00
2.269006744590594149e+00
2.269006744590594149e+00
2.284944730979339145e+00
2.284944730979339145e+00
2.345134067812128187e+00
2.345134067812128187e+00
2.298445142979216982e+00
2.298445142979216982e+00
2.287944822534867306e+00
2.287944822534867306e+00
2.271631824701681346e+00
2.271631824701681346e+00
2.288132328257088233e+00
2.288132328257088233e+00
2.182941618091372327e+00
2.182941618091372327e+00
2.237505783257545566e+00
2.237505783257545566e+00
2.397635670033875677e+00
2.397635670033875677e+00
2.397635670033875677e+00
2.322070863979003530e+00
2.322070863979003530e+00
2.278382030701620931e+00
2.278382030701620931e+00
2.282882168034912951e+00
2.282882168034912951e+00
2.281007110812707683e+00
2.281007110812707683e+00
2.279694570757164307e+00
2.279694570757164307e+00
2.293757499923703591e+00
2.293757499923703591e+00
2.319820795312356854e+00
2.319820795312356854e+00
2.263944090090640238e+00
2.263944090090640238e+00
2.263944090090640238e+00
2.247818597979674760e+00
2.247818597979674760e+00
2.237505783257545566e+00
2.237505783257545566e+00
2.218192693868831444e+00
2.218192693868831444e+00
2.146002990813928868e+00
2.146002990813928868e+00
2.291507431257057803e+00
2.291507431257057803e+00
2.349821710867641578e+00
2.349821710867641578e+00
2.282507156590471986e+00
2.282507156590471986e+00
2.269944273201696561e+00
2.269944273201696561e+00
2.269944273201696561e+00
2.266569170201727434e+00
2.266569170201727434e+00
2.274631916257209951e+00
2.274631916257209951e+00
2.303320291756950855e+00
2.303320291756950855e+00
2.348321665089877275e+00
2.348321665089877275e+00
2.350946745200964472e+00
2.350946745200964472e+00
2.314195623645741495e+00
2.314195623645741495e+00
2.294507522812585520e+00
2.294507522812585520e+00
2.288882351145970162e+00
2.288882351145970162e+00
2.288882351145970162e+00
2.242193426313058957e+00
2.242193426313058957e+00
2.174503860591448845e+00
2.174503860591448845e+00
2.370259834589678594e+00
2.370259834589678594e+00
2.342883999145481511e+00
2.342883999145481511e+00
2.282132145146031021e+00
2.282132145146031021e+00
2.277069490646077110e+00
2.277069490646077110e+00
2.284382213812677254e+00
2.284382213812677254e+00
2.288882351145970162e+00
2.288882351145970162e+00
2.309507980590228104e+00
2.309507980590228104e+00
2.309507980590228104e+00
2.369884823145237629e+00
2.369884823145237629e+00
2.332383678701132279e+00
2.332383678701132279e+00
2.298070131534776017e+00
2.298070131534776017e+00
2.254568803979613900e+00
2.254568803979613900e+00
2.255881344035157721e+00
2.255881344035157721e+00
2.173003814813684542e+00
2.173003814813684542e+00
2.174316354869228363e+00
2.174316354869228363e+00
2.367259743034150432e+00
2.367259743034150432e+00
2.367259743034150432e+00
2.313258095034638639e+00
2.313258095034638639e+00
2.278007019257179522e+00
2.278007019257179522e+00
2.279319559312723342e+00
2.279319559312723342e+00
2.265631641590625023e+00
2.265631641590625023e+00
2.247443586535233351e+00
2.247443586535233351e+00
2.256068849757378203e+00
2.256068849757378203e+00
2.317008209479048730e+00
2.317008209479048730e+00
2.267131687368389326e+00
2.267131687368389326e+00
2.267131687368389326e+00
2.248568620868556689e+00
2.248568620868556689e+00
2.239380840479750834e+00
2.239380840479750834e+00
2.244068483535264225e+00
2.244068483535264225e+00
2.158378368480483367e+00
2.158378368480483367e+00
2.252131229590746742e+00
2.252131229590746742e+00
2.389010406811731269e+00
2.389010406811731269e+00
2.331258644367808941e+00
2.331258644367808941e+00
2.308382946256904766e+00
2.308382946256904766e+00
2.308382946256904766e+00
2.306132877590258534e+00
2.306132877590258534e+00
2.311383037812433372e+00
2.311383037812433372e+00
2.322445875423444495e+00
2.322445875423444495e+00
2.335008758812219920e+00
2.335008758812219920e+00
2.345696584978789634e+00
2.345696584978789634e+00
2.289444868312631609e+00
2.289444868312631609e+00
2.250068666646320992e+00
2.250068666646320992e+00
2.231505600146489243e+00
2.231505600146489243e+00
2.231505600146489243e+00
2.206754844813379357e+00
2.206754844813379357e+00
2.129877498702963390e+00
2.129877498702963390e+00
2.307070406201360946e+00
2.307070406201360946e+00
2.339133884701071420e+00
2.339133884701071420e+00
2.267506698812830290e+00
2.267506698812830290e+00
2.257381389812921579e+00
2.257381389812921579e+00
2.253818781090731527e+00
2.253818781090731527e+00
2.236568254646443155e+00
2.236568254646443155e+00
2.236568254646443155e+00
2.246131046479689974e+00
2.246131046479689974e+00
2.296382580034791232e+00
2.296382580034791232e+00
2.292819971312600735e+00
2.292819971312600735e+00
2.259068941312906365e+00
2.259068941312906365e+00
2.244068483535264225e+00
2.244068483535264225e+00
2.274444410534989469e+00
2.274444410534989469e+00
2.231880611590930208e+00
2.231880611590930208e+00
2.192879421369060555e+00
2.192879421369060555e+00
2.417323770867030763e+00
2.417323770867030763e+00
2.417323770867030763e+00
2.393135532700583212e+00
2.393135532700583212e+00
2.352634296700948813e+00
2.352634296700948813e+00
2.331633655812249906e+00
2.331633655812249906e+00
2.315508163701284872e+00
2.315508163701284872e+00
2.295445051423688376e+00
2.295445051423688376e+00
2.278757042146061895e+00
2.278757042146061895e+00
2.335383770256660885e+00
2.335383770256660885e+00
2.281757133701590057e+00
2.281757133701590057e+00
2.222880336924344391e+00
2.222880336924344391e+00
2.222880336924344391e+00
2.184254158146916147e+00
2.184254158146916147e+00
2.186316721091342341e+00
2.186316721091342341e+00
2.110939420758690233e+00
2.110939420758690233e+00
2.173941343424787398e+00
2.173941343424787398e+00
2.377760063478499664e+00
2.377760063478499664e+00
2.339133884701071420e+00
2.339133884701071420e+00
2.315695669423505798e+00
2.315695669423505798e+00
2.327883541367839371e+00
2.327883541367839371e+00
2.327883541367839371e+00
2.315695669423505798e+00
2.315695669423505798e+00
2.316070680867946319e+00
2.316070680867946319e+00
2.341571459089938134e+00
2.341571459089938134e+00
2.378322580645161111e+00
2.378322580645161111e+00
2.340258919034394314e+00
2.340258919034394314e+00
2.325633472701193583e+00
2.325633472701193583e+00
2.295257545701467894e+00
2.295257545701467894e+00
2.248193609424115724e+00
2.248193609424115724e+00
2.248193609424115724e+00
2.137752739036225869e+00
2.137752739036225869e+00
2.228505508590960638e+00
2.228505508590960638e+00
2.281569627979369130e+00
2.281569627979369130e+00
2.215192602313302839e+00
2.215192602313302839e+00
2.216317636646626177e+00
2.216317636646626177e+00
2.223817865535447247e+00
2.223817865535447247e+00
2.230005554368724940e+00
2.230005554368724940e+00
2.252506241035188150e+00
2.252506241035188150e+00
2.252506241035188150e+00
2.323008392590105942e+00
2.323008392590105942e+00
2.333883724478896582e+00
2.333883724478896582e+00
2.278944547868282378e+00
2.278944547868282378e+00
2.274631916257209951e+00
2.274631916257209951e+00
2.300695211645863214e+00
2.300695211645863214e+00
2.276881984923856628e+00
2.276881984923856628e+00
2.220067751091036712e+00
2.220067751091036712e+00
2.396135624256111374e+00
2.396135624256111374e+00
2.396135624256111374e+00
2.351321756645405436e+00
2.351321756645405436e+00
2.238818323313089387e+00
2.238818323313089387e+00
2.210129947813348927e+00
2.210129947813348927e+00
2.190629352702413879e+00
2.190629352702413879e+00
2.179191503646961792e+00
2.179191503646961792e+00
2.193441938535722002e+00
2.193441938535722002e+00
2.259256447035126847e+00
2.259256447035126847e+00
2.269944273201696561e+00
2.269944273201696561e+00
2.269944273201696561e+00
2.281757133701590057e+00
2.281757133701590057e+00
2.283069673757133433e+00
2.283069673757133433e+00
2.303507797479171337e+00
2.303507797479171337e+00
2.161565965758232455e+00
2.161565965758232455e+00
2.075688344981231115e+00
2.075688344981231115e+00
2.232443128757591655e+00
2.232443128757591655e+00
2.146565507980590315e+00
2.146565507980590315e+00
2.097626514481032878e+00
2.097626514481032878e+00
2.097626514481032878e+00
2.118439649647511303e+00
2.118439649647511303e+00
2.154628254036072832e+00
2.154628254036072832e+00
2.218942716757713818e+00
2.218942716757713818e+00
2.304445326090273749e+00
2.304445326090273749e+00
2.473200476088747823e+00
2.473200476088747823e+00
2.495326151310770069e+00
2.495326151310770069e+00
2.464012695699941968e+00
2.464012695699941968e+00
2.380010132145145896e+00
2.380010132145145896e+00
2.380010132145145896e+00
2.276694479201635701e+00
2.276694479201635701e+00
2.048687520981474997e+00
2.048687520981474997e+00
1.912933378093814030e+00
1.912933378093814030e+00
1.901495529038361942e+00
1.901495529038361942e+00
1.757116122928556123e+00
1.757116122928556123e+00
1.731615344706564752e+00
1.731615344706564752e+00
1.795929807428205294e+00
1.795929807428205294e+00
1.919121066927091501e+00
1.919121066927091501e+00
1.919121066927091501e+00
2.122189764091921838e+00
2.122189764091921838e+00
2.365384685811944721e+00
2.365384685811944721e+00
2.652455946531571573e+00
2.652455946531571573e+00
2.795710318308054276e+00
2.795710318308054276e+00
2.900526017029328329e+00
2.900526017029328329e+00
2.912151371807001343e+00
2.912151371807001343e+00
2.853462080751976160e+00
2.853462080751976160e+00
2.632955351420636525e+00
2.632955351420636525e+00
2.612892239143040030e+00
2.612892239143040030e+00
2.612892239143040030e+00
2.549515305032502344e+00
2.549515305032502344e+00
2.362009582811975594e+00
2.362009582811975594e+00
2.255693838312936794e+00
2.255693838312936794e+00
2.198317087313455875e+00
2.198317087313455875e+00
2.248193609424115724e+00
2.248193609424115724e+00
2.339321390423291458e+00
2.339321390423291458e+00
2.394073061311685624e+00
2.394073061311685624e+00
2.306882900479140464e+00
2.306882900479140464e+00
2.306882900479140464e+00
2.200567155980101663e+00
2.200567155980101663e+00
2.151440656758324188e+00
2.151440656758324188e+00
2.161190954313791490e+00
2.161190954313791490e+00
2.212380016479995160e+00
2.212380016479995160e+00
2.212005005035553751e+00
2.212005005035553751e+00
2.418261299478133619e+00
2.418261299478133619e+00
2.326571001312295994e+00
2.326571001312295994e+00
2.230943082979827352e+00
2.230943082979827352e+00
2.230943082979827352e+00
2.274631916257209951e+00
2.274631916257209951e+00
2.360697042756431774e+00
2.360697042756431774e+00
2.409448530533769173e+00
2.409448530533769173e+00
2.408886013367107282e+00
2.408886013367107282e+00
2.373634937589648164e+00
2.373634937589648164e+00
2.283632190923795324e+00
2.283632190923795324e+00
2.226817957090975852e+00
2.226817957090975852e+00
2.207504867702261730e+00
2.207504867702261730e+00
2.207504867702261730e+00
2.226442945646534444e+00
2.226442945646534444e+00
2.173378826258125951e+00
2.173378826258125951e+00
2.239755851924192243e+00
2.239755851924192243e+00
2.413573656422620228e+00
2.413573656422620228e+00
2.344759056367687222e+00
2.344759056367687222e+00
2.305195348979155678e+00
2.305195348979155678e+00
2.331446150090029423e+00
2.331446150090029423e+00
2.369697317423017147e+00
2.369697317423017147e+00
2.369697317423017147e+00
2.417136265144810281e+00
2.417136265144810281e+00
2.440199468977935382e+00
2.440199468977935382e+00
2.429886654255806189e+00
2.429886654255806189e+00
2.294695028534806447e+00
2.294695028534806447e+00
2.206379833368938392e+00
2.206379833368938392e+00
2.167753654591509704e+00
2.167753654591509704e+00
2.131565050202948175e+00
2.131565050202948175e+00
2.027311868648335125e+00
2.027311868648335125e+00
2.027311868648335125e+00
2.139065279091769245e+00
2.139065279091769245e+00
2.317945738090151586e+00
2.317945738090151586e+00
2.287944822534867306e+00
2.287944822534867306e+00
2.246131046479689974e+00
2.246131046479689974e+00
2.229630542924283532e+00
2.229630542924283532e+00
2.286444776757103448e+00
2.286444776757103448e+00
2.361634571367534630e+00
2.361634571367534630e+00
2.489138462477492819e+00
2.489138462477492819e+00
2.547640247810297076e+00
2.547640247810297076e+00
2.547640247810297076e+00
2.497576219977416301e+00
2.497576219977416301e+00
2.397635670033875677e+00
2.397635670033875677e+00
2.276694479201635701e+00
2.276694479201635701e+00
2.085063631092257452e+00
2.085063631092257452e+00
1.959059785760063566e+00
1.959059785760063566e+00
2.201504684591204519e+00
2.201504684591204519e+00
2.206942350535599839e+00
2.206942350535599839e+00
2.153878231147190458e+00
2.153878231147190458e+00
2.153878231147190458e+00
2.146753013702810797e+00
2.146753013702810797e+00
2.128752464369640052e+00
2.128752464369640052e+00
2.108501846369823074e+00
2.108501846369823074e+00
2.125939878536332373e+00
2.125939878536332373e+00
2.228880520035401602e+00
2.228880520035401602e+00
2.352071779534287366e+00
2.352071779534287366e+00
2.545015167699209435e+00
2.545015167699209435e+00
2.549890316476943308e+00
2.549890316476943308e+00
2.549890316476943308e+00
2.472262947477644968e+00
2.472262947477644968e+00
2.187816766869105756e+00
2.187816766869105756e+00
2.023936765648365554e+00
2.023936765648365554e+00
2.144877956480605530e+00
2.144877956480605530e+00
1.981747978148747258e+00
1.981747978148747258e+00
1.945559373760185506e+00
1.945559373760185506e+00
2.060500381481368493e+00
2.060500381481368493e+00
2.185191686758019003e+00
2.185191686758019003e+00
2.185191686758019003e+00
2.261319009979552597e+00
2.261319009979552597e+00
2.311195532090212890e+00
2.311195532090212890e+00
2.413386150700399746e+00
2.413386150700399746e+00
2.394823084200567997e+00
2.394823084200567997e+00
2.394823084200567997e+00
2.394823084200567997e+00
2.400823267311624321e+00
2.400823267311624321e+00
2.377760063478499664e+00
2.377760063478499664e+00
2.225130405590991067e+00
2.225130405590991067e+00
2.230380565813165905e+00
2.230380565813165905e+00
2.337821344645527599e+00
2.337821344645527599e+00
2.182941618091372327e+00
2.182941618091372327e+00
2.152003173924985191e+00
2.152003173924985191e+00
2.152003173924985191e+00
2.210879970702230857e+00
2.210879970702230857e+00
2.273694387646107540e+00
2.273694387646107540e+00
2.308570451979125249e+00
2.308570451979125249e+00
2.458200018311105683e+00
2.458200018311105683e+00
2.552890408032471470e+00
2.552890408032471470e+00
2.496263679921872480e+00
2.496263679921872480e+00
2.442637043366802097e+00
2.442637043366802097e+00
2.355071871089815971e+00
2.355071871089815971e+00
2.355071871089815971e+00
2.226630451368755370e+00
2.226630451368755370e+00
2.141502853480635959e+00
2.141502853480635959e+00
2.301257728812525105e+00
2.301257728812525105e+00
2.392760521256141804e+00
2.392760521256141804e+00
2.377385052034058699e+00
2.377385052034058699e+00
2.368947294534135217e+00
2.368947294534135217e+00
2.328071047090059853e+00
2.328071047090059853e+00
2.270694296090578934e+00
2.270694296090578934e+00
2.270694296090578934e+00
2.249506149479659545e+00
2.249506149479659545e+00
2.247256080813012868e+00
2.247256080813012868e+00
2.155565782647175688e+00
2.155565782647175688e+00
2.083001068147831703e+00
2.083001068147831703e+00
2.072313241981261545e+00
2.072313241981261545e+00
2.100251594592120075e+00
2.100251594592120075e+00
1.979310403759880321e+00
1.979310403759880321e+00
1.978560380870998392e+00
1.978560380870998392e+00
2.402135807367168141e+00
2.402135807367168141e+00
2.402135807367168141e+00
2.473575487533188788e+00
2.473575487533188788e+00
2.446012146366771223e+00
2.446012146366771223e+00
2.455762443922238969e+00
2.455762443922238969e+00
2.357134434034241721e+00
2.357134434034241721e+00
2.204129764702292160e+00
2.204129764702292160e+00
2.158003357036042402e+00
2.158003357036042402e+00
2.199254615924558287e+00
2.199254615924558287e+00
2.145815485091708386e+00
2.145815485091708386e+00
2.076438367870113488e+00
2.076438367870113488e+00
1.900558000427259309e+00
1.900558000427259309e+00
1.900558000427259309e+00
1.841118686483352196e+00
1.841118686483352196e+00
1.939746696371349222e+00
1.939746696371349222e+00
2.230193060090945423e+00
2.230193060090945423e+00
2.493263588366343875e+00
2.493263588366343875e+00
2.466825281533250092e+00
2.466825281533250092e+00
2.467762810144352947e+00
2.467762810144352947e+00
2.524577043977172419e+00
2.524577043977172419e+00
2.582891323587756194e+00
2.582891323587756194e+00
2.525139561143833866e+00
2.525139561143833866e+00
2.450324777977843649e+00
2.450324777977843649e+00
2.450324777977843649e+00
2.412073610644855925e+00
2.412073610644855925e+00
2.395385601367229444e+00
2.395385601367229444e+00
2.430636677144688562e+00
2.430636677144688562e+00
2.511076631977294138e+00
2.511076631977294138e+00
2.574453566087832268e+00
2.574453566087832268e+00
2.526452101199377687e+00
2.526452101199377687e+00
2.575953611865596571e+00
2.575953611865596571e+00
2.526452101199377687e+00
2.526452101199377687e+00
2.526452101199377687e+00
2.293007477034821662e+00
2.293007477034821662e+00
2.126877407147435228e+00
2.126877407147435228e+00
1.890995208594012267e+00
1.890995208594012267e+00
1.684738914151433065e+00
1.684738914151433065e+00
1.677051179540391290e+00
1.677051179540391290e+00
1.731615344706564752e+00
1.731615344706564752e+00
1.767991454817346764e+00
1.767991454817346764e+00
1.834743491927854242e+00
1.834743491927854242e+00
1.834743491927854242e+00
1.982498001037629409e+00
1.982498001037629409e+00
2.136627704702902530e+00
2.136627704702902530e+00
2.209379924924466998e+00
2.209379924924466998e+00
2.333508713034455617e+00
2.333508713034455617e+00
2.654143498031556359e+00
2.654143498031556359e+00
2.503576403088473068e+00
2.503576403088473068e+00
2.339133884701071420e+00
2.339133884701071420e+00
2.274256904812768987e+00
2.274256904812768987e+00
2.274256904812768987e+00
2.260193975646229259e+00
2.260193975646229259e+00
2.280257087923826198e+00
2.280257087923826198e+00
2.391447981200597983e+00
2.391447981200597983e+00
2.477888119144261214e+00
2.477888119144261214e+00
2.334633747367778511e+00
2.334633747367778511e+00
2.254381298257393418e+00
2.254381298257393418e+00
2.204129764702292160e+00
2.204129764702292160e+00
2.247443586535233351e+00
2.247443586535233351e+00
2.211629993591112786e+00
2.211629993591112786e+00
2.211629993591112786e+00
2.322258369701224012e+00
2.322258369701224012e+00
2.721645558030945988e+00
2.721645558030945988e+00
2.705520065919980510e+00
2.705520065919980510e+00
2.590954069643238711e+00
2.590954069643238711e+00
2.477325601977599767e+00
2.477325601977599767e+00
2.294507522812585520e+00
2.294507522812585520e+00
1.992998321481978863e+00
1.992998321481978863e+00
1.708364635151219391e+00
1.708364635151219391e+00
1.691301614429151501e+00
1.691301614429151501e+00
1.691301614429151501e+00
1.624549577318643800e+00
1.624549577318643800e+00
1.658488113040559098e+00
1.658488113040559098e+00
1.656425550096133126e+00
1.656425550096133126e+00
1.802867519150364695e+00
1.802867519150364695e+00
2.074750816370128703e+00
2.074750816370128703e+00
2.646830774864955327e+00
2.646830774864955327e+00
3.230723593859675891e+00
3.230723593859675891e+00
3.448042725913266437e+00
3.448042725913266437e+00
3.448042725913266437e+00
3.386353343302713093e+00
3.386353343302713093e+00
3.003279152806177077e+00
3.003279152806177077e+00
2.595079195532090210e+00
2.595079195532090210e+00
2.194379467146824858e+00
2.194379467146824858e+00
1.988498184148686176e+00
1.988498184148686176e+00
1.931308938871425740e+00
1.931308938871425740e+00
1.794242255928220509e+00
1.794242255928220509e+00
1.775679189428388316e+00
1.775679189428388316e+00
1.775679189428388316e+00
1.589298501541184683e+00
1.589298501541184683e+00
1.525171544541764623e+00
1.525171544541764623e+00
1.668988433484908551e+00
1.668988433484908551e+00
2.066313058870204777e+00
2.066313058870204777e+00
2.373822443311869090e+00
2.373822443311869090e+00
2.447887203588976490e+00
2.447887203588976490e+00
2.557203039643543896e+00
2.557203039643543896e+00
2.655831049531541144e+00
2.655831049531541144e+00
2.655831049531541144e+00
2.604079470198675583e+00
2.604079470198675583e+00
2.498138737144077748e+00
2.498138737144077748e+00
2.418073793755913137e+00
2.418073793755913137e+00
2.347946653645436310e+00
2.347946653645436310e+00
2.224755394146549659e+00
2.224755394146549659e+00
2.089751274147770843e+00
2.089751274147770843e+00
2.120689718314157535e+00
2.120689718314157535e+00
2.313445600756859122e+00
2.313445600756859122e+00
2.506201483199560265e+00
2.506201483199560265e+00
2.506201483199560265e+00
2.761209265419477088e+00
2.761209265419477088e+00
2.803210547196874902e+00
2.803210547196874902e+00
2.748271370586260698e+00
2.748271370586260698e+00
2.702144962920011384e+00
2.702144962920011384e+00
2.401948301644947659e+00
2.401948301644947659e+00
1.986623126926480909e+00
1.986623126926480909e+00
1.685301431318094512e+00
1.685301431318094512e+00
1.326602984710226751e+00
1.326602984710226751e+00
1.326602984710226751e+00
9.109027985473189259e-01
9.109027985473189259e-01
8.126498001037629759e-01
8.126498001037629759e-01
1.005968199713126010e+00
1.005968199713126010e+00
1.585735892818994852e+00
1.585735892818994852e+00
2.056375255592516993e+00
2.056375255592516993e+00
2.469450361644337288e+00
2.469450361644337288e+00
2.968028077028717959e+00
2.968028077028717959e+00
3.191722403637806682e+00
3.191722403637806682e+00
3.191722403637806682e+00
3.387290871913815948e+00
3.387290871913815948e+00
3.576859157078768447e+00
3.576859157078768447e+00
3.433042268135624298e+00
3.433042268135624298e+00
3.004779198583941380e+00
3.004779198583941380e+00
2.805085604419080170e+00
2.805085604419080170e+00
2.649268349253822485e+00
2.649268349253822485e+00
2.396885647144993747e+00
2.396885647144993747e+00
2.148065553758354618e+00
2.148065553758354618e+00
2.148065553758354618e+00
1.551422345652638368e+00
1.551422345652638368e+00
8.175249488814966270e-01
8.175249488814966270e-01
9.412787255470442260e-02
9.412787255470442260e-02
6.750205999938962802e-03
6.750205999938962802e-03
4.837647633289590132e-01
4.837647633289590132e-01
9.645294351023896429e-01
9.645294351023896429e-01
1.923058687093722297e+00
1.923058687093722297e+00
2.929589403973509754e+00
2.929589403973509754e+00
2.929589403973509754e+00
3.646236274300363345e+00
3.646236274300363345e+00
3.812553849909970705e+00
3.812553849909970705e+00
3.812553849909970705e+00
3.812553849909970705e+00
3.831116916409802453e+00
3.831116916409802453e+00
3.494731650746177642e+00
3.494731650746177642e+00
3.014717001861629164e+00
3.014717001861629164e+00
2.666518875698111302e+00
2.666518875698111302e+00
2.528139652699362028e+00
2.528139652699362028e+00
2.461762627033295736e+00
2.461762627033295736e+00
2.461762627033295736e+00
2.712832789086581098e+00
2.712832789086581098e+00
2.744333750419629681e+00
2.744333750419629681e+00
2.660706198309274573e+00
2.660706198309274573e+00
2.496263679921872480e+00
2.496263679921872480e+00
2.310258003479110034e+00
2.310258003479110034e+00
2.268819238868374111e+00
2.268819238868374111e+00
2.324508438367870244e+00
2.324508438367870244e+00
2.060875392925809457e+00
2.060875392925809457e+00
1.687551499984740744e+00
1.687551499984740744e+00
1.687551499984740744e+00
1.362979094821008985e+00
1.362979094821008985e+00
8.490259102145450987e-01
8.490259102145450987e-01
5.598920865504929401e-01
5.598920865504929401e-01
7.899616077150792837e-01
7.899616077150792837e-01
9.682795495468001779e-01
9.682795495468001779e-01
1.205099276711325329e+00
1.205099276711325329e+00
1.514483718375194687e+00
1.514483718375194687e+00
1.514483718375194687e+00
2.359384502700888397e+00
2.359384502700888397e+00
3.123095309305093714e+00
3.123095309305093714e+00
3.638173528244880828e+00
3.638173528244880828e+00
3.777490279854732069e+00
3.777490279854732069e+00
3.674924649800103804e+00
3.674924649800103804e+00
3.509544602801599300e+00
3.509544602801599300e+00
3.155721304971465191e+00
3.155721304971465191e+00
2.777334757530442122e+00
2.777334757530442122e+00
2.777334757530442122e+00
2.510514114810632691e+00
2.510514114810632691e+00
2.278007019257179522e+00
2.278007019257179522e+00
2.051125095370342155e+00
2.051125095370342155e+00
2.072313241981261545e+00
2.072313241981261545e+00
2.290569902645954947e+00
2.290569902645954947e+00
2.223630359813226764e+00
2.223630359813226764e+00
2.210317453535568966e+00
2.210317453535568966e+00
2.277069490646077110e+00
2.277069490646077110e+00
2.277069490646077110e+00
2.024686788537247928e+00
2.024686788537247928e+00
1.835306009094515911e+00
1.835306009094515911e+00
1.761803765984069292e+00
1.761803765984069292e+00
1.791054658650471643e+00
1.791054658650471643e+00
1.558922574541459438e+00
1.558922574541459438e+00
1.228349986266670690e+00
1.228349986266670690e+00
1.301477217932676123e+00
1.301477217932676123e+00
1.556672505874812984e+00
1.556672505874812984e+00
1.556672505874812984e+00
1.508296029541917216e+00
1.508296029541917216e+00
1.955497177037873513e+00
1.955497177037873513e+00
2.850649494918668481e+00
2.850649494918668481e+00
3.344914578691976725e+00
3.344914578691976725e+00
3.280975127414777148e+00
3.280975127414777148e+00
3.114470046082949306e+00
3.114470046082949306e+00
2.985841120639667778e+00
2.985841120639667778e+00
2.699894894253364708e+00
2.699894894253364708e+00
2.699894894253364708e+00
2.419761345255897922e+00
2.419761345255897922e+00
2.385822809533982625e+00
2.385822809533982625e+00
2.399885738700521909e+00
2.399885738700521909e+00
2.324883449812311209e+00
2.324883449812311209e+00
2.189129306924649576e+00
2.189129306924649576e+00
1.842618732261116499e+00
1.842618732261116499e+00
1.533984313486129292e+00
1.533984313486129292e+00
1.695051728873561814e+00
1.695051728873561814e+00
1.695051728873561814e+00
1.711364726706747552e+00
1.711364726706747552e+00
1.707614612262337239e+00
1.707614612262337239e+00
1.979872920926541990e+00
1.979872920926541990e+00
2.402698324533829588e+00
2.402698324533829588e+00
2.909151280251472738e+00
2.909151280251472738e+00
3.488918973357340914e+00
3.488918973357340914e+00
3.717675954466383992e+00
3.717675954466383992e+00
3.371165379802850470e+00
3.371165379802850470e+00
3.371165379802850470e+00
2.983216040528581026e+00
2.983216040528581026e+00
2.572391003143406518e+00
2.572391003143406518e+00
2.572953520310068409e+00
2.572953520310068409e+00
2.628830225531785025e+00
2.628830225531785025e+00
2.652830957976012538e+00
2.652830957976012538e+00
2.700832422864467564e+00
2.700832422864467564e+00
2.249506149479659545e+00
2.249506149479659545e+00
2.070625690481276759e+00
2.070625690481276759e+00
2.070625690481276759e+00
2.041374797814874853e+00
2.041374797814874853e+00
2.037437177648243392e+00
2.037437177648243392e+00
1.847681386761070632e+00
1.847681386761070632e+00
1.639925046540726905e+00
1.639925046540726905e+00
1.743428205206457804e+00
1.743428205206457804e+00
1.797992370372631044e+00
1.797992370372631044e+00
1.806055116428113783e+00
1.806055116428113783e+00
1.945559373760185506e+00
1.945559373760185506e+00
2.227755485702078264e+00
2.227755485702078264e+00
2.272006836146122755e+00
2.272006836146122755e+00
2.288694845423749680e+00
2.288694845423749680e+00
2.344759056367687222e+00
2.344759056367687222e+00
2.344759056367687222e+00
2.198879604480116878e+00
2.198879604480116878e+00
1.845618823816644882e+00
1.845618823816644882e+00
1.641987609485152877e+00
1.641987609485152877e+00
1.695051728873561814e+00
1.695051728873561814e+00
2.209192419202246516e+00
2.209192419202246516e+00
2.540702536088137453e+00
2.540702536088137453e+00
2.936339609973449338e+00
2.936339609973449338e+00
3.153283730582598476e+00
3.153283730582598476e+00
3.153283730582598476e+00
3.262787072359386364e+00
3.262787072359386364e+00
3.254724326303903403e+00
3.254724326303903403e+00
2.788397595141453245e+00
2.788397595141453245e+00
2.389197912533951751e+00
2.389197912533951751e+00
2.393510544145024177e+00
2.393510544145024177e+00
2.372509903256325270e+00
2.372509903256325270e+00
2.287194799645985377e+00
2.287194799645985377e+00
2.308945463423566213e+00
2.308945463423566213e+00
2.308945463423566213e+00
2.324695944090090727e+00
2.324695944090090727e+00
2.230568071535386387e+00
2.230568071535386387e+00
2.006498733481856700e+00
2.006498733481856700e+00
1.986435621204260427e+00
1.986435621204260427e+00
2.031624500259407551e+00
2.031624500259407551e+00
2.101189123203222930e+00
2.101189123203222930e+00
2.128564958647419569e+00
2.128564958647419569e+00
2.128564958647419569e+00
1.925121250038148268e+00
1.925121250038148268e+00
1.772304086428418968e+00
1.772304086428418968e+00
1.636174932096316370e+00
1.636174932096316370e+00
1.671238502151555005e+00
1.671238502151555005e+00
1.327728019043550090e+00
1.327728019043550090e+00
1.363541611987670432e+00
1.363541611987670432e+00
1.808680196539200979e+00
1.808680196539200979e+00
2.299570177312540320e+00
2.299570177312540320e+00
2.764021851252784767e+00
2.764021851252784767e+00
3.070406201361125742e+00
3.070406201361125742e+00
3.070406201361125742e+00
3.506357005523850212e+00
3.506357005523850212e+00
3.373040437025055738e+00
3.373040437025055738e+00
2.929401898251289271e+00
2.929401898251289271e+00
2.646830774864955327e+00
2.646830774864955327e+00
2.675519150364696230e+00
2.675519150364696230e+00
2.553265419476912879e+00
2.553265419476912879e+00
2.568828394421216466e+00
2.568828394421216466e+00
2.597516769920956925e+00
2.597516769920956925e+00
2.407573473311563461e+00
2.407573473311563461e+00
2.407573473311563461e+00
2.149753105258339403e+00
2.149753105258339403e+00
1.841868709372234347e+00
1.841868709372234347e+00
1.580860744041260979e+00
1.580860744041260979e+00
1.620424451429792301e+00
1.620424451429792301e+00
1.748490859706411937e+00
1.748490859706411937e+00
1.985873104037598758e+00
1.985873104037598758e+00
2.274256904812768987e+00
2.274256904812768987e+00
2.621705008087404920e+00
2.621705008087404920e+00
2.621705008087404920e+00
2.588141483809930588e+00
2.588141483809930588e+00
2.332196172978911797e+00
2.332196172978911797e+00
2.214442579424420909e+00
2.214442579424420909e+00
2.377385052034058699e+00
2.377385052034058699e+00
2.539952513199255080e+00
2.539952513199255080e+00
2.303507797479171337e+00
2.303507797479171337e+00
2.186129215369121415e+00
2.186129215369121415e+00
2.120877224036378017e+00
2.120877224036378017e+00
2.120877224036378017e+00
2.150128116702780368e+00
2.150128116702780368e+00
2.281569627979369130e+00
2.281569627979369130e+00
2.474325510422071162e+00
2.474325510422071162e+00
2.483325785088656090e+00
2.483325785088656090e+00
2.334258735923337547e+00
2.334258735923337547e+00
2.261131504257332114e+00
2.261131504257332114e+00
2.237318277535325084e+00
2.237318277535325084e+00
2.237318277535325084e+00
2.233943174535355514e+00
2.233943174535355514e+00
2.295445051423688376e+00
2.295445051423688376e+00
2.532639790032654936e+00
2.532639790032654936e+00
2.469637867366557771e+00
2.469637867366557771e+00
2.289257362590411127e+00
2.289257362590411127e+00
2.102501663258766751e+00
2.102501663258766751e+00
1.939559190649128739e+00
1.939559190649128739e+00
1.792367198706015241e+00
1.792367198706015241e+00
1.792367198706015241e+00
1.698614337595751866e+00
1.698614337595751866e+00
1.830430860316782260e+00
1.830430860316782260e+00
2.029561937314981801e+00
2.029561937314981801e+00
2.247631092257453833e+00
2.247631092257453833e+00
2.576516129032258018e+00
2.576516129032258018e+00
2.692394665364543638e+00
2.692394665364543638e+00
2.577641163365581356e+00
2.577641163365581356e+00
2.592829126865443978e+00
2.592829126865443978e+00
2.831336405529954359e+00
2.831336405529954359e+00
2.709082674642170563e+00
2.709082674642170563e+00
2.709082674642170563e+00
2.436074343089083438e+00
2.436074343089083438e+00
2.177316446424756524e+00
2.177316446424756524e+00
2.097814020203253360e+00
2.097814020203253360e+00
2.304070314645832784e+00
2.304070314645832784e+00
2.354321848200934042e+00
2.354321848200934042e+00
2.269194250312814631e+00
2.269194250312814631e+00
2.100251594592120075e+00
2.100251594592120075e+00
2.017374065370647340e+00
2.017374065370647340e+00
2.017374065370647340e+00
2.084688619647816488e+00
2.084688619647816488e+00
2.407948484756004870e+00
2.407948484756004870e+00
2.714707846308785921e+00
2.714707846308785921e+00
2.851587023529770892e+00
2.851587023529770892e+00
2.852712057863094230e+00
2.852712057863094230e+00
2.501326334421826836e+00
2.501326334421826836e+00
2.280819605090487201e+00
2.280819605090487201e+00
2.134940153202917745e+00
2.134940153202917745e+00
2.134940153202917745e+00
2.157065828424939546e+00
2.157065828424939546e+00
2.107001800592058771e+00
2.107001800592058771e+00
2.093313882869960452e+00
2.093313882869960452e+00
2.147878048036134135e+00
2.147878048036134135e+00
2.093688894314401416e+00
2.093688894314401416e+00
2.106251777703176842e+00
2.106251777703176842e+00
2.057125278481399366e+00
2.057125278481399366e+00
1.866431958983123307e+00
1.866431958983123307e+00
1.866431958983123307e+00
1.509796075319681297e+00
1.509796075319681297e+00
1.756928617206335641e+00
1.756928617206335641e+00
2.049437543870357370e+00
2.049437543870357370e+00
2.185754203924680450e+00
2.185754203924680450e+00
2.275944456312753772e+00
2.275944456312753772e+00
2.561890682699057287e+00
2.561890682699057287e+00
2.664643818475905590e+00
2.664643818475905590e+00
2.498513748588519157e+00
2.498513748588519157e+00
2.498513748588519157e+00
2.549890316476943308e+00
2.549890316476943308e+00
2.728020752586443720e+00
2.728020752586443720e+00
2.793272743919187118e+00
2.793272743919187118e+00
2.569765923032319321e+00
2.569765923032319321e+00
2.542390087588122238e+00
2.542390087588122238e+00
2.647955809198278665e+00
2.647955809198278665e+00
2.651705923642689200e+00
2.651705923642689200e+00
2.706270088808862440e+00
2.706270088808862440e+00
2.706270088808862440e+00
2.459700064088869986e+00
2.459700064088869986e+00
2.288507339701529197e+00
2.288507339701529197e+00
2.212567522202215642e+00
2.212567522202215642e+00
2.104564226203192501e+00
2.104564226203192501e+00
1.952122074037903943e+00
1.952122074037903943e+00
1.792367198706015241e+00
1.792367198706015241e+00
1.822743125705740486e+00
1.822743125705740486e+00
1.880869899594103778e+00
1.880869899594103778e+00
1.880869899594103778e+00
2.016436536759544484e+00
2.016436536759544484e+00
2.146002990813928868e+00
2.146002990813928868e+00
2.208067384868923178e+00
2.208067384868923178e+00
2.040249763481551515e+00
2.040249763481551515e+00
1.952497085482345129e+00
1.952497085482345129e+00
1.935246559038056535e+00
1.935246559038056535e+00
1.860056764427625353e+00
1.860056764427625353e+00
2.037624683370464318e+00
2.037624683370464318e+00
2.037624683370464318e+00
2.354884365367595489e+00
2.354884365367595489e+00
2.544452650532547988e+00
2.544452650532547988e+00
2.713020294808801580e+00
2.713020294808801580e+00
2.699144871364482778e+00
2.699144871364482778e+00
2.661268715475936020e+00
2.661268715475936020e+00
2.515764275032807085e+00
2.515764275032807085e+00
2.369697317423017147e+00
2.369697317423017147e+00
2.350946745200964472e+00
2.350946745200964472e+00
2.350946745200964472e+00
2.517076815088350905e+00
2.517076815088350905e+00
2.521951963866084778e+00
2.521951963866084778e+00
2.516514297921689458e+00
2.516514297921689458e+00
2.502451368755150174e+00
2.502451368755150174e+00
2.379447614978484449e+00
2.379447614978484449e+00
2.266944181646168399e+00
2.266944181646168399e+00
2.061812921536912313e+00
2.061812921536912313e+00
2.061812921536912313e+00
1.789179601428266375e+00
1.789179601428266375e+00
1.458419507431257145e+00
1.458419507431257145e+00
1.463107150486770092e+00
1.463107150486770092e+00
1.541859553819391548e+00
1.541859553819391548e+00
1.666175847651600872e+00
1.666175847651600872e+00
2.162315988647114828e+00
2.162315988647114828e+00
2.701582445753349493e+00
2.701582445753349493e+00
2.968028077028717959e+00
2.968028077028717959e+00
2.781459883419294066e+00
2.781459883419294066e+00
2.943652333140049482e+00
2.943652333140049482e+00
2.888525650807214795e+00
2.888525650807214795e+00
2.888525650807214795e+00
2.722958098086489809e+00
2.722958098086489809e+00
2.608204596087527527e+00
2.608204596087527527e+00
2.568453382976775501e+00
2.568453382976775501e+00
2.423511459700308013e+00
2.423511459700308013e+00
2.225692922757652514e+00
2.225692922757652514e+00
2.260568987090670667e+00
2.260568987090670667e+00
2.277819513534959039e+00
2.277819513534959039e+00
2.073063264870143918e+00
2.073063264870143918e+00
2.073063264870143918e+00
2.119564683980834197e+00
2.119564683980834197e+00
2.215192602313302839e+00
2.215192602313302839e+00
2.197192052980132537e+00
2.197192052980132537e+00
2.189129306924649576e+00
2.189129306924649576e+00
2.443762077700125435e+00
2.443762077700125435e+00
2.371572374645222414e+00
2.371572374645222414e+00
2.301820245979186552e+00
2.301820245979186552e+00
2.105501754814294912e+00
2.105501754814294912e+00
2.105501754814294912e+00
1.911808343760490692e+00
1.911808343760490692e+00
1.849368938261055417e+00
1.849368938261055417e+00
1.948371959593493630e+00
1.948371959593493630e+00
2.136065187536240639e+00
2.136065187536240639e+00
2.176378917813653668e+00
2.176378917813653668e+00
2.325258461256752618e+00
2.325258461256752618e+00
2.527952146977141545e+00
2.527952146977141545e+00
2.667643910031433752e+00
2.667643910031433752e+00
2.667643910031433752e+00
2.523452009643849081e+00
2.523452009643849081e+00
2.517076815088350905e+00
2.517076815088350905e+00
2.659393658253730752e+00
2.659393658253730752e+00
2.471325418866542556e+00
2.471325418866542556e+00
2.379822626422925413e+00
2.379822626422925413e+00
2.296757591479232197e+00
2.296757591479232197e+00
2.157253334147160473e+00
2.157253334147160473e+00
2.146190496536149350e+00
2.146190496536149350e+00
2.146190496536149350e+00
2.125189855647450443e+00
2.125189855647450443e+00
2.021874202703940249e+00
2.021874202703940249e+00
1.843556260872219132e+00
1.843556260872219132e+00
1.799679921872615829e+00
1.799679921872615829e+00
1.826680745872371503e+00
1.826680745872371503e+00
1.861556810205389434e+00
1.861556810205389434e+00
2.032187017426068998e+00
2.032187017426068998e+00
2.449199743644520311e+00
2.449199743644520311e+00
2.449199743644520311e+00
2.657331095309305002e+00
2.657331095309305002e+00
2.603141941587572727e+00
2.603141941587572727e+00
2.661268715475936020e+00
2.661268715475936020e+00
2.785209997863704157e+00
2.785209997863704157e+00
2.692019653920102229e+00
2.692019653920102229e+00
2.411886104922635443e+00
2.411886104922635443e+00
2.210692464980010374e+00
2.210692464980010374e+00
2.086188665425580790e+00
2.086188665425580790e+00
2.086188665425580790e+00
2.058062807092501334e+00
2.058062807092501334e+00
2.087876216925565576e+00
2.087876216925565576e+00
2.200754661702322146e+00
2.200754661702322146e+00
2.344759056367687222e+00
2.344759056367687222e+00
2.468512833033234433e+00
2.468512833033234433e+00
2.711332743308816795e+00
2.711332743308816795e+00
2.554577959532456255e+00
2.554577959532456255e+00
2.554577959532456255e+00
2.401948301644947659e+00
2.401948301644947659e+00
2.361072054200873183e+00
2.361072054200873183e+00
2.340821436201055761e+00
2.340821436201055761e+00
2.331446150090029423e+00
2.331446150090029423e+00
2.289632374034852091e+00
2.289632374034852091e+00
2.317758232367931104e+00
2.317758232367931104e+00
2.257193884090700653e+00
2.257193884090700653e+00
2.150503128147221332e+00
2.150503128147221332e+00
2.150503128147221332e+00
2.124627338480788552e+00
2.124627338480788552e+00
2.031999511703848516e+00
2.031999511703848516e+00
1.957747245704519745e+00
1.957747245704519745e+00
2.103064180425428198e+00
2.103064180425428198e+00
2.266569170201727434e+00
2.266569170201727434e+00
2.029186925870540392e+00
2.029186925870540392e+00
1.914433423871578110e+00
1.914433423871578110e+00
1.978185369426557427e+00
1.978185369426557427e+00
1.978185369426557427e+00
2.072500747703482027e+00
2.072500747703482027e+00
2.152565691091647082e+00
2.152565691091647082e+00
2.316258186590166801e+00
2.316258186590166801e+00
2.624517593920713043e+00
2.624517593920713043e+00
2.687894528031251173e+00
2.687894528031251173e+00
2.715832880642109259e+00
2.715832880642109259e+00
2.649080843531602003e+00
2.649080843531602003e+00
2.539202490310373150e+00
2.539202490310373150e+00
2.383760246589556875e+00
2.383760246589556875e+00
2.426324045533616136e+00
2.426324045533616136e+00
2.426324045533616136e+00
2.430261665700247153e+00
2.430261665700247153e+00
2.316820703756828248e+00
2.316820703756828248e+00
2.295632557145908859e+00
2.295632557145908859e+00
2.276506973479415219e+00
2.276506973479415219e+00
2.198692098757896396e+00
2.198692098757896396e+00
2.094251411481063307e+00
2.094251411481063307e+00
2.067625598925748598e+00
2.067625598925748598e+00
2.071375713370158689e+00
2.071375713370158689e+00
1.992623310037537676e+00
1.992623310037537676e+00
1.992623310037537676e+00
2.083938596758934114e+00
2.083938596758934114e+00
2.209379924924466998e+00
2.209379924924466998e+00
2.121814752647480873e+00
2.121814752647480873e+00
2.050937589648121673e+00
2.050937589648121673e+00
2.333133701590014208e+00
2.333133701590014208e+00
2.432324228644673347e+00
2.432324228644673347e+00
2.430261665700247153e+00
2.430261665700247153e+00
2.443762077700125435e+00
2.443762077700125435e+00
2.443762077700125435e+00
2.471512924588763038e+00
2.471512924588763038e+00
2.489513473921933784e+00
2.489513473921933784e+00
2.455949949644459451e+00
2.455949949644459451e+00
2.463075167088839557e+00
2.463075167088839557e+00
2.462887661366619074e+00
2.462887661366619074e+00
2.401948301644947659e+00
2.401948301644947659e+00
2.356009399700918827e+00
2.356009399700918827e+00
2.275944456312753772e+00
2.275944456312753772e+00
2.275944456312753772e+00
2.145440473647266977e+00
2.145440473647266977e+00
2.037999694814905283e+00
2.037999694814905283e+00
2.288882351145970162e+00
2.288882351145970162e+00
2.298820154423657947e+00
2.298820154423657947e+00
2.284382213812677254e+00
2.284382213812677254e+00
2.314758140812402942e+00
2.314758140812402942e+00
2.331071138645588459e+00
2.331071138645588459e+00
2.337446333201086635e+00
2.337446333201086635e+00
2.337446333201086635e+00
2.338383861812189490e+00
2.338383861812189490e+00
2.386385326700643628e+00
2.386385326700643628e+00
2.318133243812372069e+00
2.318133243812372069e+00
2.227942991424298746e+00
2.227942991424298746e+00
2.175441389202551257e+00
2.175441389202551257e+00
2.190066835535752432e+00
2.190066835535752432e+00
2.056562761314737475e+00
2.056562761314737475e+00
2.141877864925076924e+00
2.141877864925076924e+00
2.367072237311929506e+00
2.367072237311929506e+00
2.367072237311929506e+00
2.311758049256874337e+00
2.311758049256874337e+00
2.301070223090304623e+00
2.301070223090304623e+00
2.295070039979247412e+00
2.295070039979247412e+00
2.267506698812830290e+00
2.267506698812830290e+00
2.281569627979369130e+00
2.281569627979369130e+00
2.320945829645680192e+00
2.320945829645680192e+00
2.352821802423169739e+00
2.352821802423169739e+00
2.352821802423169739e+00
2.257943906979583026e+00
2.257943906979583026e+00
2.228693014313181120e+00
2.228693014313181120e+00
2.225505417035432032e+00
2.225505417035432032e+00
2.230943082979827352e+00
2.230943082979827352e+00
2.136815210425123013e+00
2.136815210425123013e+00
2.256256355479598685e+00
2.256256355479598685e+00
2.401198278756065729e+00
2.401198278756065729e+00
2.396510635700552783e+00
2.396510635700552783e+00
2.396510635700552783e+00
2.368572283089693808e+00
2.368572283089693808e+00
2.253068758201849597e+00
2.253068758201849597e+00
2.206004821924497428e+00
2.206004821924497428e+00
2.153128208258308529e+00
2.153128208258308529e+00
2.187066743980223826e+00
2.187066743980223826e+00
2.283819696646015807e+00
2.283819696646015807e+00
2.258318918424023991e+00
2.258318918424023991e+00
2.177691457869197489e+00
2.177691457869197489e+00
2.177691457869197489e+00
2.124252327036347587e+00
2.124252327036347587e+00
2.101751640369884377e+00
2.101751640369884377e+00
2.107564317758720662e+00
2.107564317758720662e+00
2.411698599200414961e+00
2.411698599200414961e+00
2.491201025421918569e+00
2.491201025421918569e+00
2.452762352366710363e+00
2.452762352366710363e+00
2.425761528366954689e+00
2.425761528366954689e+00
2.376260017700735361e+00
2.376260017700735361e+00
2.376260017700735361e+00
2.312883083590197675e+00
2.312883083590197675e+00
2.307257911923581428e+00
2.307257911923581428e+00
2.335196264534440402e+00
2.335196264534440402e+00
2.279694570757164307e+00
2.279694570757164307e+00
2.216130130924405695e+00
2.216130130924405695e+00
2.174128849147007880e+00
2.174128849147007880e+00
2.199067110202337361e+00
2.199067110202337361e+00
2.203942258980071234e+00
2.203942258980071234e+00
2.265256630146183614e+00
2.265256630146183614e+00
2.512951689199499850e+00
2.512951689199499850e+00
2.512951689199499850e+00
2.389572923978392716e+00
2.389572923978392716e+00
2.249506149479659545e+00
2.249506149479659545e+00
2.179941526535844165e+00
2.179941526535844165e+00
2.158190862758262885e+00
2.158190862758262885e+00
2.164378551591540134e+00
2.164378551591540134e+00
2.185191686758019003e+00
2.185191686758019003e+00
2.299007660145878429e+00
2.299007660145878429e+00
2.290569902645954947e+00
2.290569902645954947e+00
2.290569902645954947e+00
2.374384960478530537e+00
2.374384960478530537e+00
2.439636951811273491e+00
2.439636951811273491e+00
2.417136265144810281e+00
2.417136265144810281e+00
2.224755394146549659e+00
2.224755394146549659e+00
2.200567155980101663e+00
2.200567155980101663e+00
2.325258461256752618e+00
2.325258461256752618e+00
2.297320108645893644e+00
2.297320108645893644e+00
2.301070223090304623e+00
2.301070223090304623e+00
2.301070223090304623e+00
2.341383953367717208e+00
2.341383953367717208e+00
2.344196539201025331e+00
2.344196539201025331e+00
2.341196447645496725e+00
2.341196447645496725e+00
2.380385143589587305e+00
2.380385143589587305e+00
2.408511001922666317e+00
2.408511001922666317e+00
2.340821436201055761e+00
2.340821436201055761e+00
2.280444593646046680e+00
2.280444593646046680e+00
2.246131046479689974e+00
2.246131046479689974e+00
2.246131046479689974e+00
2.179379009369182274e+00
2.179379009369182274e+00
2.077563402203436382e+00
2.077563402203436382e+00
2.256631366924039650e+00
2.256631366924039650e+00
2.352634296700948813e+00
2.352634296700948813e+00
2.327696035645618888e+00
2.327696035645618888e+00
2.330321115756706529e+00
2.330321115756706529e+00
2.306132877590258534e+00
2.306132877590258534e+00
2.285507248146000592e+00
2.285507248146000592e+00
2.270694296090578934e+00
2.270694296090578934e+00
2.270694296090578934e+00
2.282694662312692468e+00
2.282694662312692468e+00
2.259631458479567812e+00
2.259631458479567812e+00
2.214255073702200427e+00
2.214255073702200427e+00
2.178253975035859380e+00
2.178253975035859380e+00
2.158003357036042402e+00
2.158003357036042402e+00
2.173753837702566916e+00
2.173753837702566916e+00
2.168503677480392078e+00
2.168503677480392078e+00
2.434761803033539618e+00
2.434761803033539618e+00
2.434761803033539618e+00
2.423698965422528495e+00
2.423698965422528495e+00
2.354509353923154524e+00
2.354509353923154524e+00
2.315883175145725836e+00
2.315883175145725836e+00
2.272006836146122755e+00
2.272006836146122755e+00
2.256818872646260132e+00
2.256818872646260132e+00
2.240130863368633207e+00
2.240130863368633207e+00
2.284194708090456771e+00
2.284194708090456771e+00
2.229068025757622085e+00
2.229068025757622085e+00
2.208629902035584625e+00
2.208629902035584625e+00
2.208629902035584625e+00
2.235068208868678852e+00
2.235068208868678852e+00
2.292257454145939732e+00
2.292257454145939732e+00
2.203754753257850751e+00
2.203754753257850751e+00
2.252693746757408633e+00
2.252693746757408633e+00
2.415636219367045978e+00
2.415636219367045978e+00
2.294695028534806447e+00
2.294695028534806447e+00
2.239380840479750834e+00
2.239380840479750834e+00
2.267506698812830290e+00
2.267506698812830290e+00
2.267506698812830290e+00
2.296382580034791232e+00
2.296382580034791232e+00
2.292444959868159771e+00
2.292444959868159771e+00
2.301445234534745587e+00
2.301445234534745587e+00
2.328071047090059853e+00
2.328071047090059853e+00
2.275006927701650916e+00
2.275006927701650916e+00
2.285507248146000592e+00
2.285507248146000592e+00
2.296195074312570750e+00
2.296195074312570750e+00
2.296195074312570750e+00
2.293382488479262626e+00
2.293382488479262626e+00
2.131940061647389140e+00
2.131940061647389140e+00
2.225692922757652514e+00
2.225692922757652514e+00
2.356946928312021239e+00
2.356946928312021239e+00
2.282507156590471986e+00
2.282507156590471986e+00
2.255131321146275347e+00
2.255131321146275347e+00
2.281944639423810539e+00
2.281944639423810539e+00
2.282694662312692468e+00
2.282694662312692468e+00
2.297320108645893644e+00
2.297320108645893644e+00
2.297320108645893644e+00
2.316445692312387283e+00
2.316445692312387283e+00
2.297695120090334608e+00
2.297695120090334608e+00
2.256818872646260132e+00
2.256818872646260132e+00
2.206942350535599839e+00
2.206942350535599839e+00
2.205442304757835537e+00
2.205442304757835537e+00
2.083001068147831703e+00
2.083001068147831703e+00
2.026561845759453195e+00
2.026561845759453195e+00
2.325258461256752618e+00
2.325258461256752618e+00
2.383947752311777357e+00
2.383947752311777357e+00
2.383947752311777357e+00
2.328633564256721744e+00
2.328633564256721744e+00
2.367259743034150432e+00
2.367259743034150432e+00
2.391447981200597983e+00
2.391447981200597983e+00
2.358259468367565059e+00
2.358259468367565059e+00
2.319070772423474924e+00
2.319070772423474924e+00
2.374384960478530537e+00
2.374384960478530537e+00
2.344384044923245813e+00
2.344384044923245813e+00
2.284944730979339145e+00
2.284944730979339145e+00
2.284944730979339145e+00
2.246693563646351421e+00
2.246693563646351421e+00
2.277444502090518075e+00
2.277444502090518075e+00
2.258318918424023991e+00
2.258318918424023991e+00
2.217255165257729033e+00
2.217255165257729033e+00
2.339321390423291458e+00
2.339321390423291458e+00
2.217255165257729033e+00
2.217255165257729033e+00
2.164378551591540134e+00
2.164378551591540134e+00
2.220442762535478121e+00
2.220442762535478121e+00
2.220442762535478121e+00
2.307445417645802355e+00
2.307445417645802355e+00
2.370072328867458111e+00
2.370072328867458111e+00
2.348321665089877275e+00
2.348321665089877275e+00
2.372134891811884305e+00
2.372134891811884305e+00
2.317570726645710621e+00
2.317570726645710621e+00
2.291694936979278285e+00
2.291694936979278285e+00
2.260756492812891150e+00
2.260756492812891150e+00
2.239380840479750834e+00
2.239380840479750834e+00
2.239380840479750834e+00
2.134565141758476781e+00
2.134565141758476781e+00
2.210692464980010374e+00
2.210692464980010374e+00
2.382822717978454019e+00
2.382822717978454019e+00
2.313070589312418157e+00
2.313070589312418157e+00
2.283444685201574842e+00
2.283444685201574842e+00
2.273319376201666131e+00
2.273319376201666131e+00
2.276131962034974254e+00
2.276131962034974254e+00
2.311758049256874337e+00
2.311758049256874337e+00
2.311758049256874337e+00
2.354696859645375007e+00
2.354696859645375007e+00
2.385072786645100695e+00
2.385072786645100695e+00
2.269944273201696561e+00
2.269944273201696561e+00
2.189129306924649576e+00
2.189129306924649576e+00
2.161378460036011973e+00
2.161378460036011973e+00
2.123127292703024249e+00
2.123127292703024249e+00
2.063687978759117581e+00
2.063687978759117581e+00
2.294132511368144556e+00
2.294132511368144556e+00
2.424073976866969904e+00
2.424073976866969904e+00
2.424073976866969904e+00
2.373822443311869090e+00
2.373822443311869090e+00
2.346071596423230599e+00
2.346071596423230599e+00
2.323383404034546906e+00
2.323383404034546906e+00
2.293569994201483109e+00
2.293569994201483109e+00
2.314008117923521013e+00
2.314008117923521013e+00
2.371759880367442896e+00
2.371759880367442896e+00
2.349634205145421095e+00
2.349634205145421095e+00
2.291507431257057803e+00
2.291507431257057803e+00
2.291507431257057803e+00
2.253256263924070080e+00
2.253256263924070080e+00
2.222317819757682944e+00
2.222317819757682944e+00
2.157815851313821920e+00
2.157815851313821920e+00
2.093688894314401416e+00
2.093688894314401416e+00
2.326195989867855030e+00
2.326195989867855030e+00
2.349634205145421095e+00
2.349634205145421095e+00
2.344946562089907705e+00
2.344946562089907705e+00
2.368197271645252844e+00
2.368197271645252844e+00
2.368197271645252844e+00
2.353759331034272151e+00
2.353759331034272151e+00
2.298632648701437464e+00
2.298632648701437464e+00
2.253631275368511044e+00
2.253631275368511044e+00
2.281569627979369130e+00
2.281569627979369130e+00
2.220442762535478121e+00
2.220442762535478121e+00
2.214067567979979945e+00
2.214067567979979945e+00
2.176378917813653668e+00
2.176378917813653668e+00
2.221567796868801015e+00
2.221567796868801015e+00
2.221567796868801015e+00
2.154253242591631867e+00
2.154253242591631867e+00
2.130252510147404355e+00
2.130252510147404355e+00
2.355634388256477418e+00
2.355634388256477418e+00
2.279507065034943825e+00
2.279507065034943825e+00
2.255693838312936794e+00
2.255693838312936794e+00
2.289819879757073018e+00
2.289819879757073018e+00
2.335758781701101849e+00
2.335758781701101849e+00
2.403260841700491479e+00
2.403260841700491479e+00
2.413761162144840711e+00
2.413761162144840711e+00
2.413761162144840711e+00
2.381885189367351607e+00
2.381885189367351607e+00
2.281194616534928166e+00
2.281194616534928166e+00
2.227755485702078264e+00
2.227755485702078264e+00
2.110939420758690233e+00
2.110939420758690233e+00
2.083001068147831703e+00
2.083001068147831703e+00
2.122752281258583285e+00
2.122752281258583285e+00
2.336133793145542814e+00
2.336133793145542814e+00
2.529264687032685366e+00
2.529264687032685366e+00
2.513139194921720332e+00
2.513139194921720332e+00
2.463637684255501004e+00
2.463637684255501004e+00
2.463637684255501004e+00
2.386760338145085036e+00
2.386760338145085036e+00
2.330883632923367976e+00
2.330883632923367976e+00
2.300132694479201767e+00
2.300132694479201767e+00
2.309695486312448587e+00
2.309695486312448587e+00
2.266756675923947917e+00
2.266756675923947917e+00
2.199629627368999252e+00
2.199629627368999252e+00
2.145440473647266977e+00
2.145440473647266977e+00
2.118814661091952267e+00
2.118814661091952267e+00
2.118814661091952267e+00
2.139065279091769245e+00
2.139065279091769245e+00
2.110376903592028786e+00
2.110376903592028786e+00
2.305757866145817125e+00
2.305757866145817125e+00
2.360884548478652700e+00
2.360884548478652700e+00
2.317570726645710621e+00
2.317570726645710621e+00
2.311195532090212890e+00
2.311195532090212890e+00
2.335196264534440402e+00
2.335196264534440402e+00
2.304445326090273749e+00
2.304445326090273749e+00
2.304445326090273749e+00
2.305007843256935196e+00
2.305007843256935196e+00
2.354884365367595489e+00
2.354884365367595489e+00
2.341946470534379099e+00
2.341946470534379099e+00
2.301070223090304623e+00
2.301070223090304623e+00
2.263194067201757864e+00
2.263194067201757864e+00
2.272006836146122755e+00
2.272006836146122755e+00
2.203567247535630269e+00
2.203567247535630269e+00
2.164941068758201581e+00
2.164941068758201581e+00
2.385260292367321178e+00
2.385260292367321178e+00
2.324133426923429280e+00
2.324133426923429280e+00
2.324133426923429280e+00
2.272194341868343237e+00
2.272194341868343237e+00
2.275006927701650916e+00
2.275006927701650916e+00
2.257943906979583026e+00
2.257943906979583026e+00
2.236193243202001746e+00
2.236193243202001746e+00
2.256631366924039650e+00
2.256631366924039650e+00
2.365759697256386129e+00
2.365759697256386129e+00
2.362947111423078006e+00
2.362947111423078006e+00
2.331071138645588459e+00
2.331071138645588459e+00
2.244068483535264225e+00
2.244068483535264225e+00
2.226630451368755370e+00
2.226630451368755370e+00
2.226630451368755370e+00
2.145815485091708386e+00
2.145815485091708386e+00
2.199067110202337361e+00
2.199067110202337361e+00
2.371759880367442896e+00
2.371759880367442896e+00
2.294882534257026929e+00
2.294882534257026929e+00
2.254568803979613900e+00
2.254568803979613900e+00
2.270694296090578934e+00
2.270694296090578934e+00
2.253631275368511044e+00
2.253631275368511044e+00
2.217442670979949515e+00
2.217442670979949515e+00
2.217442670979949515e+00
2.196442030091250608e+00
2.196442030091250608e+00
2.255318826868495830e+00
2.255318826868495830e+00
2.221755302591021497e+00
2.221755302591021497e+00
2.173191320535905025e+00
2.173191320535905025e+00
2.079813470870083059e+00
2.079813470870083059e+00
2.117689626758628929e+00
2.117689626758628929e+00
2.165128574480422063e+00
2.165128574480422063e+00
2.424636494033631351e+00
2.424636494033631351e+00
2.424636494033631351e+00
2.604641987365337030e+00
2.604641987365337030e+00
2.553265419476912879e+00
2.553265419476912879e+00
2.482388256477553679e+00
2.482388256477553679e+00
2.387322855311746483e+00
2.387322855311746483e+00
2.312320566423536228e+00
2.312320566423536228e+00
2.315508163701284872e+00
2.315508163701284872e+00
2.348509170812097757e+00
2.348509170812097757e+00
2.350384228034303025e+00
2.350384228034303025e+00
2.350384228034303025e+00
2.279132053590502860e+00
2.279132053590502860e+00
2.242380932035279439e+00
2.242380932035279439e+00
2.219880245368816230e+00
2.219880245368816230e+00
2.170003723258155937e+00
2.170003723258155937e+00
2.108876857814264483e+00
2.108876857814264483e+00
2.359759514145329362e+00
2.359759514145329362e+00
2.365759697256386129e+00
2.365759697256386129e+00
2.272756859035004684e+00
2.272756859035004684e+00
2.243693472090823260e+00
2.243693472090823260e+00
2.243693472090823260e+00
2.246881069368571904e+00
2.246881069368571904e+00
2.238630817590868904e+00
2.238630817590868904e+00
2.249693655201880027e+00
2.249693655201880027e+00
2.316820703756828248e+00
2.316820703756828248e+00
2.265444135868404540e+00
2.265444135868404540e+00
2.270319284646137969e+00
2.270319284646137969e+00
2.291507431257057803e+00
2.291507431257057803e+00
2.301632740256966070e+00
2.301632740256966070e+00
2.301632740256966070e+00
2.196629535813471090e+00
2.196629535813471090e+00
2.205817316202276945e+00
2.205817316202276945e+00
2.432886745811334794e+00
2.432886745811334794e+00
2.370822351756340485e+00
2.370822351756340485e+00
2.312133060701315301e+00
2.312133060701315301e+00
2.300507705923642732e+00
2.300507705923642732e+00
2.277069490646077110e+00
2.277069490646077110e+00
2.245193517868587563e+00
2.245193517868587563e+00
2.263756584368419311e+00
2.263756584368419311e+00
2.263756584368419311e+00
2.348509170812097757e+00
2.348509170812097757e+00
2.242380932035279439e+00
2.242380932035279439e+00
2.195879512924588717e+00
2.195879512924588717e+00
2.173753837702566916e+00
2.173753837702566916e+00
2.151253151036103706e+00
2.151253151036103706e+00
2.046999969481490211e+00
2.046999969481490211e+00
2.165691091647083955e+00
2.165691091647083955e+00
2.363509628589739453e+00
2.363509628589739453e+00
2.363509628589739453e+00
2.344759056367687222e+00
2.344759056367687222e+00
2.364822168645283273e+00
2.364822168645283273e+00
2.367634754478591397e+00
2.367634754478591397e+00
2.342133976256599581e+00
2.342133976256599581e+00
2.343446516312143402e+00
2.343446516312143402e+00
2.357134434034241721e+00
2.357134434034241721e+00
2.369322305978576182e+00
2.369322305978576182e+00
2.302195257423627517e+00
2.302195257423627517e+00
2.302195257423627517e+00
2.279319559312723342e+00
2.279319559312723342e+00
2.269569261757255596e+00
2.269569261757255596e+00
2.228505508590960638e+00
2.228505508590960638e+00
2.147878048036134135e+00
2.147878048036134135e+00
2.339883907589953349e+00
2.339883907589953349e+00
2.368384777367473326e+00
2.368384777367473326e+00
2.304070314645832784e+00
2.304070314645832784e+00
2.306507889034699499e+00
2.306507889034699499e+00
2.306507889034699499e+00
2.300320200201422249e+00
2.300320200201422249e+00
2.255881344035157721e+00
2.255881344035157721e+00
2.233568163090914993e+00
2.233568163090914993e+00
2.271069307535019899e+00
2.271069307535019899e+00
2.275756950590533290e+00
2.275756950590533290e+00
2.222880336924344391e+00
2.222880336924344391e+00
2.189691824091311467e+00
2.189691824091311467e+00
2.245006012146367080e+00
2.245006012146367080e+00
2.245006012146367080e+00
2.241818414868617992e+00
2.241818414868617992e+00
2.198317087313455875e+00
2.198317087313455875e+00
2.445824640644550740e+00
2.445824640644550740e+00
2.398385692922757606e+00
2.398385692922757606e+00
2.306882900479140464e+00
2.306882900479140464e+00
2.299570177312540320e+00
2.299570177312540320e+00
2.275194433423871843e+00
2.275194433423871843e+00
2.239005829035309869e+00
2.239005829035309869e+00
2.239005829035309869e+00
2.253443769646290562e+00
2.253443769646290562e+00
2.310633014923550999e+00
2.310633014923550999e+00
2.284757225257118218e+00
2.284757225257118218e+00
2.274631916257209951e+00
2.274631916257209951e+00
2.255881344035157721e+00
2.255881344035157721e+00
2.226067934202093479e+00
2.226067934202093479e+00
2.083751091036713632e+00
2.083751091036713632e+00
2.198317087313455875e+00
2.198317087313455875e+00
2.198317087313455875e+00
2.464200201422162451e+00
2.464200201422162451e+00
2.416761253700369316e+00
2.416761253700369316e+00
2.345884090701010116e+00
2.345884090701010116e+00
2.292819971312600735e+00
2.292819971312600735e+00
2.266569170201727434e+00
2.266569170201727434e+00
2.254193792535172935e+00
2.254193792535172935e+00
2.248568620868556689e+00
2.248568620868556689e+00
2.285507248146000592e+00
2.285507248146000592e+00
2.285507248146000592e+00
2.236193243202001746e+00
2.236193243202001746e+00
2.244068483535264225e+00
2.244068483535264225e+00
2.251006195257423848e+00
2.251006195257423848e+00
2.271256813257240381e+00
2.271256813257240381e+00
2.210504959257789892e+00
2.210504959257789892e+00
2.318133243812372069e+00
2.318133243812372069e+00
2.405135898922696747e+00
2.405135898922696747e+00
2.331071138645588459e+00
2.331071138645588459e+00
2.331071138645588459e+00
2.296007568590349823e+00
2.296007568590349823e+00
2.263006561479537382e+00
2.263006561479537382e+00
2.248756126590777171e+00
2.248756126590777171e+00
2.203192236091189304e+00
2.203192236091189304e+00
2.216692648091067142e+00
2.216692648091067142e+00
2.250631183812982439e+00
2.250631183812982439e+00
2.215380108035523765e+00
2.215380108035523765e+00
2.214442579424420909e+00
2.214442579424420909e+00
2.252506241035188150e+00
2.252506241035188150e+00
2.252506241035188150e+00
2.227942991424298746e+00
2.227942991424298746e+00
2.126127384258552855e+00
2.126127384258552855e+00
2.354884365367595489e+00
2.354884365367595489e+00
2.377197546311838217e+00
2.377197546311838217e+00
2.335383770256660885e+00
2.335383770256660885e+00
2.378510086367381593e+00
2.378510086367381593e+00
2.393510544145024177e+00
2.393510544145024177e+00
2.349634205145421095e+00
2.349634205145421095e+00
2.319820795312356854e+00
2.319820795312356854e+00
2.319820795312356854e+00
2.341571459089938134e+00
2.341571459089938134e+00
2.296007568590349823e+00
2.296007568590349823e+00
