2.094063905758842381e+00
2.176191412091433186e+00
2.176191412091433186e+00
2.176191412091433186e+00
2.506951506088442638e+00
2.506951506088442638e+00
2.506951506088442638e+00
2.327883541367839371e+00
2.327883541367839371e+00
2.327883541367839371e+00
2.327883541367839371e+00
2.287944822534867306e+00
2.287944822534867306e+00
2.287944822534867306e+00
2.306132877590258534e+00
2.306132877590258534e+00
2.306132877590258534e+00
2.289819879757073018e+00
2.289819879757073018e+00
2.289819879757073018e+00
2.289819879757073018e+00
2.280632099368266719e+00
2.280632099368266719e+00
2.280632099368266719e+00
2.299945188756981285e+00
2.299945188756981285e+00
2.299945188756981285e+00
2.299945188756981285e+00
2.389760429700613198e+00
2.389760429700613198e+00
2.389760429700613198e+00
2.236943266090884119e+00
2.236943266090884119e+00
2.236943266090884119e+00
2.217817682424390480e+00
2.217817682424390480e+00
2.217817682424390480e+00
2.217817682424390480e+00
2.195692007202368234e+00
2.195692007202368234e+00
2.195692007202368234e+00
2.191191869869075770e+00
2.191191869869075770e+00
2.191191869869075770e+00
2.104189214758751536e+00
2.104189214758751536e+00
2.104189214758751536e+00
2.104189214758751536e+00
2.302945280312509890e+00
2.302945280312509890e+00
2.302945280312509890e+00
2.446574663533433114e+00
2.446574663533433114e+00
2.446574663533433114e+00
2.446574663533433114e+00
2.296945097201452679e+00
2.296945097201452679e+00
2.296945097201452679e+00
2.286069765312662039e+00
2.286069765312662039e+00
2.286069765312662039e+00
2.295257545701467894e+00
2.295257545701467894e+00
2.295257545701467894e+00
2.295257545701467894e+00
2.293007477034821662e+00
2.293007477034821662e+00
2.293007477034821662e+00
2.285694753868221074e+00
2.285694753868221074e+00
2.285694753868221074e+00
2.349071687978759204e+00
2.349071687978759204e+00
2.349071687978759204e+00
2.349071687978759204e+00
2.338571367534409973e+00
2.338571367534409973e+00
2.338571367534409973e+00
2.243318460646382295e+00
2.243318460646382295e+00
2.243318460646382295e+00
2.220630268257698603e+00
2.220630268257698603e+00
2.220630268257698603e+00
2.220630268257698603e+00
2.221567796868801015e+00
2.221567796868801015e+00
2.221567796868801015e+00
2.157815851313821920e+00
2.157815851313821920e+00
2.157815851313821920e+00
2.067438093203528116e+00
2.067438093203528116e+00
2.067438093203528116e+00
2.413948667867061193e+00
2.413948667867061193e+00
2.413948667867061193e+00
2.362947111423078006e+00
2.362947111423078006e+00
2.362947111423078006e+00
2.267506698812830290e+00
2.267506698812830290e+00
2.267506698812830290e+00
2.267506698812830290e+00
2.267506698812830290e+00
2.267506698812830290e+00
2.267506698812830290e+00
2.274444410534989469e+00
2.274444410534989469e+00
2.274444410534989469e+00
2.280069582201605716e+00
2.280069582201605716e+00
2.280069582201605716e+00
2.280069582201605716e+00
2.297882625812555535e+00
2.297882625812555535e+00
2.297882625812555535e+00
2.405510910367137711e+00
2.405510910367137711e+00
2.405510910367137711e+00
2.302945280312509890e+00
2.302945280312509890e+00
2.302945280312509890e+00
2.302945280312509890e+00
2.255506332590716312e+00
2.255506332590716312e+00
2.255506332590716312e+00
2.233380657368694511e+00
2.233380657368694511e+00
2.233380657368694511e+00
2.253256263924070080e+00
2.253256263924070080e+00
2.253256263924070080e+00
2.253256263924070080e+00
2.123502304147465658e+00
2.123502304147465658e+00
2.123502304147465658e+00
2.106439283425397324e+00
2.106439283425397324e+00
2.106439283425397324e+00
2.489325968199713301e+00
2.489325968199713301e+00
2.489325968199713301e+00
2.328633564256721744e+00
2.328633564256721744e+00
2.328633564256721744e+00
2.328633564256721744e+00
2.275194433423871843e+00
2.275194433423871843e+00
2.275194433423871843e+00
2.284007202368236289e+00
2.284007202368236289e+00
2.284007202368236289e+00
2.279132053590502860e+00
2.279132053590502860e+00
2.279132053590502860e+00
2.279132053590502860e+00
2.274444410534989469e+00
2.274444410534989469e+00
2.274444410534989469e+00
2.272944364757225166e+00
2.272944364757225166e+00
2.272944364757225166e+00
2.402135807367168141e+00
2.402135807367168141e+00
2.402135807367168141e+00
2.402135807367168141e+00
2.238818323313089387e+00
2.238818323313089387e+00
2.238818323313089387e+00
2.235443220313119816e+00
2.235443220313119816e+00
2.235443220313119816e+00
2.217630176702169997e+00
2.217630176702169997e+00
2.217630176702169997e+00
2.217630176702169997e+00
2.206004821924497428e+00
2.206004821924497428e+00
2.206004821924497428e+00
2.069500656147953865e+00
2.069500656147953865e+00
2.069500656147953865e+00
2.211067476424451339e+00
2.211067476424451339e+00
2.211067476424451339e+00
2.211067476424451339e+00
2.479013153477584552e+00
2.479013153477584552e+00
2.479013153477584552e+00
2.350571733756523507e+00
2.350571733756523507e+00
2.350571733756523507e+00
2.309507980590228104e+00
2.309507980590228104e+00
2.309507980590228104e+00
2.309507980590228104e+00
2.285882259590441556e+00
2.285882259590441556e+00
2.285882259590441556e+00
2.257381389812921579e+00
2.257381389812921579e+00
2.257381389812921579e+00
2.258318918424023991e+00
2.258318918424023991e+00
2.258318918424023991e+00
2.258318918424023991e+00
2.323195898312326424e+00
2.323195898312326424e+00
2.323195898312326424e+00
2.371572374645222414e+00
2.371572374645222414e+00
2.371572374645222414e+00
2.249131138035218136e+00
2.249131138035218136e+00
2.249131138035218136e+00
2.249131138035218136e+00
2.218755211035493335e+00
2.218755211035493335e+00
2.218755211035493335e+00
2.202817224646748340e+00
2.202817224646748340e+00
2.202817224646748340e+00
2.202817224646748340e+00
2.159315897091586223e+00
2.159315897091586223e+00
2.159315897091586223e+00
2.079813470870083059e+00
2.079813470870083059e+00
2.079813470870083059e+00
2.380572649311807787e+00
2.380572649311807787e+00
2.380572649311807787e+00
2.380572649311807787e+00
2.432324228644673347e+00
2.432324228644673347e+00
2.432324228644673347e+00
2.293757499923703591e+00
2.293757499923703591e+00
2.293757499923703591e+00
2.284194708090456771e+00
2.284194708090456771e+00
2.284194708090456771e+00
2.284194708090456771e+00
2.281382122257148648e+00
2.281382122257148648e+00
2.281382122257148648e+00
2.282882168034912951e+00
2.282882168034912951e+00
2.282882168034912951e+00
2.292069948423719250e+00
2.292069948423719250e+00
2.292069948423719250e+00
2.292069948423719250e+00
2.388635395367290304e+00
2.388635395367290304e+00
2.388635395367290304e+00
2.334071230201117064e+00
2.334071230201117064e+00
2.334071230201117064e+00
2.234130680257575996e+00
2.234130680257575996e+00
2.234130680257575996e+00
2.234130680257575996e+00
2.211629993591112786e+00
2.211629993591112786e+00
2.211629993591112786e+00
2.237693288979766049e+00
2.237693288979766049e+00
2.237693288979766049e+00
2.132877590258491995e+00
2.132877590258491995e+00
2.132877590258491995e+00
2.132877590258491995e+00
2.066125553147984295e+00
2.066125553147984295e+00
2.066125553147984295e+00
2.461200109866634289e+00
2.461200109866634289e+00
2.461200109866634289e+00
2.350009216589862060e+00
2.350009216589862060e+00
2.350009216589862060e+00
2.350009216589862060e+00
2.268631733146153184e+00
2.268631733146153184e+00
2.268631733146153184e+00
2.270131778923917043e+00
2.270131778923917043e+00
2.270131778923917043e+00
2.279694570757164307e+00
2.279694570757164307e+00
2.279694570757164307e+00
2.279694570757164307e+00
2.290569902645954947e+00
2.290569902645954947e+00
2.290569902645954947e+00
2.282319650868251504e+00
2.282319650868251504e+00
2.282319650868251504e+00
2.406448438978240567e+00
2.406448438978240567e+00
2.406448438978240567e+00
2.406448438978240567e+00
2.285132236701559627e+00
2.285132236701559627e+00
2.285132236701559627e+00
2.269006744590594149e+00
2.269006744590594149e+00
2.269006744590594149e+00
2.240505874813074172e+00
2.240505874813074172e+00
2.240505874813074172e+00
2.240505874813074172e+00
2.251568712424085295e+00
2.251568712424085295e+00
2.251568712424085295e+00
2.092376354258858040e+00
2.092376354258858040e+00
2.092376354258858040e+00
2.092376354258858040e+00
2.138690267647328280e+00
2.138690267647328280e+00
2.138690267647328280e+00
2.486888393810846587e+00
2.486888393810846587e+00
2.486888393810846587e+00
2.312133060701315301e+00
2.312133060701315301e+00
2.312133060701315301e+00
2.312133060701315301e+00
2.266569170201727434e+00
2.266569170201727434e+00
2.266569170201727434e+00
2.270694296090578934e+00
2.270694296090578934e+00
2.270694296090578934e+00
2.268256721701712220e+00
2.268256721701712220e+00
2.268256721701712220e+00
2.268256721701712220e+00
2.280069582201605716e+00
2.280069582201605716e+00
2.280069582201605716e+00
2.311570543534653854e+00
2.311570543534653854e+00
2.311570543534653854e+00
2.410948576311533031e+00
2.410948576311533031e+00
2.410948576311533031e+00
2.410948576311533031e+00
2.252318735312967224e+00
2.252318735312967224e+00
2.252318735312967224e+00
2.228318002868740155e+00
2.228318002868740155e+00
2.228318002868740155e+00
2.220067751091036712e+00
2.220067751091036712e+00
2.220067751091036712e+00
2.220067751091036712e+00
2.202629718924527857e+00
2.202629718924527857e+00
2.202629718924527857e+00
2.068750633259071936e+00
2.068750633259071936e+00
2.068750633259071936e+00
2.263381572923978347e+00
2.263381572923978347e+00
2.263381572923978347e+00
2.263381572923978347e+00
2.428199102755821404e+00
2.428199102755821404e+00
2.428199102755821404e+00
2.287757316812646824e+00
2.287757316812646824e+00
2.287757316812646824e+00
2.290382396923734465e+00
2.290382396923734465e+00
2.290382396923734465e+00
2.290382396923734465e+00
2.300132694479201767e+00
2.300132694479201767e+00
2.300132694479201767e+00
2.287382305368205859e+00
2.287382305368205859e+00
2.287382305368205859e+00
2.281382122257148648e+00
2.281382122257148648e+00
2.281382122257148648e+00
2.281382122257148648e+00
2.364259651478621826e+00
2.364259651478621826e+00
2.364259651478621826e+00
2.357134434034241721e+00
2.357134434034241721e+00
2.357134434034241721e+00
2.245943540757469048e+00
2.245943540757469048e+00
2.245943540757469048e+00
2.245943540757469048e+00
2.219317728202154782e+00
2.219317728202154782e+00
2.219317728202154782e+00
2.219692739646595747e+00
2.219692739646595747e+00
2.219692739646595747e+00
2.143190404980620745e+00
2.143190404980620745e+00
2.143190404980620745e+00
2.143190404980620745e+00
2.038374706259346247e+00
2.038374706259346247e+00
2.038374706259346247e+00
2.374197454756310055e+00
2.374197454756310055e+00
2.374197454756310055e+00
2.368572283089693808e+00
2.368572283089693808e+00
2.368572283089693808e+00
2.368572283089693808e+00
2.295632557145908859e+00
2.295632557145908859e+00
2.295632557145908859e+00
2.312508072145756710e+00
2.312508072145756710e+00
2.312508072145756710e+00
2.300507705923642732e+00
2.300507705923642732e+00
2.300507705923642732e+00
2.282694662312692468e+00
2.282694662312692468e+00
2.282694662312692468e+00
2.282694662312692468e+00
2.288319833979308715e+00
2.288319833979308715e+00
2.288319833979308715e+00
2.399885738700521909e+00
2.399885738700521909e+00
2.399885738700521909e+00
2.301445234534745587e+00
2.301445234534745587e+00
2.301445234534745587e+00
2.301445234534745587e+00
2.248381115146336207e+00
2.248381115146336207e+00
2.248381115146336207e+00
2.224755394146549659e+00
2.224755394146549659e+00
2.224755394146549659e+00
2.243130954924161813e+00
2.243130954924161813e+00
2.243130954924161813e+00
2.243130954924161813e+00
2.104751731925412539e+00
2.104751731925412539e+00
2.104751731925412539e+00
2.074375804925687294e+00
2.074375804925687294e+00
2.074375804925687294e+00
2.467762810144352947e+00
2.467762810144352947e+00
2.467762810144352947e+00
2.467762810144352947e+00
2.323570909756767389e+00
2.323570909756767389e+00
2.323570909756767389e+00
2.269381756035035114e+00
2.269381756035035114e+00
2.269381756035035114e+00
2.313258095034638639e+00
2.313258095034638639e+00
2.313258095034638639e+00
2.313258095034638639e+00
2.288132328257088233e+00
2.288132328257088233e+00
2.288132328257088233e+00
2.260006469924008776e+00
2.260006469924008776e+00
2.260006469924008776e+00
2.295445051423688376e+00
2.295445051423688376e+00
2.295445051423688376e+00
2.295445051423688376e+00
2.441136997589037794e+00
2.441136997589037794e+00
2.441136997589037794e+00
2.284757225257118218e+00
2.284757225257118218e+00
2.284757225257118218e+00
2.284757225257118218e+00
2.243880977813043742e+00
2.243880977813043742e+00
2.243880977813043742e+00
2.209754936368907963e+00
2.209754936368907963e+00
2.209754936368907963e+00
2.221755302591021497e+00
2.221755302591021497e+00
2.221755302591021497e+00
2.221755302591021497e+00
2.082626056703390294e+00
2.082626056703390294e+00
2.082626056703390294e+00
2.199629627368999252e+00
2.199629627368999252e+00
2.199629627368999252e+00
2.453699880977813219e+00
2.453699880977813219e+00
2.453699880977813219e+00
2.453699880977813219e+00
2.294320017090365038e+00
2.294320017090365038e+00
2.294320017090365038e+00
2.281944639423810539e+00
2.281944639423810539e+00
2.281944639423810539e+00
2.298632648701437464e+00
2.298632648701437464e+00
2.298632648701437464e+00
2.298632648701437464e+00
2.280819605090487201e+00
2.280819605090487201e+00
2.280819605090487201e+00
2.282694662312692468e+00
2.282694662312692468e+00
2.282694662312692468e+00
2.338946378978850937e+00
2.338946378978850937e+00
2.338946378978850937e+00
2.338946378978850937e+00
2.394823084200567997e+00
2.394823084200567997e+00
2.394823084200567997e+00
2.250256172368541474e+00
2.250256172368541474e+00
2.250256172368541474e+00
2.226817957090975852e+00
2.226817957090975852e+00
2.226817957090975852e+00
2.226817957090975852e+00
2.224755394146549659e+00
2.224755394146549659e+00
2.224755394146549659e+00
2.182191595202490397e+00
2.182191595202490397e+00
2.182191595202490397e+00
2.070063173314615312e+00
2.070063173314615312e+00
2.070063173314615312e+00
2.070063173314615312e+00
2.327883541367839371e+00
2.327883541367839371e+00
2.327883541367839371e+00
2.423698965422528495e+00
2.423698965422528495e+00
2.423698965422528495e+00
2.294132511368144556e+00
2.294132511368144556e+00
2.294132511368144556e+00
2.294132511368144556e+00
2.275194433423871843e+00
2.275194433423871843e+00
2.275194433423871843e+00
2.260943998535111632e+00
2.260943998535111632e+00
2.260943998535111632e+00
2.260943998535111632e+00
2.263569078646198829e+00
2.263569078646198829e+00
2.263569078646198829e+00
2.281757133701590057e+00
2.281757133701590057e+00
2.281757133701590057e+00
2.365572191534165203e+00
2.365572191534165203e+00
2.365572191534165203e+00
2.365572191534165203e+00
2.317195715201269657e+00
2.317195715201269657e+00
2.317195715201269657e+00
2.244443494979705633e+00
2.244443494979705633e+00
2.244443494979705633e+00
2.232068117313150690e+00
2.232068117313150690e+00
2.232068117313150690e+00
2.232068117313150690e+00
2.231880611590930208e+00
2.231880611590930208e+00
2.231880611590930208e+00
2.127627430036317158e+00
2.127627430036317158e+00
2.127627430036317158e+00
2.051687612537003602e+00
2.051687612537003602e+00
2.051687612537003602e+00
2.051687612537003602e+00
2.443762077700125435e+00
2.443762077700125435e+00
2.443762077700125435e+00
2.363509628589739453e+00
2.363509628589739453e+00
2.363509628589739453e+00
2.281382122257148648e+00
2.281382122257148648e+00
2.281382122257148648e+00
2.281382122257148648e+00
2.285507248146000592e+00
2.285507248146000592e+00
2.285507248146000592e+00
2.271819330423901828e+00
2.271819330423901828e+00
2.271819330423901828e+00
2.267319193090609808e+00
2.267319193090609808e+00
2.267319193090609808e+00
2.267319193090609808e+00
2.279694570757164307e+00
2.279694570757164307e+00
2.279694570757164307e+00
2.419761345255897922e+00
2.419761345255897922e+00
2.419761345255897922e+00
2.419761345255897922e+00
2.277819513534959039e+00
2.277819513534959039e+00
2.277819513534959039e+00
2.237880794701986531e+00
2.237880794701986531e+00
2.237880794701986531e+00
2.225317911313211550e+00
2.225317911313211550e+00
2.225317911313211550e+00
2.225317911313211550e+00
2.264131595812860720e+00
2.264131595812860720e+00
2.264131595812860720e+00
2.118439649647511303e+00
2.118439649647511303e+00
2.118439649647511303e+00
2.149378093813898438e+00
2.149378093813898438e+00
2.149378093813898438e+00
2.149378093813898438e+00
2.488388439588610446e+00
2.488388439588610446e+00
2.488388439588610446e+00
2.323758415478988315e+00
2.323758415478988315e+00
2.323758415478988315e+00
2.284944730979339145e+00
2.284944730979339145e+00
2.284944730979339145e+00
2.284944730979339145e+00
2.282507156590471986e+00
2.282507156590471986e+00
2.282507156590471986e+00
2.260381481368449741e+00
2.260381481368449741e+00
2.260381481368449741e+00
2.269569261757255596e+00
2.269569261757255596e+00
2.269569261757255596e+00
2.269569261757255596e+00
2.313633106479079604e+00
2.313633106479079604e+00
2.313633106479079604e+00
2.414511185033723084e+00
2.414511185033723084e+00
2.414511185033723084e+00
2.256443861201819168e+00
2.256443861201819168e+00
2.256443861201819168e+00
2.256443861201819168e+00
2.245193517868587563e+00
2.245193517868587563e+00
2.245193517868587563e+00
2.234880703146458369e+00
2.234880703146458369e+00
2.234880703146458369e+00
2.208817407757805107e+00
2.208817407757805107e+00
2.208817407757805107e+00
2.208817407757805107e+00
2.069688161870173904e+00
2.069688161870173904e+00
2.069688161870173904e+00
2.255881344035157721e+00
2.255881344035157721e+00
2.255881344035157721e+00
2.435699331644642474e+00
2.435699331644642474e+00
2.435699331644642474e+00
2.435699331644642474e+00
2.290382396923734465e+00
2.290382396923734465e+00
2.290382396923734465e+00
2.282882168034912951e+00
2.282882168034912951e+00
2.282882168034912951e+00
2.290944914090395912e+00
2.290944914090395912e+00
2.290944914090395912e+00
2.290944914090395912e+00
2.272569353312784202e+00
2.272569353312784202e+00
2.272569353312784202e+00
2.266006653035065987e+00
2.266006653035065987e+00
2.266006653035065987e+00
2.337446333201086635e+00
2.337446333201086635e+00
2.337446333201086635e+00
2.337446333201086635e+00
2.345696584978789634e+00
2.345696584978789634e+00
2.345696584978789634e+00
2.254193792535172935e+00
2.254193792535172935e+00
2.254193792535172935e+00
2.234505691702016961e+00
2.234505691702016961e+00
2.234505691702016961e+00
2.234505691702016961e+00
2.228880520035401602e+00
2.228880520035401602e+00
2.228880520035401602e+00
2.159878414258247670e+00
2.159878414258247670e+00
2.159878414258247670e+00
2.075875850703451597e+00
2.075875850703451597e+00
2.075875850703451597e+00
2.075875850703451597e+00
2.402135807367168141e+00
2.402135807367168141e+00
2.402135807367168141e+00
2.388447889645069822e+00
2.388447889645069822e+00
2.388447889645069822e+00
2.276319467757194737e+00
2.276319467757194737e+00
2.276319467757194737e+00
2.276319467757194737e+00
2.285507248146000592e+00
2.285507248146000592e+00
2.285507248146000592e+00
2.284007202368236289e+00
2.284007202368236289e+00
2.284007202368236289e+00
2.286819788201544412e+00
2.286819788201544412e+00
2.286819788201544412e+00
2.286819788201544412e+00
2.292444959868159771e+00
2.292444959868159771e+00
2.292444959868159771e+00
2.376072511978514878e+00
2.376072511978514878e+00
2.376072511978514878e+00
2.376072511978514878e+00
2.301820245979186552e+00
2.301820245979186552e+00
2.301820245979186552e+00
2.257568895535142062e+00
2.257568895535142062e+00
2.257568895535142062e+00
2.239568346201971760e+00
2.239568346201971760e+00
2.239568346201971760e+00
2.239568346201971760e+00
2.260006469924008776e+00
2.260006469924008776e+00
2.260006469924008776e+00
2.133065095980712478e+00
2.133065095980712478e+00
2.133065095980712478e+00
2.086376171147801273e+00
2.086376171147801273e+00
2.086376171147801273e+00
2.086376171147801273e+00
2.461575121311075254e+00
2.461575121311075254e+00
2.461575121311075254e+00
2.314008117923521013e+00
2.314008117923521013e+00
2.314008117923521013e+00
2.256068849757378203e+00
2.256068849757378203e+00
2.256068849757378203e+00
2.256068849757378203e+00
2.264131595812860720e+00
2.264131595812860720e+00
2.264131595812860720e+00
2.260006469924008776e+00
2.260006469924008776e+00
2.260006469924008776e+00
2.266569170201727434e+00
2.266569170201727434e+00
2.266569170201727434e+00
2.266569170201727434e+00
2.286632282479323930e+00
2.286632282479323930e+00
2.286632282479323930e+00
2.421073885311441742e+00
2.421073885311441742e+00
2.421073885311441742e+00
2.264319101535081202e+00
2.264319101535081202e+00
2.264319101535081202e+00
2.264319101535081202e+00
2.266569170201727434e+00
2.266569170201727434e+00
2.266569170201727434e+00
2.239005829035309869e+00
2.239005829035309869e+00
2.239005829035309869e+00
2.228693014313181120e+00
2.228693014313181120e+00
2.228693014313181120e+00
2.228693014313181120e+00
2.077750907925656865e+00
2.077750907925656865e+00
2.077750907925656865e+00
2.196067018646809643e+00
2.196067018646809643e+00
2.196067018646809643e+00
2.462137638477736701e+00
2.462137638477736701e+00
2.462137638477736701e+00
2.462137638477736701e+00
2.305945371868038052e+00
2.305945371868038052e+00
2.305945371868038052e+00
2.307070406201360946e+00
2.307070406201360946e+00
2.307070406201360946e+00
2.302195257423627517e+00
2.302195257423627517e+00
2.302195257423627517e+00
2.302195257423627517e+00
2.274256904812768987e+00
2.274256904812768987e+00
2.274256904812768987e+00
2.270319284646137969e+00
2.270319284646137969e+00
2.270319284646137969e+00
2.270319284646137969e+00
2.318320749534592551e+00
2.318320749534592551e+00
2.318320749534592551e+00
2.371384868923001932e+00
2.371384868923001932e+00
2.371384868923001932e+00
2.237880794701986531e+00
2.237880794701986531e+00
2.237880794701986531e+00
2.237880794701986531e+00
2.228318002868740155e+00
2.228318002868740155e+00
2.228318002868740155e+00
2.219692739646595747e+00
2.219692739646595747e+00
2.219692739646595747e+00
2.174128849147007880e+00
2.174128849147007880e+00
2.174128849147007880e+00
2.174128849147007880e+00
2.065375530259102366e+00
2.065375530259102366e+00
2.065375530259102366e+00
2.337258827478866152e+00
2.337258827478866152e+00
2.337258827478866152e+00
2.449949766533402684e+00
2.449949766533402684e+00
2.449949766533402684e+00
2.449949766533402684e+00
2.314945646534623425e+00
2.314945646534623425e+00
2.314945646534623425e+00
2.299195165868098911e+00
2.299195165868098911e+00
2.299195165868098911e+00
2.291132419812616394e+00
2.291132419812616394e+00
2.291132419812616394e+00
2.291132419812616394e+00
2.276131962034974254e+00
2.276131962034974254e+00
2.276131962034974254e+00
2.274069399090548504e+00
2.274069399090548504e+00
2.274069399090548504e+00
2.367259743034150432e+00
2.367259743034150432e+00
2.367259743034150432e+00
2.367259743034150432e+00
2.326195989867855030e+00
2.326195989867855030e+00
2.326195989867855030e+00
2.240693380535294654e+00
2.240693380535294654e+00
2.240693380535294654e+00
2.210317453535568966e+00
2.210317453535568966e+00
2.210317453535568966e+00
2.210317453535568966e+00
2.212192510757774677e+00
2.212192510757774677e+00
2.212192510757774677e+00
2.119002166814172750e+00
2.119002166814172750e+00
2.119002166814172750e+00
2.052625141148106458e+00
2.052625141148106458e+00
2.052625141148106458e+00
2.052625141148106458e+00
2.454074892422254184e+00
2.454074892422254184e+00
2.454074892422254184e+00
2.363697134311959935e+00
2.363697134311959935e+00
2.363697134311959935e+00
2.363697134311959935e+00
2.269194250312814631e+00
2.269194250312814631e+00
2.269194250312814631e+00
2.275006927701650916e+00
2.275006927701650916e+00
2.275006927701650916e+00
2.273694387646107540e+00
2.273694387646107540e+00
2.273694387646107540e+00
2.273694387646107540e+00
2.277444502090518075e+00
2.277444502090518075e+00
2.277444502090518075e+00
2.298820154423657947e+00
2.298820154423657947e+00
2.298820154423657947e+00
2.424261482589190386e+00
2.424261482589190386e+00
2.424261482589190386e+00
2.424261482589190386e+00
2.298070131534776017e+00
2.298070131534776017e+00
2.298070131534776017e+00
2.261131504257332114e+00
2.261131504257332114e+00
2.261131504257332114e+00
2.243130954924161813e+00
2.243130954924161813e+00
2.243130954924161813e+00
2.243130954924161813e+00
2.246506057924130939e+00
2.246506057924130939e+00
2.246506057924130939e+00
2.091251319925535146e+00
2.091251319925535146e+00
2.091251319925535146e+00
2.127439924314096675e+00
2.127439924314096675e+00
2.127439924314096675e+00
2.475075533310953091e+00
2.475075533310953091e+00
2.475075533310953091e+00
2.475075533310953091e+00
2.307820429090243319e+00
2.307820429090243319e+00
2.307820429090243319e+00
2.266944181646168399e+00
2.266944181646168399e+00
2.266944181646168399e+00
2.277632007812738557e+00
2.277632007812738557e+00
2.277632007812738557e+00
2.277632007812738557e+00
2.270131778923917043e+00
2.270131778923917043e+00
2.270131778923917043e+00
2.267319193090609808e+00
2.267319193090609808e+00
2.267319193090609808e+00
2.293007477034821662e+00
2.293007477034821662e+00
2.293007477034821662e+00
2.293007477034821662e+00
2.413011139255958781e+00
2.413011139255958781e+00
2.413011139255958781e+00
2.255881344035157721e+00
2.255881344035157721e+00
2.255881344035157721e+00
2.249881160924100509e+00
2.249881160924100509e+00
2.249881160924100509e+00
2.249881160924100509e+00
2.244255989257484707e+00
2.244255989257484707e+00
2.244255989257484707e+00
2.227192968535416817e+00
2.227192968535416817e+00
2.227192968535416817e+00
2.088251228370006540e+00
2.088251228370006540e+00
2.088251228370006540e+00
2.088251228370006540e+00
2.247256080813012868e+00
2.247256080813012868e+00
2.247256080813012868e+00
2.449199743644520311e+00
2.449199743644520311e+00
2.449199743644520311e+00
2.302570268868068482e+00
2.302570268868068482e+00
2.302570268868068482e+00
2.302570268868068482e+00
2.284194708090456771e+00
2.284194708090456771e+00
2.284194708090456771e+00
2.270881801812799416e+00
2.270881801812799416e+00
2.270881801812799416e+00
2.251193700979644330e+00
2.251193700979644330e+00
2.251193700979644330e+00
2.251193700979644330e+00
2.247818597979674760e+00
2.247818597979674760e+00
2.247818597979674760e+00
2.319633289590136371e+00
2.319633289590136371e+00
2.319633289590136371e+00
2.319633289590136371e+00
2.358821985534226506e+00
2.358821985534226506e+00
2.358821985534226506e+00
2.275756950590533290e+00
2.275756950590533290e+00
2.275756950590533290e+00
2.251756218146305777e+00
2.251756218146305777e+00
2.251756218146305777e+00
2.251756218146305777e+00
2.238443311868648422e+00
2.238443311868648422e+00
2.238443311868648422e+00
2.160815942869350526e+00
2.160815942869350526e+00
2.160815942869350526e+00
2.063125461592455689e+00
2.063125461592455689e+00
2.063125461592455689e+00
2.063125461592455689e+00
2.386197820978423145e+00
2.386197820978423145e+00
2.386197820978423145e+00
2.405698416089358194e+00
2.405698416089358194e+00
2.405698416089358194e+00
2.326571001312295994e+00
2.326571001312295994e+00
2.326571001312295994e+00
2.326571001312295994e+00
2.305945371868038052e+00
2.305945371868038052e+00
2.305945371868038052e+00
2.277256996368297592e+00
2.277256996368297592e+00
2.277256996368297592e+00
2.279882076479384789e+00
2.279882076479384789e+00
2.279882076479384789e+00
2.279882076479384789e+00
2.284382213812677254e+00
2.284382213812677254e+00
2.284382213812677254e+00
2.386572832422864110e+00
2.386572832422864110e+00
2.386572832422864110e+00
2.296757591479232197e+00
2.296757591479232197e+00
2.296757591479232197e+00
2.296757591479232197e+00
2.238818323313089387e+00
2.238818323313089387e+00
2.238818323313089387e+00
2.216880153813287624e+00
2.216880153813287624e+00
2.216880153813287624e+00
2.226630451368755370e+00
2.226630451368755370e+00
2.226630451368755370e+00
2.226630451368755370e+00
2.089376262703329878e+00
2.089376262703329878e+00
2.089376262703329878e+00
2.051312601092562637e+00
2.051312601092562637e+00
2.051312601092562637e+00
2.471137913144322074e+00
2.471137913144322074e+00
2.471137913144322074e+00
2.471137913144322074e+00
2.357134434034241721e+00
2.357134434034241721e+00
2.357134434034241721e+00
2.299382671590319838e+00
2.299382671590319838e+00
2.299382671590319838e+00
2.288319833979308715e+00
2.288319833979308715e+00
2.288319833979308715e+00
2.288319833979308715e+00
2.265256630146183614e+00
2.265256630146183614e+00
2.265256630146183614e+00
2.240130863368633207e+00
2.240130863368633207e+00
2.240130863368633207e+00
2.252506241035188150e+00
2.252506241035188150e+00
2.252506241035188150e+00
2.252506241035188150e+00
2.436824365977965812e+00
2.436824365977965812e+00
2.436824365977965812e+00
2.290382396923734465e+00
2.290382396923734465e+00
2.290382396923734465e+00
2.254193792535172935e+00
2.254193792535172935e+00
2.254193792535172935e+00
2.254193792535172935e+00
2.207879879146702695e+00
2.207879879146702695e+00
2.207879879146702695e+00
2.219880245368816230e+00
2.219880245368816230e+00
2.219880245368816230e+00
2.072125736259041062e+00
2.072125736259041062e+00
2.072125736259041062e+00
2.072125736259041062e+00
2.198504593035676358e+00
2.198504593035676358e+00
2.198504593035676358e+00
2.516701803643909940e+00
2.516701803643909940e+00
2.516701803643909940e+00
2.516701803643909940e+00
2.351696768089846401e+00
2.351696768089846401e+00
2.351696768089846401e+00
2.299382671590319838e+00
2.299382671590319838e+00
2.299382671590319838e+00
2.289632374034852091e+00
2.289632374034852091e+00
2.289632374034852091e+00
2.285507248146000592e+00
2.285507248146000592e+00
2.285507248146000592e+00
2.285507248146000592e+00
2.293757499923703591e+00
2.293757499923703591e+00
2.293757499923703591e+00
2.325070955534531691e+00
2.325070955534531691e+00
2.325070955534531691e+00
2.325070955534531691e+00
2.404010864589373409e+00
2.404010864589373409e+00
2.404010864589373409e+00
2.248006103701895242e+00
2.248006103701895242e+00
2.248006103701895242e+00
2.229255531479842567e+00
2.229255531479842567e+00
2.229255531479842567e+00
2.229255531479842567e+00
2.218755211035493335e+00
2.218755211035493335e+00
2.218755211035493335e+00
2.169066194647053525e+00
2.169066194647053525e+00
2.169066194647053525e+00
2.044187383648182976e+00
2.044187383648182976e+00
2.044187383648182976e+00
2.044187383648182976e+00
2.283444685201574842e+00
2.283444685201574842e+00
2.283444685201574842e+00
2.409636036255989211e+00
2.409636036255989211e+00
2.409636036255989211e+00
2.295632557145908859e+00
2.295632557145908859e+00
2.295632557145908859e+00
2.295632557145908859e+00
2.302007751701407035e+00
2.302007751701407035e+00
2.302007751701407035e+00
2.297320108645893644e+00
2.297320108645893644e+00
2.297320108645893644e+00
2.275944456312753772e+00
2.275944456312753772e+00
2.275944456312753772e+00
2.275944456312753772e+00
2.278757042146061895e+00
2.278757042146061895e+00
2.278757042146061895e+00
2.355821893978697901e+00
2.355821893978697901e+00
2.355821893978697901e+00
2.331821161534470832e+00
2.331821161534470832e+00
2.331821161534470832e+00
2.331821161534470832e+00
2.253256263924070080e+00
2.253256263924070080e+00
2.253256263924070080e+00
2.226630451368755370e+00
2.226630451368755370e+00
2.226630451368755370e+00
2.229255531479842567e+00
2.229255531479842567e+00
2.229255531479842567e+00
2.229255531479842567e+00
2.137752739036225869e+00
2.137752739036225869e+00
2.137752739036225869e+00
2.046624958037049247e+00
2.046624958037049247e+00
2.046624958037049247e+00
2.430261665700247153e+00
2.430261665700247153e+00
2.430261665700247153e+00
2.430261665700247153e+00
2.353009308145390222e+00
2.353009308145390222e+00
2.353009308145390222e+00
2.270319284646137969e+00
2.270319284646137969e+00
2.270319284646137969e+00
2.261506515701773079e+00
2.261506515701773079e+00
2.261506515701773079e+00
2.261506515701773079e+00
2.261881527146214044e+00
2.261881527146214044e+00
2.261881527146214044e+00
2.264881618701742649e+00
2.264881618701742649e+00
2.264881618701742649e+00
2.295257545701467894e+00
2.295257545701467894e+00
2.295257545701467894e+00
2.295257545701467894e+00
2.436636860255744885e+00
2.436636860255744885e+00
2.436636860255744885e+00
2.311570543534653854e+00
2.311570543534653854e+00
2.311570543534653854e+00
2.272944364757225166e+00
2.272944364757225166e+00
2.272944364757225166e+00
2.272944364757225166e+00
2.248756126590777171e+00
2.248756126590777171e+00
2.248756126590777171e+00
2.253443769646290562e+00
2.253443769646290562e+00
2.253443769646290562e+00
2.105126743369853504e+00
2.105126743369853504e+00
2.105126743369853504e+00
2.105126743369853504e+00
2.121627246925260390e+00
2.121627246925260390e+00
2.121627246925260390e+00
2.475825556199835464e+00
2.475825556199835464e+00
2.475825556199835464e+00
2.296007568590349823e+00
2.296007568590349823e+00
2.296007568590349823e+00
2.296007568590349823e+00
2.258693929868464956e+00
2.258693929868464956e+00
2.258693929868464956e+00
2.272194341868343237e+00
2.272194341868343237e+00
2.272194341868343237e+00
2.266756675923947917e+00
2.266756675923947917e+00
2.266756675923947917e+00
2.266756675923947917e+00
2.256818872646260132e+00
2.256818872646260132e+00
2.256818872646260132e+00
2.276694479201635701e+00
2.276694479201635701e+00
2.276694479201635701e+00
2.276694479201635701e+00
2.416573747978148834e+00
2.416573747978148834e+00
2.416573747978148834e+00
2.266756675923947917e+00
2.266756675923947917e+00
2.266756675923947917e+00
2.295445051423688376e+00
2.295445051423688376e+00
2.295445051423688376e+00
2.295445051423688376e+00
2.254006286812952009e+00
2.254006286812952009e+00
2.254006286812952009e+00
2.207129856257820322e+00
2.207129856257820322e+00
2.207129856257820322e+00
2.056187749870296511e+00
2.056187749870296511e+00
2.056187749870296511e+00
2.056187749870296511e+00
2.215942625202185212e+00
2.215942625202185212e+00
2.215942625202185212e+00
2.447324686422315043e+00
2.447324686422315043e+00
2.447324686422315043e+00
2.291507431257057803e+00
2.291507431257057803e+00
2.291507431257057803e+00
2.291507431257057803e+00
2.281194616534928166e+00
2.281194616534928166e+00
2.281194616534928166e+00
2.289444868312631609e+00
2.289444868312631609e+00
2.289444868312631609e+00
2.272006836146122755e+00
2.272006836146122755e+00
2.272006836146122755e+00
2.272006836146122755e+00
2.281382122257148648e+00
2.281382122257148648e+00
2.281382122257148648e+00
2.373634937589648164e+00
2.373634937589648164e+00
2.373634937589648164e+00
2.396698141422773265e+00
2.396698141422773265e+00
2.396698141422773265e+00
2.396698141422773265e+00
2.279319559312723342e+00
2.279319559312723342e+00
2.279319559312723342e+00
2.238255806146427940e+00
2.238255806146427940e+00
2.238255806146427940e+00
2.226630451368755370e+00
2.226630451368755370e+00
2.226630451368755370e+00
2.226630451368755370e+00
2.162503494369335311e+00
2.162503494369335311e+00
2.162503494369335311e+00
2.060875392925809457e+00
2.060875392925809457e+00
2.060875392925809457e+00
2.357696951200903612e+00
2.357696951200903612e+00
2.357696951200903612e+00
2.357696951200903612e+00
2.388072878200628413e+00
2.388072878200628413e+00
2.388072878200628413e+00
2.281757133701590057e+00
2.281757133701590057e+00
2.281757133701590057e+00
2.281757133701590057e+00
2.281757133701590057e+00
2.281757133701590057e+00
2.281757133701590057e+00
2.284757225257118218e+00
2.284757225257118218e+00
2.284757225257118218e+00
2.273694387646107540e+00
2.273694387646107540e+00
2.273694387646107540e+00
2.276319467757194737e+00
2.276319467757194737e+00
2.276319467757194737e+00
2.276319467757194737e+00
2.378135074922940628e+00
2.378135074922940628e+00
2.378135074922940628e+00
2.320570818201239227e+00
2.320570818201239227e+00
2.320570818201239227e+00
2.320570818201239227e+00
2.244255989257484707e+00
2.244255989257484707e+00
2.244255989257484707e+00
2.208817407757805107e+00
2.208817407757805107e+00
2.208817407757805107e+00
2.219880245368816230e+00
2.219880245368816230e+00
2.219880245368816230e+00
2.219880245368816230e+00
2.114877040925321250e+00
2.114877040925321250e+00
2.114877040925321250e+00
2.079250953703421168e+00
2.079250953703421168e+00
2.079250953703421168e+00
2.484638325144199911e+00
2.484638325144199911e+00
2.484638325144199911e+00
2.484638325144199911e+00
2.354509353923154524e+00
2.354509353923154524e+00
2.354509353923154524e+00
2.279132053590502860e+00
2.279132053590502860e+00
2.279132053590502860e+00
2.276506973479415219e+00
2.276506973479415219e+00
2.276506973479415219e+00
2.276506973479415219e+00
2.275944456312753772e+00
2.275944456312753772e+00
2.275944456312753772e+00
2.267506698812830290e+00
2.267506698812830290e+00
2.267506698812830290e+00
2.269194250312814631e+00
2.269194250312814631e+00
2.269194250312814631e+00
2.269194250312814631e+00
2.428199102755821404e+00
2.428199102755821404e+00
2.428199102755821404e+00
2.284944730979339145e+00
2.284944730979339145e+00
2.284944730979339145e+00
2.271819330423901828e+00
2.271819330423901828e+00
2.271819330423901828e+00
2.271819330423901828e+00
2.248756126590777171e+00
2.248756126590777171e+00
2.248756126590777171e+00
2.251943723868526259e+00
2.251943723868526259e+00
2.251943723868526259e+00
2.091813837092196593e+00
2.091813837092196593e+00
2.091813837092196593e+00
2.091813837092196593e+00
2.178441480758079862e+00
2.178441480758079862e+00
2.178441480758079862e+00
2.468325327311013950e+00
2.468325327311013950e+00
2.468325327311013950e+00
2.295070039979247412e+00
2.295070039979247412e+00
2.295070039979247412e+00
2.295070039979247412e+00
2.260943998535111632e+00
2.260943998535111632e+00
2.260943998535111632e+00
2.251568712424085295e+00
2.251568712424085295e+00
2.251568712424085295e+00
2.251568712424085295e+00
2.238255806146427940e+00
2.238255806146427940e+00
2.238255806146427940e+00
2.244818506424146598e+00
2.244818506424146598e+00
2.244818506424146598e+00
2.296757591479232197e+00
2.296757591479232197e+00
2.296757591479232197e+00
2.296757591479232197e+00
2.393323038422803695e+00
2.393323038422803695e+00
2.393323038422803695e+00
2.262256538590655452e+00
2.262256538590655452e+00
2.262256538590655452e+00
2.254006286812952009e+00
2.254006286812952009e+00
2.254006286812952009e+00
2.254006286812952009e+00
2.258131412701803509e+00
2.258131412701803509e+00
2.258131412701803509e+00
2.191941892757957699e+00
2.191941892757957699e+00
2.191941892757957699e+00
2.071750724814600098e+00
2.071750724814600098e+00
2.071750724814600098e+00
2.071750724814600098e+00
2.313258095034638639e+00
2.313258095034638639e+00
2.313258095034638639e+00
2.441699514755699685e+00
2.441699514755699685e+00
2.441699514755699685e+00
2.312320566423536228e+00
2.312320566423536228e+00
2.312320566423536228e+00
2.312320566423536228e+00
2.298070131534776017e+00
2.298070131534776017e+00
2.298070131534776017e+00
2.284944730979339145e+00
2.284944730979339145e+00
2.284944730979339145e+00
2.270131778923917043e+00
2.270131778923917043e+00
2.270131778923917043e+00
2.270131778923917043e+00
2.270319284646137969e+00
2.270319284646137969e+00
2.270319284646137969e+00
2.355446882534256936e+00
2.355446882534256936e+00
2.355446882534256936e+00
2.341008941923276243e+00
2.341008941923276243e+00
2.341008941923276243e+00
2.341008941923276243e+00
2.246693563646351421e+00
2.246693563646351421e+00
2.246693563646351421e+00
2.221380291146580532e+00
2.221380291146580532e+00
2.221380291146580532e+00
2.210129947813348927e+00
2.210129947813348927e+00
2.210129947813348927e+00
2.210129947813348927e+00
2.136440198980682048e+00
2.136440198980682048e+00
2.136440198980682048e+00
2.067438093203528116e+00
2.067438093203528116e+00
2.067438093203528116e+00
2.433824274422437206e+00
2.433824274422437206e+00
2.433824274422437206e+00
2.433824274422437206e+00
2.369322305978576182e+00
2.369322305978576182e+00
2.369322305978576182e+00
2.287944822534867306e+00
2.287944822534867306e+00
2.287944822534867306e+00
2.295820062868129341e+00
2.295820062868129341e+00
2.295820062868129341e+00
2.295820062868129341e+00
2.290757408368175430e+00
2.290757408368175430e+00
2.290757408368175430e+00
2.285319742423780109e+00
2.285319742423780109e+00
2.285319742423780109e+00
2.287007293923764895e+00
2.287007293923764895e+00
2.287007293923764895e+00
2.287007293923764895e+00
2.405135898922696747e+00
2.405135898922696747e+00
2.405135898922696747e+00
2.290382396923734465e+00
2.290382396923734465e+00
2.290382396923734465e+00
2.243505966368602778e+00
2.243505966368602778e+00
2.243505966368602778e+00
2.243505966368602778e+00
2.218755211035493335e+00
2.218755211035493335e+00
2.218755211035493335e+00
2.247443586535233351e+00
2.247443586535233351e+00
2.247443586535233351e+00
2.140565324869533104e+00
2.140565324869533104e+00
2.140565324869533104e+00
2.140565324869533104e+00
2.132127567369609622e+00
2.132127567369609622e+00
2.132127567369609622e+00
2.483138279366435608e+00
2.483138279366435608e+00
2.483138279366435608e+00
2.321508346812341639e+00
2.321508346812341639e+00
2.321508346812341639e+00
2.321508346812341639e+00
2.273319376201666131e+00
2.273319376201666131e+00
2.273319376201666131e+00
2.279882076479384789e+00
2.279882076479384789e+00
2.279882076479384789e+00
2.279882076479384789e+00
2.271444318979460864e+00
2.271444318979460864e+00
2.271444318979460864e+00
2.273881893368328022e+00
2.273881893368328022e+00
2.273881893368328022e+00
2.282319650868251504e+00
2.282319650868251504e+00
2.282319650868251504e+00
2.282319650868251504e+00
2.409448530533769173e+00
2.409448530533769173e+00
2.409448530533769173e+00
2.257756401257362544e+00
2.257756401257362544e+00
2.257756401257362544e+00
2.237318277535325084e+00
2.237318277535325084e+00
2.237318277535325084e+00
2.237318277535325084e+00
2.234693197424237443e+00
2.234693197424237443e+00
2.234693197424237443e+00
2.219505233924375265e+00
2.219505233924375265e+00
2.219505233924375265e+00
2.071000701925717724e+00
2.071000701925717724e+00
2.071000701925717724e+00
2.071000701925717724e+00
2.225130405590991067e+00
2.225130405590991067e+00
2.225130405590991067e+00
2.454262398144474666e+00
2.454262398144474666e+00
2.454262398144474666e+00
2.292257454145939732e+00
2.292257454145939732e+00
2.292257454145939732e+00
2.292257454145939732e+00
2.277069490646077110e+00
2.277069490646077110e+00
2.277069490646077110e+00
2.283819696646015807e+00
2.283819696646015807e+00
2.283819696646015807e+00
2.277069490646077110e+00
2.277069490646077110e+00
2.277069490646077110e+00
2.277069490646077110e+00
2.281569627979369130e+00
2.281569627979369130e+00
2.281569627979369130e+00
2.334258735923337547e+00
2.334258735923337547e+00
2.334258735923337547e+00
2.370822351756340485e+00
2.370822351756340485e+00
2.370822351756340485e+00
2.370822351756340485e+00
2.235255714590899334e+00
2.235255714590899334e+00
2.235255714590899334e+00
2.213130039368877089e+00
2.213130039368877089e+00
2.213130039368877089e+00
2.213130039368877089e+00
2.214817590868861874e+00
2.214817590868861874e+00
2.214817590868861874e+00
2.162691000091555793e+00
2.162691000091555793e+00
2.162691000091555793e+00
2.064250495925779028e+00
2.064250495925779028e+00
2.064250495925779028e+00
2.064250495925779028e+00
2.356946928312021239e+00
2.356946928312021239e+00
2.356946928312021239e+00
2.413011139255958781e+00
2.413011139255958781e+00
2.413011139255958781e+00
2.299007660145878429e+00
2.299007660145878429e+00
2.299007660145878429e+00
2.299007660145878429e+00
2.288319833979308715e+00
2.288319833979308715e+00
2.288319833979308715e+00
2.270881801812799416e+00
2.270881801812799416e+00
2.270881801812799416e+00
2.250818689535202921e+00
2.250818689535202921e+00
2.250818689535202921e+00
2.250818689535202921e+00
2.269194250312814631e+00
2.269194250312814631e+00
2.269194250312814631e+00
2.384697775200659287e+00
2.384697775200659287e+00
2.384697775200659287e+00
2.320945829645680192e+00
2.320945829645680192e+00
2.320945829645680192e+00
2.254756309701834383e+00
2.254756309701834383e+00
2.237693288979766049e+00
2.237693288979766049e+00
2.235443220313119816e+00
2.235443220313119816e+00
2.134752647480697263e+00
2.134752647480697263e+00
2.078688436536759720e+00
2.078688436536759720e+00
2.476200567644276429e+00
2.476200567644276429e+00
2.365009674367503756e+00
2.365009674367503756e+00
2.305570360423596643e+00
2.305570360423596643e+00
2.305570360423596643e+00
2.290944914090395912e+00
2.290944914090395912e+00
2.263756584368419311e+00
2.263756584368419311e+00
2.255693838312936794e+00
2.255693838312936794e+00
2.274069399090548504e+00
2.274069399090548504e+00
2.436261848811303921e+00
2.436261848811303921e+00
2.287382305368205859e+00
2.287382305368205859e+00
2.252506241035188150e+00
2.252506241035188150e+00
2.224005371257667729e+00
2.224005371257667729e+00
2.224005371257667729e+00
2.240130863368633207e+00
2.240130863368633207e+00
2.095563951536606684e+00
2.095563951536606684e+00
2.156690816980498582e+00
2.156690816980498582e+00
2.452387340922269399e+00
2.452387340922269399e+00
2.274631916257209951e+00
2.274631916257209951e+00
2.258318918424023991e+00
2.258318918424023991e+00
2.272006836146122755e+00
2.272006836146122755e+00
2.280069582201605716e+00
2.280069582201605716e+00
2.279507065034943825e+00
2.279507065034943825e+00
2.305195348979155678e+00
2.305195348979155678e+00
2.305195348979155678e+00
2.403635853144932444e+00
2.403635853144932444e+00
2.270694296090578934e+00
2.270694296090578934e+00
2.256256355479598685e+00
2.256256355479598685e+00
2.255506332590716312e+00
2.255506332590716312e+00
2.202254707480086449e+00
2.202254707480086449e+00
2.076063356425672080e+00
2.076063356425672080e+00
2.286632282479323930e+00
2.286632282479323930e+00
2.409636036255989211e+00
2.409636036255989211e+00
2.409636036255989211e+00
2.264881618701742649e+00
2.264881618701742649e+00
2.263006561479537382e+00
2.263006561479537382e+00
2.260381481368449741e+00
2.260381481368449741e+00
2.256256355479598685e+00
2.256256355479598685e+00
2.275944456312753772e+00
2.275944456312753772e+00
2.369697317423017147e+00
2.369697317423017147e+00
2.341196447645496725e+00
2.341196447645496725e+00
2.249881160924100509e+00
2.249881160924100509e+00
2.249881160924100509e+00
2.247631092257453833e+00
2.247631092257453833e+00
2.248756126590777171e+00
2.248756126590777171e+00
2.157253334147160473e+00
2.157253334147160473e+00
2.071188207647938206e+00
2.071188207647938206e+00
2.437574388866847741e+00
2.437574388866847741e+00
2.410761070589312105e+00
2.410761070589312105e+00
2.288507339701529197e+00
2.288507339701529197e+00
2.251193700979644330e+00
2.251193700979644330e+00
2.229630542924283532e+00
2.229630542924283532e+00
2.229630542924283532e+00
2.199254615924558287e+00
2.199254615924558287e+00
2.201879696035645484e+00
2.201879696035645484e+00
2.343071504867702437e+00
2.343071504867702437e+00
2.243318460646382295e+00
2.243318460646382295e+00
2.221942808313242423e+00
2.221942808313242423e+00
2.198879604480116878e+00
2.198879604480116878e+00
2.210129947813348927e+00
2.210129947813348927e+00
2.083001068147831703e+00
2.083001068147831703e+00
2.116189580980865070e+00
2.116189580980865070e+00
2.116189580980865070e+00
2.487075899533067069e+00
2.487075899533067069e+00
2.335946287423322332e+00
2.335946287423322332e+00
2.273694387646107540e+00
2.273694387646107540e+00
2.296195074312570750e+00
2.296195074312570750e+00
2.304632831812494231e+00
2.304632831812494231e+00
2.306507889034699499e+00
2.306507889034699499e+00
2.317383220923490139e+00
2.317383220923490139e+00
2.462325144199957183e+00
2.462325144199957183e+00
2.462325144199957183e+00
2.299945188756981285e+00
2.299945188756981285e+00
2.264694112979522167e+00
2.264694112979522167e+00
2.237693288979766049e+00
2.237693288979766049e+00
2.220067751091036712e+00
2.220067751091036712e+00
2.069500656147953865e+00
2.069500656147953865e+00
2.218567705313272853e+00
2.218567705313272853e+00
2.472262947477644968e+00
2.472262947477644968e+00
2.296757591479232197e+00
2.296757591479232197e+00
2.296757591479232197e+00
2.262631550035096417e+00
2.262631550035096417e+00
2.265819147312845505e+00
2.265819147312845505e+00
2.251943723868526259e+00
2.251943723868526259e+00
2.266756675923947917e+00
2.266756675923947917e+00
2.345696584978789634e+00
2.345696584978789634e+00
2.377385052034058699e+00
2.377385052034058699e+00
2.217255165257729033e+00
2.217255165257729033e+00
2.162691000091555793e+00
2.162691000091555793e+00
2.161565965758232455e+00
2.161565965758232455e+00
2.161565965758232455e+00
2.130815027314065802e+00
2.130815027314065802e+00
2.058062807092501334e+00
2.058062807092501334e+00
2.390322946867275089e+00
2.390322946867275089e+00
2.452949858088931290e+00
2.452949858088931290e+00
2.309695486312448587e+00
2.309695486312448587e+00
2.305757866145817125e+00
2.305757866145817125e+00
2.313070589312418157e+00
2.313070589312418157e+00
2.279882076479384789e+00
2.279882076479384789e+00
2.279882076479384789e+00
2.292069948423719250e+00
2.292069948423719250e+00
2.386572832422864110e+00
2.386572832422864110e+00
2.314945646534623425e+00
2.314945646534623425e+00
2.229068025757622085e+00
2.229068025757622085e+00
2.212942533646656607e+00
2.212942533646656607e+00
2.244631000701926116e+00
2.244631000701926116e+00
2.160440931424909561e+00
2.160440931424909561e+00
2.086563676870021755e+00
2.086563676870021755e+00
2.086563676870021755e+00
2.516326792199468976e+00
2.516326792199468976e+00
2.400823267311624321e+00
2.400823267311624321e+00
2.326008484145634547e+00
2.326008484145634547e+00
2.336696310312204705e+00
2.336696310312204705e+00
2.331071138645588459e+00
2.331071138645588459e+00
2.302195257423627517e+00
2.302195257423627517e+00
2.262444044312875935e+00
2.262444044312875935e+00
2.374009949034089573e+00
2.374009949034089573e+00
2.240318369090853690e+00
2.240318369090853690e+00
2.231130588702047834e+00
2.231130588702047834e+00
2.231130588702047834e+00
2.224380382702108694e+00
2.224380382702108694e+00
2.246131046479689974e+00
2.246131046479689974e+00
2.101751640369884377e+00
2.101751640369884377e+00
2.165316080202642990e+00
2.165316080202642990e+00
2.477700613422040732e+00
2.477700613422040732e+00
2.325258461256752618e+00
2.325258461256752618e+00
2.301820245979186552e+00
2.301820245979186552e+00
2.298632648701437464e+00
2.298632648701437464e+00
2.298632648701437464e+00
2.272944364757225166e+00
2.272944364757225166e+00
2.274631916257209951e+00
2.274631916257209951e+00
2.308195440534684284e+00
2.308195440534684284e+00
2.388447889645069822e+00
2.388447889645069822e+00
2.220067751091036712e+00
2.220067751091036712e+00
2.181629078035828950e+00
2.181629078035828950e+00
2.180879055146946577e+00
2.180879055146946577e+00
2.143752922147282192e+00
2.143752922147282192e+00
2.143752922147282192e+00
2.015311502426221590e+00
2.015311502426221590e+00
2.200754661702322146e+00
2.200754661702322146e+00
2.348509170812097757e+00
2.348509170812097757e+00
2.251943723868526259e+00
2.251943723868526259e+00
2.240505874813074172e+00
2.240505874813074172e+00
2.263194067201757864e+00
2.263194067201757864e+00
2.284194708090456771e+00
2.284194708090456771e+00
2.332946195867793726e+00
2.332946195867793726e+00
2.332946195867793726e+00
2.471137913144322074e+00
2.471137913144322074e+00
2.465887752922147680e+00
2.465887752922147680e+00
2.361072054200873183e+00
2.361072054200873183e+00
2.341571459089938134e+00
2.341571459089938134e+00
2.318695760979033516e+00
2.318695760979033516e+00
2.197379558702353020e+00
2.197379558702353020e+00
2.099314065981017663e+00
2.099314065981017663e+00
2.434386791589098653e+00
2.434386791589098653e+00
2.404010864589373409e+00
2.404010864589373409e+00
2.404010864589373409e+00
2.311383037812433372e+00
2.311383037812433372e+00
2.276881984923856628e+00
2.276881984923856628e+00
2.223630359813226764e+00
2.223630359813226764e+00
2.181629078035828950e+00
2.181629078035828950e+00
2.189691824091311467e+00
2.189691824091311467e+00
2.353946836756492633e+00
2.353946836756492633e+00
2.297320108645893644e+00
2.297320108645893644e+00
2.269381756035035114e+00
2.269381756035035114e+00
2.269381756035035114e+00
2.228318002868740155e+00
2.228318002868740155e+00
2.182004089480269915e+00
2.182004089480269915e+00
2.043062349314859638e+00
2.043062349314859638e+00
2.077375896481215900e+00
2.077375896481215900e+00
2.508076540421765976e+00
2.508076540421765976e+00
2.347759147923215384e+00
2.347759147923215384e+00
2.253631275368511044e+00
2.253631275368511044e+00
2.231318094424268317e+00
2.231318094424268317e+00
2.231318094424268317e+00
2.222880336924344391e+00
2.222880336924344391e+00
2.217442670979949515e+00
2.217442670979949515e+00
2.235255714590899334e+00
2.235255714590899334e+00
2.363134617145298488e+00
2.363134617145298488e+00
2.210317453535568966e+00
2.210317453535568966e+00
2.213880062257759462e+00
2.213880062257759462e+00
2.239380840479750834e+00
2.239380840479750834e+00
2.266194158757286470e+00
2.266194158757286470e+00
2.266194158757286470e+00
2.148253059480575100e+00
2.148253059480575100e+00
2.310445509201330516e+00
2.310445509201330516e+00
2.547077730643635629e+00
2.547077730643635629e+00
2.359572008423108880e+00
2.359572008423108880e+00
2.303507797479171337e+00
2.303507797479171337e+00
2.314008117923521013e+00
2.314008117923521013e+00
2.332383678701132279e+00
2.332383678701132279e+00
2.322820886867885459e+00
2.322820886867885459e+00
2.322820886867885459e+00
2.350759239478743989e+00
2.350759239478743989e+00
2.372134891811884305e+00
2.372134891811884305e+00
2.203379741813409787e+00
2.203379741813409787e+00
2.174503860591448845e+00
2.174503860591448845e+00
2.173941343424787398e+00
2.173941343424787398e+00
2.104564226203192501e+00
2.104564226203192501e+00
2.005186193426313324e+00
2.005186193426313324e+00
2.304257820368053267e+00
2.304257820368053267e+00
2.304257820368053267e+00
2.412636127811517817e+00
2.412636127811517817e+00
2.341008941923276243e+00
2.341008941923276243e+00
2.331258644367808941e+00
2.331258644367808941e+00
2.295445051423688376e+00
2.295445051423688376e+00
2.262069032868434526e+00
2.262069032868434526e+00
2.230005554368724940e+00
2.230005554368724940e+00
2.316633198034607766e+00
2.316633198034607766e+00
2.248943632312997654e+00
2.248943632312997654e+00
2.185379192480239485e+00
2.185379192480239485e+00
2.185379192480239485e+00
2.185379192480239485e+00
2.185379192480239485e+00
2.227380474257637299e+00
2.227380474257637299e+00
2.144502945036164565e+00
2.144502945036164565e+00
2.110376903592028786e+00
2.110376903592028786e+00
2.564703268532364966e+00
2.564703268532364966e+00
2.480888210699789376e+00
2.480888210699789376e+00
2.417511276589251690e+00
2.417511276589251690e+00
2.398760704367198571e+00
2.398760704367198571e+00
2.370634846034120002e+00
2.370634846034120002e+00
2.370634846034120002e+00
2.337446333201086635e+00
2.337446333201086635e+00
2.340446424756614796e+00
2.340446424756614796e+00
2.458762535477767130e+00
2.458762535477767130e+00
2.315508163701284872e+00
2.315508163701284872e+00
2.255506332590716312e+00
2.255506332590716312e+00
2.199442121646778769e+00
2.199442121646778769e+00
2.212755027924436124e+00
2.212755027924436124e+00
2.087688711203345093e+00
2.087688711203345093e+00
2.087688711203345093e+00
2.184629169591357556e+00
2.184629169591357556e+00
2.511826654866176511e+00
2.511826654866176511e+00
2.300507705923642732e+00
2.300507705923642732e+00
2.203567247535630269e+00
2.203567247535630269e+00
2.187066743980223826e+00
2.187066743980223826e+00
2.151440656758324188e+00
2.151440656758324188e+00
2.103439191869869163e+00
2.103439191869869163e+00
2.150878139591662741e+00
2.150878139591662741e+00
2.150878139591662741e+00
2.283444685201574842e+00
2.283444685201574842e+00
2.187254249702444309e+00
2.187254249702444309e+00
2.227755485702078264e+00
2.227755485702078264e+00
2.286444776757103448e+00
2.286444776757103448e+00
2.311758049256874337e+00
2.311758049256874337e+00
2.222880336924344391e+00
2.222880336924344391e+00
2.398948210089419053e+00
2.398948210089419053e+00
2.509951597643971244e+00
2.509951597643971244e+00
2.276319467757194737e+00
2.276319467757194737e+00
2.276319467757194737e+00
2.207317361980041248e+00
2.207317361980041248e+00
2.166066103091524919e+00
2.166066103091524919e+00
2.114502029480880285e+00
2.114502029480880285e+00
2.125939878536332373e+00
2.125939878536332373e+00
2.238818323313089387e+00
2.238818323313089387e+00
2.285694753868221074e+00
2.285694753868221074e+00
2.255506332590716312e+00
2.255506332590716312e+00
2.267506698812830290e+00
2.267506698812830290e+00
2.267506698812830290e+00
2.301820245979186552e+00
2.301820245979186552e+00
2.255131321146275347e+00
2.255131321146275347e+00
2.172628803369243577e+00
2.172628803369243577e+00
2.539202490310373150e+00
2.539202490310373150e+00
2.534327341532639721e+00
2.534327341532639721e+00
2.392198004089480357e+00
2.392198004089480357e+00
2.347571642200994901e+00
2.347571642200994901e+00
2.293007477034821662e+00
2.293007477034821662e+00
2.293007477034821662e+00
2.287569811090426342e+00
2.287569811090426342e+00
2.331071138645588459e+00
2.331071138645588459e+00
2.445074617755668811e+00
2.445074617755668811e+00
2.333321207312235135e+00
2.333321207312235135e+00
2.236380748924222672e+00
2.236380748924222672e+00
2.183316629535813735e+00
2.183316629535813735e+00
2.164941068758201581e+00
2.164941068758201581e+00
1.987373149815363060e+00
1.987373149815363060e+00
1.987373149815363060e+00
1.970685140537736135e+00
1.970685140537736135e+00
2.390322946867275089e+00
2.390322946867275089e+00
2.288507339701529197e+00
2.288507339701529197e+00
2.240505874813074172e+00
2.240505874813074172e+00
2.219317728202154782e+00
2.219317728202154782e+00
2.233943174535355514e+00
2.233943174535355514e+00
2.251193700979644330e+00
2.251193700979644330e+00
2.264131595812860720e+00
2.264131595812860720e+00
2.264131595812860720e+00
2.412073610644855925e+00
2.412073610644855925e+00
2.284944730979339145e+00
2.284944730979339145e+00
2.275006927701650916e+00
2.275006927701650916e+00
2.235255714590899334e+00
2.235255714590899334e+00
2.259443952757347329e+00
2.259443952757347329e+00
2.155378276924954761e+00
2.155378276924954761e+00
2.316820703756828248e+00
2.316820703756828248e+00
2.551577867976928093e+00
2.551577867976928093e+00
2.551577867976928093e+00
2.342883999145481511e+00
2.342883999145481511e+00
2.306695394756919981e+00
2.306695394756919981e+00
2.335571275978881367e+00
2.335571275978881367e+00
2.311383037812433372e+00
2.311383037812433372e+00
2.294695028534806447e+00
2.294695028534806447e+00
2.313070589312418157e+00
2.313070589312418157e+00
2.334258735923337547e+00
2.334258735923337547e+00
2.200567155980101663e+00
2.200567155980101663e+00
2.208067384868923178e+00
2.208067384868923178e+00
2.208067384868923178e+00
2.229068025757622085e+00
2.229068025757622085e+00
2.182191595202490397e+00
2.182191595202490397e+00
2.053750175481429796e+00
2.053750175481429796e+00
2.328821069978942226e+00
2.328821069978942226e+00
2.423698965422528495e+00
2.423698965422528495e+00
2.301632740256966070e+00
2.301632740256966070e+00
2.304257820368053267e+00
2.304257820368053267e+00
2.292257454145939732e+00
2.292257454145939732e+00
2.292257454145939732e+00
2.267506698812830290e+00
2.267506698812830290e+00
2.246881069368571904e+00
2.246881069368571904e+00
2.329008575701162709e+00
2.329008575701162709e+00
2.305945371868038052e+00
2.305945371868038052e+00
2.254756309701834383e+00
2.254756309701834383e+00
2.221567796868801015e+00
2.221567796868801015e+00
2.195316995757927270e+00
2.195316995757927270e+00
2.080000976592303541e+00
2.080000976592303541e+00
2.080000976592303541e+00
2.018311593981750196e+00
2.018311593981750196e+00
2.404010864589373409e+00
2.404010864589373409e+00
2.326383495590075512e+00
2.326383495590075512e+00
2.264881618701742649e+00
2.264881618701742649e+00
2.275569444868312807e+00
2.275569444868312807e+00
2.287194799645985377e+00
2.287194799645985377e+00
2.309882992034669069e+00
2.309882992034669069e+00
2.338383861812189490e+00
2.338383861812189490e+00
2.338383861812189490e+00
2.467762810144352947e+00
2.467762810144352947e+00
2.296007568590349823e+00
2.296007568590349823e+00
2.155565782647175688e+00
2.155565782647175688e+00
2.051125095370342155e+00
2.051125095370342155e+00
2.043624866481521085e+00
2.043624866481521085e+00
1.915745963927121709e+00
1.915745963927121709e+00
1.981935483870967740e+00
1.981935483870967740e+00
2.383385235145115466e+00
2.383385235145115466e+00
2.383385235145115466e+00
2.291319925534837321e+00
2.291319925534837321e+00
2.281382122257148648e+00
2.281382122257148648e+00
2.298070131534776017e+00
2.298070131534776017e+00
2.322070863979003530e+00
2.322070863979003530e+00
2.396698141422773265e+00
2.396698141422773265e+00
2.528702169866023475e+00
2.528702169866023475e+00
2.729145786919766614e+00
2.729145786919766614e+00
2.535077364421521651e+00
2.535077364421521651e+00
2.410761070589312105e+00
2.410761070589312105e+00
2.349634205145421095e+00
2.349634205145421095e+00
2.349634205145421095e+00
2.307445417645802355e+00
2.307445417645802355e+00
2.058062807092501334e+00
2.058062807092501334e+00
2.222317819757682944e+00
2.222317819757682944e+00
2.462512649922177665e+00
2.462512649922177665e+00
2.330133610034486047e+00
2.330133610034486047e+00
2.307257911923581428e+00
2.307257911923581428e+00
2.252881252479629115e+00
2.252881252479629115e+00
2.201692190313425002e+00
2.201692190313425002e+00
2.201692190313425002e+00
2.185754203924680450e+00
2.185754203924680450e+00
2.258693929868464956e+00
2.258693929868464956e+00
2.263944090090640238e+00
2.263944090090640238e+00
2.204504776146733125e+00
2.204504776146733125e+00
2.188191778313547164e+00
2.188191778313547164e+00
2.171503769035920239e+00
2.171503769035920239e+00
2.061625415814691387e+00
2.061625415814691387e+00
1.951934568315683460e+00
1.951934568315683460e+00
1.951934568315683460e+00
2.304070314645832784e+00
2.304070314645832784e+00
2.336508804589983779e+00
2.336508804589983779e+00
2.217817682424390480e+00
2.217817682424390480e+00
2.187629261146885273e+00
2.187629261146885273e+00
2.188379284035767647e+00
2.188379284035767647e+00
2.230193060090945423e+00
2.230193060090945423e+00
2.268631733146153184e+00
2.268631733146153184e+00
2.476575579088717394e+00
2.476575579088717394e+00
2.476575579088717394e+00
2.487263405255287552e+00
2.487263405255287552e+00
2.461575121311075254e+00
2.461575121311075254e+00
2.334821253089998994e+00
2.334821253089998994e+00
2.257568895535142062e+00
2.257568895535142062e+00
2.051125095370342155e+00
2.051125095370342155e+00
1.965997497482223189e+00
1.965997497482223189e+00
2.341946470534379099e+00
2.341946470534379099e+00
2.160628437147130043e+00
2.160628437147130043e+00
2.160628437147130043e+00
2.089751274147770843e+00
2.089751274147770843e+00
2.217255165257729033e+00
2.217255165257729033e+00
2.326195989867855030e+00
2.326195989867855030e+00
2.408511001922666317e+00
2.408511001922666317e+00
2.452949858088931290e+00
2.452949858088931290e+00
2.547827753532517558e+00
2.547827753532517558e+00
2.309507980590228104e+00
2.309507980590228104e+00
2.248006103701895242e+00
2.248006103701895242e+00
2.182004089480269915e+00
2.182004089480269915e+00
2.182004089480269915e+00
2.129689992980742907e+00
2.129689992980742907e+00
1.968622577593310385e+00
1.968622577593310385e+00
2.113376995147556947e+00
2.113376995147556947e+00
2.418636310922574584e+00
2.418636310922574584e+00
2.318695760979033516e+00
2.318695760979033516e+00
2.234130680257575996e+00
2.234130680257575996e+00
2.199254615924558287e+00
2.199254615924558287e+00
2.241443403424177028e+00
2.241443403424177028e+00
2.241443403424177028e+00
2.329571092867824156e+00
2.329571092867824156e+00
2.339321390423291458e+00
2.339321390423291458e+00
2.371009857478560967e+00
2.371009857478560967e+00
2.227567979979857782e+00
2.227567979979857782e+00
2.257568895535142062e+00
2.257568895535142062e+00
2.275944456312753772e+00
2.275944456312753772e+00
2.265069124423963132e+00
2.265069124423963132e+00
2.213880062257759462e+00
2.213880062257759462e+00
2.213880062257759462e+00
2.460825098422192880e+00
2.460825098422192880e+00
2.536952421643726918e+00
2.536952421643726918e+00
2.374947477645191540e+00
2.374947477645191540e+00
2.325258461256752618e+00
2.325258461256752618e+00
2.318883266701254442e+00
2.318883266701254442e+00
2.276319467757194737e+00
2.276319467757194737e+00
2.171503769035920239e+00
2.171503769035920239e+00
2.231130588702047834e+00
2.231130588702047834e+00
2.231130588702047834e+00
2.254381298257393418e+00
2.254381298257393418e+00
2.148628070925016065e+00
2.148628070925016065e+00
2.095188940092165719e+00
2.095188940092165719e+00
2.130815027314065802e+00
2.130815027314065802e+00
2.015311502426221590e+00
2.015311502426221590e+00
1.940121707815790408e+00
1.940121707815790408e+00
2.368947294534135217e+00
2.368947294534135217e+00
2.377385052034058699e+00
2.377385052034058699e+00
2.337446333201086635e+00
2.337446333201086635e+00
2.337446333201086635e+00
2.242755943479720404e+00
2.242755943479720404e+00
2.231880611590930208e+00
2.231880611590930208e+00
2.221755302591021497e+00
2.221755302591021497e+00
2.241255897701956545e+00
2.241255897701956545e+00
2.365759697256386129e+00
2.365759697256386129e+00
2.184816675313578038e+00
2.184816675313578038e+00
2.153690725424969976e+00
2.153690725424969976e+00
2.151628162480544670e+00
2.151628162480544670e+00
2.151628162480544670e+00
2.326195989867855030e+00
2.326195989867855030e+00
2.226442945646534444e+00
2.226442945646534444e+00
2.248943632312997654e+00
2.248943632312997654e+00
2.535452375865963059e+00
2.535452375865963059e+00
2.297882625812555535e+00
2.297882625812555535e+00
2.296757591479232197e+00
2.296757591479232197e+00
2.368009765923032361e+00
2.368009765923032361e+00
2.369134800256355700e+00
2.369134800256355700e+00
2.286257271034882521e+00
2.286257271034882521e+00
2.286257271034882521e+00
2.279319559312723342e+00
2.279319559312723342e+00
2.418636310922574584e+00
2.418636310922574584e+00
2.301632740256966070e+00
2.301632740256966070e+00
2.286444776757103448e+00
2.286444776757103448e+00
2.323008392590105942e+00
2.323008392590105942e+00
2.389947935422834124e+00
2.389947935422834124e+00
2.196817041535691573e+00
2.196817041535691573e+00
2.302757774590289408e+00
2.302757774590289408e+00
2.302757774590289408e+00
2.326195989867855030e+00
2.326195989867855030e+00
2.121252235480818982e+00
2.121252235480818982e+00
2.116002075258644588e+00
2.116002075258644588e+00
2.052437635425885976e+00
2.052437635425885976e+00
2.019999145481734981e+00
2.019999145481734981e+00
2.060125370036927084e+00
2.060125370036927084e+00
2.075125827814569668e+00
2.075125827814569668e+00
2.083001068147831703e+00
2.083001068147831703e+00
2.083001068147831703e+00
1.977622852259895758e+00
1.977622852259895758e+00
2.022624225592822178e+00
2.022624225592822178e+00
2.197004547257912055e+00
2.197004547257912055e+00
2.332946195867793726e+00
2.332946195867793726e+00
2.385447798089541660e+00
2.385447798089541660e+00
2.752396496475112198e+00
2.752396496475112198e+00
2.784459974974822671e+00
2.784459974974822671e+00
2.660706198309274573e+00
2.660706198309274573e+00
2.628455214087344061e+00
2.628455214087344061e+00
2.628455214087344061e+00
2.533014801477095901e+00
2.533014801477095901e+00
2.370447340311899076e+00
2.370447340311899076e+00
2.341758964812158617e+00
2.341758964812158617e+00
2.438136906033509188e+00
2.438136906033509188e+00
2.347759147923215384e+00
2.347759147923215384e+00
2.306882900479140464e+00
2.306882900479140464e+00
2.168503677480392078e+00
2.168503677480392078e+00
2.033499557481612818e+00
2.033499557481612818e+00
1.919871089815973431e+00
1.919871089815973431e+00
1.919871089815973431e+00
1.930933927426984553e+00
1.930933927426984553e+00
2.346071596423230599e+00
2.346071596423230599e+00
2.217817682424390480e+00
2.217817682424390480e+00
2.145627979369487459e+00
2.145627979369487459e+00
2.162315988647114828e+00
2.162315988647114828e+00
2.150315622425000850e+00
2.150315622425000850e+00
2.106626789147617806e+00
2.106626789147617806e+00
2.064062990203558545e+00
2.064062990203558545e+00
2.263756584368419311e+00
2.263756584368419311e+00
2.263756584368419311e+00
2.251381206701864812e+00
2.251381206701864812e+00
2.243130954924161813e+00
2.243130954924161813e+00
2.251006195257423848e+00
2.251006195257423848e+00
2.327883541367839371e+00
2.327883541367839371e+00
2.308570451979125249e+00
2.308570451979125249e+00
2.441324503311258276e+00
2.441324503311258276e+00
2.639518051698355183e+00
2.639518051698355183e+00
2.317758232367931104e+00
2.317758232367931104e+00
2.317758232367931104e+00
2.254568803979613900e+00
2.254568803979613900e+00
2.155003265480513797e+00
2.155003265480513797e+00
2.071188207647938206e+00
2.071188207647938206e+00
2.138315256202887316e+00
2.138315256202887316e+00
2.318508255256813033e+00
2.318508255256813033e+00
2.479575670644245999e+00
2.479575670644245999e+00
2.336508804589983779e+00
2.336508804589983779e+00
2.360322031311990809e+00
2.360322031311990809e+00
2.233193151646474028e+00
2.233193151646474028e+00
2.233193151646474028e+00
2.159878414258247670e+00
2.159878414258247670e+00
1.994498367259743166e+00
1.994498367259743166e+00
2.169441206091494490e+00
2.169441206091494490e+00
2.293757499923703591e+00
2.293757499923703591e+00
2.090126285592211808e+00
2.090126285592211808e+00
2.175816400646992221e+00
2.175816400646992221e+00
2.326195989867855030e+00
2.326195989867855030e+00
2.448824732200079346e+00
2.448824732200079346e+00
2.448824732200079346e+00
2.476575579088717394e+00
2.476575579088717394e+00
2.376260017700735361e+00
2.376260017700735361e+00
2.361259559923093665e+00
2.361259559923093665e+00
2.389197912533951751e+00
2.389197912533951751e+00
2.416198736533707869e+00
2.416198736533707869e+00
2.379072603534043484e+00
2.379072603534043484e+00
2.148253059480575100e+00
2.148253059480575100e+00
2.001623584704122827e+00
2.001623584704122827e+00
2.001623584704122827e+00
2.379260109256263966e+00
2.379260109256263966e+00
2.288132328257088233e+00
2.288132328257088233e+00
2.127439924314096675e+00
2.127439924314096675e+00
2.052062623981445011e+00
2.052062623981445011e+00
2.037624683370464318e+00
2.037624683370464318e+00
2.063312967314676172e+00
2.063312967314676172e+00
2.137377727591784460e+00
2.137377727591784460e+00
2.137377727591784460e+00
2.030686971648304695e+00
2.030686971648304695e+00
1.736677999206518885e+00
1.736677999206518885e+00
1.596423718985564788e+00
1.596423718985564788e+00
1.624549577318643800e+00
1.624549577318643800e+00
1.777741752372814288e+00
1.777741752372814288e+00
1.853869075594348104e+00
1.853869075594348104e+00
2.233380657368694511e+00
2.233380657368694511e+00
3.149533616138187497e+00
3.149533616138187497e+00
3.149533616138187497e+00
3.149533616138187497e+00
3.149533616138187497e+00
3.099282082583086684e+00
3.099282082583086684e+00
2.952090090639972964e+00
2.952090090639972964e+00
2.738146061586351987e+00
2.738146061586351987e+00
2.535452375865963059e+00
2.535452375865963059e+00
2.474138004699850679e+00
2.474138004699850679e+00
2.495326151310770069e+00
2.495326151310770069e+00
2.344196539201025331e+00
2.344196539201025331e+00
2.347196630756553937e+00
2.347196630756553937e+00
2.347196630756553937e+00
2.410761070589312105e+00
2.410761070589312105e+00
2.388635395367290304e+00
2.388635395367290304e+00
2.211629993591112786e+00
2.211629993591112786e+00
2.340821436201055761e+00
2.340821436201055761e+00
2.462137638477736701e+00
2.462137638477736701e+00
2.242568437757499922e+00
2.242568437757499922e+00
2.121627246925260390e+00
2.121627246925260390e+00
2.002936124759666647e+00
2.002936124759666647e+00
1.915745963927121709e+00
1.915745963927121709e+00
1.915745963927121709e+00
1.898307931760612854e+00
1.898307931760612854e+00
2.006686239204077182e+00
2.006686239204077182e+00
1.996373424481948211e+00
1.996373424481948211e+00
1.817492965483565870e+00
1.817492965483565870e+00
1.801742484817041579e+00
1.801742484817041579e+00
1.920996124149296547e+00
1.920996124149296547e+00
1.980247932370982955e+00
1.980247932370982955e+00
1.784491958372753206e+00
1.784491958372753206e+00
1.956059694204534960e+00
1.956059694204534960e+00
1.956059694204534960e+00
2.128564958647419569e+00
2.128564958647419569e+00
2.106626789147617806e+00
2.106626789147617806e+00
2.285132236701559627e+00
2.285132236701559627e+00
2.557015533921323414e+00
2.557015533921323414e+00
2.567140842921231680e+00
2.567140842921231680e+00
2.649643360698263450e+00
2.649643360698263450e+00
2.819898556474502271e+00
2.819898556474502271e+00
2.738146061586351987e+00
2.738146061586351987e+00
2.738146061586351987e+00
2.623767571031830670e+00
2.623767571031830670e+00
2.513326700643940814e+00
2.513326700643940814e+00
2.398010681478316641e+00
2.398010681478316641e+00
2.326195989867855030e+00
2.326195989867855030e+00
2.353384319589831186e+00
2.353384319589831186e+00
3.031967528305917536e+00
3.031967528305917536e+00
2.944402356028931855e+00
2.944402356028931855e+00
2.545390179143650844e+00
2.545390179143650844e+00
2.386760338145085036e+00
2.386760338145085036e+00
2.386760338145085036e+00
2.264131595812860720e+00
2.264131595812860720e+00
2.179379009369182274e+00
2.179379009369182274e+00
2.184629169591357556e+00
2.184629169591357556e+00
2.194379467146824858e+00
2.194379467146824858e+00
1.983623035370952525e+00
1.983623035370952525e+00
2.047749992370372585e+00
2.047749992370372585e+00
1.938059144871364436e+00
1.938059144871364436e+00
1.972560197759941625e+00
1.972560197759941625e+00
2.144877956480605530e+00
2.144877956480605530e+00
2.144877956480605530e+00
2.419761345255897922e+00
2.419761345255897922e+00
2.728583269753105167e+00
2.728583269753105167e+00
2.527389629810480098e+00
2.527389629810480098e+00
2.535264870143742133e+00
2.535264870143742133e+00
2.504513931699575480e+00
2.504513931699575480e+00
2.238818323313089387e+00
2.238818323313089387e+00
2.110376903592028786e+00
2.110376903592028786e+00
2.121814752647480873e+00
2.121814752647480873e+00
2.121814752647480873e+00
2.240693380535294654e+00
2.240693380535294654e+00
2.160440931424909561e+00
2.160440931424909561e+00
1.927183812982574018e+00
1.927183812982574018e+00
1.493295571764275076e+00
1.493295571764275076e+00
1.180161015655995405e+00
1.180161015655995405e+00
9.356535538804284791e-01
9.356535538804284791e-01
1.177723441267128468e+00
1.177723441267128468e+00
1.453356852931302790e+00
1.453356852931302790e+00
1.453356852931302790e+00
1.840181157872249562e+00
1.840181157872249562e+00
2.501138828699606353e+00
2.501138828699606353e+00
2.930339426862392127e+00
2.930339426862392127e+00
3.108282357249672057e+00
3.108282357249672057e+00
3.248724143192846636e+00
3.248724143192846636e+00
3.559796136356700114e+00
3.559796136356700114e+00
3.568608905301065448e+00
3.568608905301065448e+00
3.113720023194066933e+00
3.113720023194066933e+00
3.113720023194066933e+00
2.647580797753837700e+00
2.647580797753837700e+00
2.245943540757469048e+00
2.245943540757469048e+00
1.962622394482253396e+00
1.962622394482253396e+00
1.811305276650288398e+00
1.811305276650288398e+00
2.233943174535355514e+00
2.233943174535355514e+00
2.190254341257972914e+00
2.190254341257972914e+00
2.181066560869167059e+00
2.181066560869167059e+00
2.173941343424787398e+00
2.173941343424787398e+00
2.173941343424787398e+00
2.450887295144505096e+00
2.450887295144505096e+00
2.287007293923764895e+00
2.287007293923764895e+00
1.969372600482192537e+00
1.969372600482192537e+00
1.968435071871089903e+00
1.968435071871089903e+00
1.777366740928373101e+00
1.777366740928373101e+00
1.943871822260200721e+00
1.943871822260200721e+00
2.165503585924863472e+00
2.165503585924863472e+00
2.304070314645832784e+00
2.304070314645832784e+00
2.304070314645832784e+00
2.284944730979339145e+00
2.284944730979339145e+00
2.360134525589770327e+00
2.360134525589770327e+00
2.608204596087527527e+00
2.608204596087527527e+00
2.415261207922605013e+00
2.415261207922605013e+00
2.333883724478896582e+00
2.333883724478896582e+00
2.250631183812982439e+00
2.250631183812982439e+00
2.054312692648091243e+00
2.054312692648091243e+00
1.887620105594042919e+00
1.887620105594042919e+00
2.150690633869442259e+00
2.150690633869442259e+00
2.150690633869442259e+00
2.525514572588274831e+00
2.525514572588274831e+00
2.399698232978301426e+00
2.399698232978301426e+00
2.315883175145725836e+00
2.315883175145725836e+00
2.234505691702016961e+00
2.234505691702016961e+00
2.223817865535447247e+00
2.223817865535447247e+00
2.221567796868801015e+00
2.221567796868801015e+00
2.733645924253059523e+00
2.733645924253059523e+00
2.949652516251106249e+00
2.949652516251106249e+00
2.949652516251106249e+00
2.664643818475905590e+00
2.664643818475905590e+00
2.566390820032349751e+00
2.566390820032349751e+00
2.442074526200140649e+00
2.442074526200140649e+00
2.334446241645558029e+00
2.334446241645558029e+00
2.086001159703360308e+00
2.086001159703360308e+00
2.080188482314524023e+00
2.080188482314524023e+00
2.070813196203497242e+00
2.070813196203497242e+00
1.643112643818475993e+00
1.643112643818475993e+00
1.111533921323282437e+00
1.111533921323282437e+00
1.111533921323282437e+00
1.165348063600573747e+00
1.165348063600573747e+00
1.394667561876278050e+00
1.394667561876278050e+00
1.610111636707663108e+00
1.610111636707663108e+00
2.465700247199926753e+00
2.465700247199926753e+00
3.126657918027283323e+00
3.126657918027283323e+00
3.505044465468306392e+00
3.505044465468306392e+00
3.505044465468306392e+00
3.505044465468306392e+00
3.080156498916593044e+00
3.080156498916593044e+00
3.080156498916593044e+00
2.637267983031708951e+00
2.637267983031708951e+00
2.432886745811334794e+00
2.432886745811334794e+00
2.519889400921659028e+00
2.519889400921659028e+00
2.374759971922971058e+00
2.374759971922971058e+00
2.146565507980590315e+00
2.146565507980590315e+00
1.874307199316385342e+00
1.874307199316385342e+00
1.786179509872737770e+00
1.786179509872737770e+00
1.787304544206060886e+00
1.787304544206060886e+00
1.787304544206060886e+00
1.354728843043305764e+00
1.354728843043305764e+00
1.486545365764335935e+00
1.486545365764335935e+00
1.193473921933652759e+00
1.193473921933652759e+00
1.068220099490341024e+00
1.068220099490341024e+00
1.406105410931730137e+00
1.406105410931730137e+00
2.083376079592272667e+00
2.083376079592272667e+00
2.875962767418439370e+00
2.875962767418439370e+00
3.462480666524247130e+00
3.462480666524247130e+00
3.462480666524247130e+00
3.647361308633686239e+00
3.647361308633686239e+00
3.172971831415753563e+00
3.172971831415753563e+00
3.058968352305673211e+00
3.058968352305673211e+00
3.101907162694173881e+00
3.101907162694173881e+00
3.182347117526780345e+00
3.182347117526780345e+00
2.810710776085695972e+00
2.810710776085695972e+00
2.655081026642659214e+00
2.655081026642659214e+00
2.731020844141972326e+00
2.731020844141972326e+00
2.731020844141972326e+00
2.303695303201391820e+00
2.303695303201391820e+00
2.025624317148350340e+00
2.025624317148350340e+00
1.996935941648609880e+00
1.996935941648609880e+00
1.925683767204809937e+00
1.925683767204809937e+00
1.994498367259743166e+00
1.994498367259743166e+00
2.125564867091891408e+00
2.125564867091891408e+00
2.119377178258613714e+00
2.119377178258613714e+00
1.962247383037812432e+00
1.962247383037812432e+00
1.962247383037812432e+00
1.955309671315652809e+00
1.955309671315652809e+00
1.698801843317972349e+00
1.698801843317972349e+00
1.462169621875667680e+00
1.462169621875667680e+00
1.340665913876766258e+00
1.340665913876766258e+00
1.832868434705648975e+00
1.832868434705648975e+00
2.324695944090090727e+00
2.324695944090090727e+00
2.577078646198919465e+00
2.577078646198919465e+00
2.972528214362010424e+00
2.972528214362010424e+00
2.972528214362010424e+00
2.920401623584704343e+00
2.920401623584704343e+00
2.862649861140782015e+00
2.862649861140782015e+00
2.689394573809015476e+00
2.689394573809015476e+00
2.713395306253242989e+00
2.713395306253242989e+00
2.558515579699087716e+00
2.558515579699087716e+00
1.851243995483260685e+00
1.851243995483260685e+00
1.175285866878261753e+00
1.175285866878261753e+00
9.585292519913327647e-01
9.585292519913327647e-01
9.585292519913327647e-01
1.193098910489211573e+00
1.193098910489211573e+00
1.597923764763328869e+00
1.597923764763328869e+00
2.409636036255989211e+00
2.409636036255989211e+00
2.932401989806817877e+00
2.932401989806817877e+00
3.136970732749412516e+00
3.136970732749412516e+00
3.245536545915097548e+00
3.245536545915097548e+00
3.289225379192480148e+00
3.289225379192480148e+00
2.792897732474746153e+00
2.792897732474746153e+00
2.092563859981078966e+00
2.092563859981078966e+00
2.092563859981078966e+00
1.596236213263344306e+00
1.596236213263344306e+00
1.281039094210638662e+00
1.281039094210638662e+00
1.338228339487899543e+00
1.338228339487899543e+00
1.786742027039399439e+00
1.786742027039399439e+00
2.122752281258583285e+00
2.122752281258583285e+00
2.247068575090792386e+00
2.247068575090792386e+00
2.285319742423780109e+00
2.285319742423780109e+00
2.683581896420178747e+00
2.683581896420178747e+00
2.548390270699179450e+00
2.548390270699179450e+00
2.548390270699179450e+00
2.502076357310709209e+00
2.502076357310709209e+00
2.737021027253029093e+00
2.737021027253029093e+00
3.022592242194891199e+00
3.022592242194891199e+00
3.031592516861476128e+00
3.031592516861476128e+00
2.900901028473769738e+00
2.900901028473769738e+00
2.866212469862972068e+00
2.866212469862972068e+00
2.632767845698416043e+00
2.632767845698416043e+00
2.402323313089388623e+00
2.402323313089388623e+00
2.402323313089388623e+00
2.454824915311136557e+00
2.454824915311136557e+00
2.568453382976775501e+00
2.568453382976775501e+00
2.039124729148228621e+00
2.039124729148228621e+00
1.650800378429517545e+00
1.650800378429517545e+00
1.690926602984710314e+00
1.690926602984710314e+00
1.550484817041535734e+00
1.550484817041535734e+00
1.561360148930326375e+00
1.561360148930326375e+00
1.573923032319101578e+00
1.573923032319101578e+00
1.573923032319101578e+00
1.742678182317575653e+00
1.742678182317575653e+00
1.913495895260475699e+00
1.913495895260475699e+00
2.191754387035737217e+00
2.191754387035737217e+00
2.717145420697653080e+00
2.717145420697653080e+00
2.989778740806299240e+00
2.989778740806299240e+00
3.065156041138950904e+00
3.065156041138950904e+00
2.995778923917356007e+00
2.995778923917356007e+00
2.735708487197485272e+00
2.735708487197485272e+00
2.735708487197485272e+00
2.474138004699850679e+00
2.474138004699850679e+00
2.546327707754753256e+00
2.546327707754753256e+00
2.472075441755424485e+00
2.472075441755424485e+00
2.207504867702261730e+00
2.207504867702261730e+00
2.142627887813959298e+00
2.142627887813959298e+00
2.110751915036469750e+00
2.110751915036469750e+00
2.018311593981750196e+00
2.018311593981750196e+00
1.846368846705527034e+00
1.846368846705527034e+00
1.841493697927793161e+00
1.841493697927793161e+00
1.841493697927793161e+00
1.751865962706381508e+00
1.751865962706381508e+00
1.750740928373058169e+00
1.750740928373058169e+00
1.849368938261055417e+00
1.849368938261055417e+00
2.236943266090884119e+00
2.236943266090884119e+00
2.529264687032685366e+00
2.529264687032685366e+00
2.641768120365001415e+00
2.641768120365001415e+00
2.943089815973388035e+00
2.943089815973388035e+00
2.567140842921231680e+00
2.567140842921231680e+00
2.567140842921231680e+00
2.365009674367503756e+00
2.365009674367503756e+00
2.342696493423261028e+00
2.342696493423261028e+00
2.353571825312051669e+00
2.353571825312051669e+00
2.281194616534928166e+00
2.281194616534928166e+00
2.238818323313089387e+00
2.238818323313089387e+00
2.252506241035188150e+00
2.252506241035188150e+00
2.080750999481185470e+00
2.080750999481185470e+00
2.043999877925962494e+00
2.043999877925962494e+00
2.043999877925962494e+00
2.088438734092227023e+00
2.088438734092227023e+00
2.266569170201727434e+00
2.266569170201727434e+00
2.158190862758262885e+00
2.158190862758262885e+00
2.223442854091006282e+00
2.223442854091006282e+00
2.508451551866206941e+00
2.508451551866206941e+00
2.260006469924008776e+00
2.260006469924008776e+00
2.301257728812525105e+00
2.301257728812525105e+00
2.379447614978484449e+00
2.379447614978484449e+00
2.412261116367076408e+00
2.412261116367076408e+00
2.412261116367076408e+00
2.398198187200537124e+00
2.398198187200537124e+00
2.372134891811884305e+00
2.372134891811884305e+00
2.306320383312479017e+00
2.306320383312479017e+00
1.955309671315652809e+00
1.955309671315652809e+00
1.777741752372814288e+00
1.777741752372814288e+00
1.943871822260200721e+00
1.943871822260200721e+00
2.128752464369640052e+00
2.128752464369640052e+00
2.128752464369640052e+00
2.269569261757255596e+00
2.269569261757255596e+00
2.665768852809228928e+00
2.665768852809228928e+00
2.743208716086306342e+00
2.743208716086306342e+00
2.703269997253333834e+00
2.703269997253333834e+00
2.754646565141758430e+00
2.754646565141758430e+00
2.577828669087801838e+00
2.577828669087801838e+00
2.359196996978667915e+00
2.359196996978667915e+00
2.193441938535722002e+00
2.193441938535722002e+00
2.169628711813714972e+00
2.169628711813714972e+00
2.134190130314035372e+00
2.134190130314035372e+00
1.976685323648793124e+00
1.976685323648793124e+00
1.976685323648793124e+00
1.827993285927915323e+00
1.827993285927915323e+00
1.764616351817377193e+00
1.764616351817377193e+00
1.728615253151036146e+00
1.728615253151036146e+00
1.717552415540025024e+00
1.717552415540025024e+00
2.293757499923703591e+00
2.293757499923703591e+00
2.720708029419843133e+00
2.720708029419843133e+00
2.756896633808405106e+00
2.756896633808405106e+00
2.498888760032960121e+00
2.498888760032960121e+00
2.498888760032960121e+00
2.287944822534867306e+00
2.287944822534867306e+00
2.116939603869747000e+00
2.116939603869747000e+00
2.101189123203222930e+00
2.101189123203222930e+00
2.422573931089205601e+00
2.422573931089205601e+00
2.562640705587938772e+00
2.562640705587938772e+00
2.652268440809351091e+00
2.652268440809351091e+00
2.625455122531815455e+00
2.625455122531815455e+00
2.453512375255592737e+00
2.453512375255592737e+00
2.453512375255592737e+00
2.193629444257942485e+00
2.193629444257942485e+00
2.102876674703207716e+00
2.102876674703207716e+00
2.440761986144596829e+00
2.440761986144596829e+00
2.188191778313547164e+00
2.188191778313547164e+00
1.897182897427289516e+00
1.897182897427289516e+00
1.687363994262520261e+00
1.687363994262520261e+00
1.678738731040376075e+00
1.678738731040376075e+00
1.678738731040376075e+00
1.646487746818445341e+00
1.646487746818445341e+00
1.814305368205817004e+00
1.814305368205817004e+00
2.461387615588854771e+00
2.461387615588854771e+00
2.923214209418012022e+00
2.923214209418012022e+00
3.229223548081912032e+00
3.229223548081912032e+00
2.980778466139713867e+00
2.980778466139713867e+00
2.640080568865016630e+00
2.640080568865016630e+00
2.218567705313272853e+00
2.218567705313272853e+00
2.180504043702505612e+00
2.180504043702505612e+00
2.358259468367565059e+00
2.358259468367565059e+00
2.358259468367565059e+00
2.182754112369151844e+00
2.182754112369151844e+00
2.237130771813104602e+00
2.237130771813104602e+00
2.428199102755821404e+00
2.428199102755821404e+00
2.572391003143406518e+00
2.572391003143406518e+00
2.541265053254798900e+00
2.541265053254798900e+00
2.587391460921048658e+00
2.587391460921048658e+00
2.536952421643726918e+00
2.536952421643726918e+00
2.216505142368846659e+00
2.216505142368846659e+00
2.216505142368846659e+00
2.046062440870388244e+00
2.046062440870388244e+00
2.003123630481887130e+00
2.003123630481887130e+00
1.900182988982818122e+00
1.900182988982818122e+00
1.839993652150029080e+00
1.839993652150029080e+00
2.167566148869289222e+00
2.167566148869289222e+00
2.218380199591051927e+00
2.218380199591051927e+00
2.035562120426038124e+00
2.035562120426038124e+00
1.878994842371898732e+00
1.878994842371898732e+00
1.878994842371898732e+00
1.775491683706167834e+00
1.775491683706167834e+00
1.783741935483871055e+00
1.783741935483871055e+00
2.066313058870204777e+00
2.066313058870204777e+00
2.512576677755058441e+00
2.512576677755058441e+00
2.608204596087527527e+00
2.608204596087527527e+00
2.599766838587603157e+00
2.599766838587603157e+00
2.460637592699972398e+00
2.460637592699972398e+00
2.392010498367259874e+00
2.392010498367259874e+00
2.392010498367259874e+00
2.301070223090304623e+00
2.301070223090304623e+00
2.367259743034150432e+00
2.367259743034150432e+00
2.795710318308054276e+00
2.795710318308054276e+00
2.432886745811334794e+00
2.432886745811334794e+00
2.094251411481063307e+00
2.094251411481063307e+00
1.980435438093203437e+00
1.980435438093203437e+00
1.927746330149235465e+00
1.927746330149235465e+00
2.012686422315133949e+00
2.012686422315133949e+00
2.012686422315133949e+00
2.302007751701407035e+00
2.302007751701407035e+00
2.787835077974791798e+00
2.787835077974791798e+00
2.779772331919309281e+00
2.779772331919309281e+00
2.690894619586779779e+00
2.690894619586779779e+00
2.453887386700033701e+00
2.453887386700033701e+00
2.202067201757865966e+00
2.202067201757865966e+00
1.938621662038026106e+00
1.938621662038026106e+00
1.972372692037720920e+00
1.972372692037720920e+00
1.972372692037720920e+00
2.274069399090548504e+00
2.274069399090548504e+00
2.147690542313913653e+00
2.147690542313913653e+00
2.352634296700948813e+00
2.352634296700948813e+00
2.527389629810480098e+00
2.527389629810480098e+00
2.477325601977599767e+00
2.477325601977599767e+00
2.445262123477889293e+00
2.445262123477889293e+00
2.451262306588946061e+00
2.451262306588946061e+00
2.556453016754661967e+00
2.556453016754661967e+00
2.389385418256172233e+00
2.389385418256172233e+00
2.315508163701284872e+00
2.315508163701284872e+00
2.218942716757713818e+00
2.218942716757713818e+00
2.218942716757713818e+00
2.069125644703512901e+00
2.069125644703512901e+00
1.857056672872096970e+00
1.857056672872096970e+00
1.995623401593066282e+00
1.995623401593066282e+00
2.096876491592150504e+00
2.096876491592150504e+00
1.980997955259865106e+00
1.980997955259865106e+00
2.042874843592639156e+00
2.042874843592639156e+00
2.210129947813348927e+00
2.210129947813348927e+00
2.384885280922879769e+00
2.384885280922879769e+00
2.384885280922879769e+00
2.552890408032471470e+00
2.552890408032471470e+00
2.689207068086794994e+00
2.689207068086794994e+00
2.670644001586962357e+00
2.670644001586962357e+00
2.436824365977965812e+00
2.436824365977965812e+00
2.228318002868740155e+00
2.228318002868740155e+00
1.965809991760002484e+00
1.965809991760002484e+00
1.704802026429029116e+00
1.704802026429029116e+00
1.659613147373882214e+00
1.659613147373882214e+00
1.659613147373882214e+00
2.010248847926267679e+00
2.010248847926267679e+00
1.957372234260078780e+00
1.957372234260078780e+00
1.940871730704672338e+00
1.940871730704672338e+00
2.174503860591448845e+00
2.174503860591448845e+00
2.395385601367229444e+00
2.395385601367229444e+00
2.436824365977965812e+00
2.436824365977965812e+00
2.508076540421765976e+00
2.508076540421765976e+00
2.702894985808892869e+00
2.702894985808892869e+00
2.702894985808892869e+00
2.609142124698629495e+00
2.609142124698629495e+00
2.546327707754753256e+00
2.546327707754753256e+00
2.582516312143315229e+00
2.582516312143315229e+00
2.622830042420728258e+00
2.622830042420728258e+00
2.408323496200445835e+00
2.408323496200445835e+00
2.271444318979460864e+00
2.271444318979460864e+00
2.430636677144688562e+00
2.430636677144688562e+00
2.003686147648549021e+00
2.003686147648549021e+00
2.003686147648549021e+00
1.809992736594744800e+00
1.809992736594744800e+00
1.871119602038636476e+00
1.871119602038636476e+00
2.032937040314951371e+00
2.032937040314951371e+00
2.230755577257606870e+00
2.230755577257606870e+00
2.377947569200720146e+00
2.377947569200720146e+00
2.563953245643482592e+00
2.563953245643482592e+00
2.510139103366191726e+00
2.510139103366191726e+00
2.503388897366253030e+00
2.503388897366253030e+00
2.402135807367168141e+00
2.402135807367168141e+00
2.402135807367168141e+00
2.299382671590319838e+00
2.299382671590319838e+00
2.135127658925138228e+00
2.135127658925138228e+00
2.249506149479659545e+00
2.249506149479659545e+00
2.302382763145847999e+00
2.302382763145847999e+00
1.887620105594042919e+00
1.887620105594042919e+00
1.789742118594927822e+00
1.789742118594927822e+00
1.801367473372600614e+00
1.801367473372600614e+00
1.849743949705496382e+00
1.849743949705496382e+00
1.849743949705496382e+00
1.960747337260048351e+00
1.960747337260048351e+00
2.278194524979400004e+00
2.278194524979400004e+00
2.695394756920072243e+00
2.695394756920072243e+00
2.876712790307321743e+00
2.876712790307321743e+00
2.912901394695883273e+00
2.912901394695883273e+00
2.719770500808740721e+00
2.719770500808740721e+00
2.466262764366588645e+00
2.466262764366588645e+00
2.185379192480239485e+00
2.185379192480239485e+00
2.185379192480239485e+00
2.339321390423291458e+00
2.339321390423291458e+00
2.460075075533310951e+00
2.460075075533310951e+00
2.407573473311563461e+00
2.407573473311563461e+00
2.426136539811395654e+00
2.426136539811395654e+00
2.461575121311075254e+00
2.461575121311075254e+00
2.340446424756614796e+00
2.340446424756614796e+00
2.299757683034760802e+00
2.299757683034760802e+00
2.399135715811639535e+00
2.399135715811639535e+00
2.399135715811639535e+00
2.229068025757622085e+00
2.229068025757622085e+00
2.007248756370739073e+00
2.007248756370739073e+00
1.900558000427259309e+00
1.900558000427259309e+00
1.979497909482100804e+00
1.979497909482100804e+00
1.963559923093356252e+00
1.963559923093356252e+00
1.986248115482039944e+00
1.986248115482039944e+00
2.457262489700002828e+00
2.457262489700002828e+00
2.339883907589953349e+00
2.339883907589953349e+00
2.339883907589953349e+00
2.231318094424268317e+00
2.231318094424268317e+00
2.211629993591112786e+00
2.211629993591112786e+00
2.220817773979919085e+00
2.220817773979919085e+00
2.251568712424085295e+00
2.251568712424085295e+00
2.333883724478896582e+00
2.333883724478896582e+00
2.536952421643726918e+00
2.536952421643726918e+00
2.422198919644764192e+00
2.422198919644764192e+00
2.403635853144932444e+00
2.403635853144932444e+00
2.342883999145481511e+00
2.342883999145481511e+00
2.342883999145481511e+00
2.322633381145664977e+00
2.322633381145664977e+00
2.098564043092135289e+00
2.098564043092135289e+00
2.116377086703085553e+00
2.116377086703085553e+00
2.425761528366954689e+00
2.425761528366954689e+00
2.178628986480300345e+00
2.178628986480300345e+00
2.127252418591876193e+00
2.127252418591876193e+00
2.115439558091983141e+00
2.115439558091983141e+00
2.048312509537034032e+00
2.048312509537034032e+00
2.048312509537034032e+00
2.028061891537217498e+00
2.028061891537217498e+00
2.105689260536515395e+00
2.105689260536515395e+00
2.299007660145878429e+00
2.299007660145878429e+00
2.213317545091097571e+00
2.213317545091097571e+00
2.225130405590991067e+00
2.225130405590991067e+00
2.274631916257209951e+00
2.274631916257209951e+00
2.315883175145725836e+00
2.315883175145725836e+00
2.212755027924436124e+00
2.212755027924436124e+00
2.212755027924436124e+00
2.449949766533402684e+00
2.449949766533402684e+00
2.644018189031648092e+00
2.644018189031648092e+00
2.478263130588702179e+00
2.478263130588702179e+00
2.400635761589403838e+00
2.400635761589403838e+00
2.366697225867488541e+00
2.366697225867488541e+00
2.292632465590380253e+00
2.292632465590380253e+00
2.239380840479750834e+00
2.239380840479750834e+00
2.282507156590471986e+00
2.282507156590471986e+00
2.330508621478927012e+00
2.330508621478927012e+00
2.330508621478927012e+00
2.223442854091006282e+00
2.223442854091006282e+00
2.186504226813562823e+00
2.186504226813562823e+00
2.161753471480452937e+00
2.161753471480452937e+00
2.038187200537125765e+00
2.038187200537125765e+00
2.011561387981810611e+00
2.011561387981810611e+00
2.330133610034486047e+00
2.330133610034486047e+00
2.208442396313364142e+00
2.208442396313364142e+00
2.083751091036713632e+00
2.083751091036713632e+00
2.162128482924894346e+00
2.162128482924894346e+00
2.162128482924894346e+00
2.300882717368083696e+00
2.300882717368083696e+00
2.450699789422284613e+00
2.450699789422284613e+00
2.567703360087893572e+00
2.567703360087893572e+00
2.679269264809107209e+00
2.679269264809107209e+00
2.614204779198583850e+00
2.614204779198583850e+00
2.466075258644368162e+00
2.466075258644368162e+00
2.333133701590014208e+00
2.333133701590014208e+00
2.282882168034912951e+00
2.282882168034912951e+00
2.282882168034912951e+00
2.139065279091769245e+00
2.139065279091769245e+00
2.077188390758995418e+00
2.077188390758995418e+00
2.463637684255501004e+00
2.463637684255501004e+00
2.343446516312143402e+00
2.343446516312143402e+00
2.268819238868374111e+00
2.268819238868374111e+00
2.227380474257637299e+00
2.227380474257637299e+00
2.236193243202001746e+00
2.236193243202001746e+00
2.216505142368846659e+00
2.216505142368846659e+00
2.216505142368846659e+00
2.173191320535905025e+00
2.173191320535905025e+00
2.212192510757774677e+00
2.212192510757774677e+00
1.938809167760246588e+00
1.938809167760246588e+00
1.939746696371349222e+00
1.939746696371349222e+00
1.959997314371166199e+00
1.959997314371166199e+00
2.011373882259590129e+00
2.011373882259590129e+00
1.950809533982360344e+00
1.950809533982360344e+00
2.161378460036011973e+00
2.161378460036011973e+00
2.161378460036011973e+00
2.591516586809900158e+00
2.591516586809900158e+00
2.621517502365184438e+00
2.621517502365184438e+00
2.613079744865260956e+00
2.613079744865260956e+00
2.540515030365916971e+00
2.540515030365916971e+00
2.458012512588885201e+00
2.458012512588885201e+00
2.401573290200506694e+00
2.401573290200506694e+00
2.421261391033662225e+00
2.421261391033662225e+00
2.453137363811151772e+00
2.453137363811151772e+00
2.453137363811151772e+00
2.293007477034821662e+00
2.293007477034821662e+00
2.287944822534867306e+00
2.287944822534867306e+00
2.287757316812646824e+00
2.287757316812646824e+00
2.163441022980437278e+00
2.163441022980437278e+00
1.928308847315897134e+00
1.928308847315897134e+00
2.156690816980498582e+00
2.156690816980498582e+00
2.197567064424573946e+00
2.197567064424573946e+00
2.031999511703848516e+00
2.031999511703848516e+00
2.031999511703848516e+00
2.035562120426038124e+00
2.035562120426038124e+00
2.163253517258217240e+00
2.163253517258217240e+00
2.325820978423414065e+00
2.325820978423414065e+00
2.466825281533250092e+00
2.466825281533250092e+00
2.596766747032074996e+00
2.596766747032074996e+00
2.566765831476790716e+00
2.566765831476790716e+00
2.498888760032960121e+00
2.498888760032960121e+00
2.466637775811029609e+00
2.466637775811029609e+00
2.391447981200597983e+00
2.391447981200597983e+00
2.391447981200597983e+00
2.211254982146671821e+00
2.211254982146671821e+00
2.052250129703665493e+00
2.052250129703665493e+00
2.388635395367290304e+00
2.388635395367290304e+00
2.304070314645832784e+00
2.304070314645832784e+00
2.211067476424451339e+00
2.211067476424451339e+00
2.176753929258095077e+00
2.176753929258095077e+00
2.188379284035767647e+00
2.188379284035767647e+00
2.177503952146977007e+00
2.177503952146977007e+00
2.177503952146977007e+00
2.137940244758446351e+00
2.137940244758446351e+00
2.240130863368633207e+00
2.240130863368633207e+00
2.141315347758415477e+00
2.141315347758415477e+00
2.132315073091830104e+00
2.132315073091830104e+00
2.068375621814630971e+00
2.068375621814630971e+00
2.142065370647297406e+00
2.142065370647297406e+00
2.095751457258827610e+00
2.095751457258827610e+00
2.175066377758110736e+00
2.175066377758110736e+00
2.175066377758110736e+00
2.502638874477370656e+00
2.502638874477370656e+00
2.351509262367625919e+00
2.351509262367625919e+00
2.422198919644764192e+00
2.422198919644764192e+00
2.559640614032411055e+00
2.559640614032411055e+00
2.533014801477095901e+00
2.533014801477095901e+00
2.435136814477980582e+00
2.435136814477980582e+00
2.402885830256050514e+00
2.402885830256050514e+00
2.469075350199895880e+00
2.469075350199895880e+00
2.469075350199895880e+00
2.299570177312540320e+00
2.299570177312540320e+00
2.243505966368602778e+00
2.243505966368602778e+00
2.159690908536027187e+00
2.159690908536027187e+00
2.156128299813837135e+00
2.156128299813837135e+00
2.046624958037049247e+00
2.046624958037049247e+00
2.207317361980041248e+00
2.207317361980041248e+00
2.381322672200689716e+00
2.381322672200689716e+00
2.240318369090853690e+00
2.240318369090853690e+00
2.240318369090853690e+00
2.269381756035035114e+00
2.269381756035035114e+00
2.291694936979278285e+00
2.291694936979278285e+00
2.209567430646687480e+00
2.209567430646687480e+00
2.145252967925046494e+00
2.145252967925046494e+00
2.201879696035645484e+00
2.201879696035645484e+00
2.278194524979400004e+00
2.278194524979400004e+00
2.191191869869075770e+00
2.191191869869075770e+00
2.200942167424543072e+00
2.200942167424543072e+00
2.200942167424543072e+00
2.313445600756859122e+00
2.313445600756859122e+00
2.374759971922971058e+00
2.374759971922971058e+00
2.349446699423200169e+00
2.349446699423200169e+00
2.619829950865200097e+00
2.619829950865200097e+00
2.517639332255012796e+00
2.517639332255012796e+00
2.305382854701376161e+00
2.305382854701376161e+00
2.204317270424512643e+00
2.204317270424512643e+00
2.147503036591693171e+00
2.147503036591693171e+00
2.147503036591693171e+00
2.147878048036134135e+00
2.147878048036134135e+00
2.194379467146824858e+00
2.194379467146824858e+00
2.355634388256477418e+00
2.355634388256477418e+00
2.333696218756676100e+00
2.333696218756676100e+00
2.313820612201300086e+00
2.313820612201300086e+00
2.314945646534623425e+00
2.314945646534623425e+00
2.324320932645649762e+00
2.324320932645649762e+00
2.195316995757927270e+00
2.195316995757927270e+00
2.195316995757927270e+00
2.143377910702841227e+00
2.143377910702841227e+00
2.470200384533219218e+00
2.470200384533219218e+00
2.310258003479110034e+00
2.310258003479110034e+00
2.213317545091097571e+00
2.213317545091097571e+00
2.161003448591571008e+00
2.161003448591571008e+00
2.151253151036103706e+00
2.151253151036103706e+00
2.209942442091128445e+00
2.209942442091128445e+00
2.260943998535111632e+00
2.260943998535111632e+00
2.260943998535111632e+00
2.405698416089358194e+00
2.405698416089358194e+00
2.221192785424360050e+00
2.221192785424360050e+00
2.184066652424695665e+00
2.184066652424695665e+00
2.156128299813837135e+00
2.156128299813837135e+00
2.154628254036072832e+00
2.154628254036072832e+00
2.022249214148381213e+00
2.022249214148381213e+00
2.146002990813928868e+00
2.146002990813928868e+00
2.474138004699850679e+00
2.474138004699850679e+00
2.474138004699850679e+00
2.400635761589403838e+00
2.400635761589403838e+00
2.433636768700216724e+00
2.433636768700216724e+00
2.435699331644642474e+00
2.435699331644642474e+00
2.367822260200811879e+00
2.367822260200811879e+00
2.349821710867641578e+00
2.349821710867641578e+00
2.392385509811700839e+00
2.392385509811700839e+00
2.485763359477523249e+00
2.485763359477523249e+00
2.321320841090121156e+00
2.321320841090121156e+00
2.263194067201757864e+00
2.263194067201757864e+00
2.222130314035462462e+00
2.222130314035462462e+00
2.170003723258155937e+00
2.170003723258155937e+00
2.057500289925840331e+00
2.057500289925840331e+00
2.057500289925840331e+00
2.304257820368053267e+00
2.304257820368053267e+00
2.407948484756004870e+00
2.407948484756004870e+00
2.290757408368175430e+00
2.290757408368175430e+00
2.268819238868374111e+00
2.268819238868374111e+00
2.277256996368297592e+00
2.277256996368297592e+00
2.271631824701681346e+00
2.271631824701681346e+00
2.262631550035096417e+00
2.262631550035096417e+00
2.354134342478713116e+00
2.354134342478713116e+00
2.354134342478713116e+00
2.315133152256843907e+00
2.315133152256843907e+00
2.234130680257575996e+00
2.234130680257575996e+00
2.222130314035462462e+00
2.222130314035462462e+00
2.209192419202246516e+00
2.209192419202246516e+00
2.068188116092410045e+00
2.068188116092410045e+00
1.882557451094088563e+00
1.882557451094088563e+00
2.234130680257575996e+00
2.234130680257575996e+00
2.168316171758171151e+00
2.168316171758171151e+00
2.168316171758171151e+00
2.118439649647511303e+00
2.118439649647511303e+00
2.156503311258278099e+00
2.156503311258278099e+00
2.237318277535325084e+00
2.237318277535325084e+00
2.368009765923032361e+00
2.368009765923032361e+00
2.469637867366557771e+00
2.469637867366557771e+00
2.617017365031891973e+00
2.617017365031891973e+00
2.500388805810724424e+00
2.500388805810724424e+00
2.428949125644703777e+00
2.428949125644703777e+00
2.329946104312265120e+00
2.329946104312265120e+00
2.187629261146885273e+00
2.187629261146885273e+00
2.187629261146885273e+00
1.920246101260414395e+00
1.920246101260414395e+00
1.910870815149388058e+00
1.910870815149388058e+00
2.282507156590471986e+00
2.282507156590471986e+00
2.145627979369487459e+00
2.145627979369487459e+00
2.120877224036378017e+00
2.120877224036378017e+00
2.237505783257545566e+00
2.237505783257545566e+00
2.390885464033936536e+00
2.390885464033936536e+00
2.510139103366191726e+00
2.510139103366191726e+00
2.510139103366191726e+00
2.547827753532517558e+00
2.547827753532517558e+00
2.630517777031769810e+00
2.630517777031769810e+00
2.430074159978026671e+00
2.430074159978026671e+00
2.380947660756248752e+00
2.380947660756248752e+00
2.329571092867824156e+00
2.329571092867824156e+00
2.283632190923795324e+00
2.283632190923795324e+00
2.128939970091860534e+00
2.128939970091860534e+00
2.301070223090304623e+00
2.301070223090304623e+00
2.301070223090304623e+00
2.466075258644368162e+00
2.466075258644368162e+00
2.291507431257057803e+00
2.291507431257057803e+00
2.253631275368511044e+00
2.253631275368511044e+00
2.210504959257789892e+00
2.210504959257789892e+00
2.197942075869014911e+00
2.197942075869014911e+00
2.204879787591174090e+00
2.204879787591174090e+00
2.264694112979522167e+00
2.264694112979522167e+00
2.268444227423932702e+00
2.268444227423932702e+00
2.140190313425092139e+00
2.140190313425092139e+00
2.140190313425092139e+00
2.107751823480941145e+00
2.107751823480941145e+00
2.150878139591662741e+00
2.150878139591662741e+00
2.128377452925199087e+00
2.128377452925199087e+00
2.058250312814721816e+00
2.058250312814721816e+00
2.375322489089632505e+00
2.375322489089632505e+00
2.422011413922543710e+00
2.422011413922543710e+00
2.345696584978789634e+00
2.345696584978789634e+00
2.377385052034058699e+00
2.377385052034058699e+00
2.377385052034058699e+00
2.378322580645161111e+00
2.378322580645161111e+00
2.347196630756553937e+00
2.347196630756553937e+00
2.351884273812066883e+00
2.351884273812066883e+00
2.453324869533372254e+00
2.453324869533372254e+00
2.387135349589526001e+00
2.387135349589526001e+00
2.329383587145603673e+00
2.329383587145603673e+00
2.248943632312997654e+00
2.248943632312997654e+00
2.231130588702047834e+00
2.231130588702047834e+00
2.231130588702047834e+00
2.114877040925321250e+00
2.114877040925321250e+00
2.041937314981536300e+00
2.041937314981536300e+00
2.438324411755729670e+00
2.438324411755729670e+00
2.306882900479140464e+00
2.306882900479140464e+00
2.266569170201727434e+00
2.266569170201727434e+00
2.269381756035035114e+00
2.269381756035035114e+00
2.249881160924100509e+00
2.249881160924100509e+00
2.230755577257606870e+00
2.230755577257606870e+00
2.230943082979827352e+00
2.230943082979827352e+00
2.230943082979827352e+00
2.376260017700735361e+00
2.376260017700735361e+00
2.210317453535568966e+00
2.210317453535568966e+00
2.171128757591479275e+00
2.171128757591479275e+00
2.152003173924985191e+00
2.152003173924985191e+00
2.150878139591662741e+00
2.150878139591662741e+00
2.022061708426160731e+00
2.022061708426160731e+00
2.156128299813837135e+00
2.156128299813837135e+00
2.495326151310770069e+00
2.495326151310770069e+00
2.359572008423108880e+00
2.359572008423108880e+00
2.308570451979125249e+00
2.308570451979125249e+00
2.308570451979125249e+00
2.274819421979430434e+00
2.274819421979430434e+00
2.246881069368571904e+00
2.246881069368571904e+00
2.248193609424115724e+00
2.248193609424115724e+00
2.282694662312692468e+00
2.282694662312692468e+00
2.335196264534440402e+00
2.335196264534440402e+00
2.214442579424420909e+00
2.214442579424420909e+00
2.223817865535447247e+00
2.223817865535447247e+00
2.286257271034882521e+00
2.286257271034882521e+00
2.286257271034882521e+00
2.329758598590044638e+00
2.329758598590044638e+00
2.237318277535325084e+00
2.237318277535325084e+00
2.412261116367076408e+00
2.412261116367076408e+00
2.423136448255867048e+00
2.423136448255867048e+00
2.221755302591021497e+00
2.221755302591021497e+00
2.183504135258034218e+00
2.183504135258034218e+00
2.167378643147068740e+00
2.167378643147068740e+00
2.163628528702658205e+00
2.163628528702658205e+00
2.200754661702322146e+00
2.200754661702322146e+00
2.200754661702322146e+00
2.347009125034333454e+00
2.347009125034333454e+00
2.413948667867061193e+00
2.413948667867061193e+00
2.400823267311624321e+00
2.400823267311624321e+00
2.383760246589556875e+00
2.383760246589556875e+00
2.368572283089693808e+00
2.368572283089693808e+00
2.246318552201910457e+00
2.246318552201910457e+00
2.126877407147435228e+00
2.126877407147435228e+00
2.471325418866542556e+00
2.471325418866542556e+00
2.471325418866542556e+00
2.382822717978454019e+00
2.382822717978454019e+00
2.280819605090487201e+00
2.280819605090487201e+00
2.276881984923856628e+00
2.276881984923856628e+00
2.275194433423871843e+00
2.275194433423871843e+00
2.259818964201788294e+00
2.259818964201788294e+00
2.260006469924008776e+00
2.260006469924008776e+00
2.367822260200811879e+00
2.367822260200811879e+00
2.231693105868709726e+00
2.231693105868709726e+00
2.231693105868709726e+00
2.164566057313760616e+00
2.164566057313760616e+00
2.111314432203131197e+00
2.111314432203131197e+00
2.115439558091983141e+00
2.115439558091983141e+00
1.964684957426679368e+00
1.964684957426679368e+00
1.984185552537614194e+00
1.984185552537614194e+00
2.439824457533493973e+00
2.439824457533493973e+00
2.294882534257026929e+00
2.294882534257026929e+00
2.273506881923887057e+00
2.273506881923887057e+00
2.273506881923887057e+00
2.356196905423139309e+00
2.356196905423139309e+00
2.437386883144627259e+00
2.437386883144627259e+00
2.479763176366466482e+00
2.479763176366466482e+00
2.459512558366649504e+00
2.459512558366649504e+00
2.503951414532914033e+00
2.503951414532914033e+00
2.283632190923795324e+00
2.283632190923795324e+00
2.249131138035218136e+00
2.249131138035218136e+00
2.221755302591021497e+00
2.221755302591021497e+00
2.221755302591021497e+00
2.208629902035584625e+00
2.208629902035584625e+00
2.063687978759117581e+00
2.063687978759117581e+00
2.209567430646687480e+00
2.209567430646687480e+00
2.423323953978087530e+00
2.423323953978087530e+00
2.259443952757347329e+00
2.259443952757347329e+00
2.233380657368694511e+00
2.233380657368694511e+00
2.194566972869045340e+00
2.194566972869045340e+00
2.155190771202734279e+00
2.155190771202734279e+00
2.175816400646992221e+00
2.175816400646992221e+00
2.175816400646992221e+00
2.281194616534928166e+00
2.281194616534928166e+00
2.312320566423536228e+00
2.312320566423536228e+00
2.173941343424787398e+00
2.173941343424787398e+00
2.136065187536240639e+00
2.136065187536240639e+00
2.155003265480513797e+00
2.155003265480513797e+00
2.173566331980346433e+00
2.173566331980346433e+00
2.093501388592180934e+00
2.093501388592180934e+00
2.387322855311746483e+00
2.387322855311746483e+00
2.387322855311746483e+00
2.449199743644520311e+00
2.449199743644520311e+00
2.375134983367412023e+00
2.375134983367412023e+00
2.388635395367290304e+00
2.388635395367290304e+00
2.400073244422742391e+00
2.400073244422742391e+00
2.405323404644917229e+00
2.405323404644917229e+00
2.417886288033692654e+00
2.417886288033692654e+00
2.482950773644215126e+00
2.482950773644215126e+00
2.362009582811975594e+00
2.362009582811975594e+00
2.269756767479476078e+00
2.269756767479476078e+00
2.219505233924375265e+00
2.219505233924375265e+00
2.204129764702292160e+00
2.204129764702292160e+00
2.204129764702292160e+00
2.081126010925626435e+00
2.081126010925626435e+00
2.022061708426160731e+00
2.022061708426160731e+00
2.446574663533433114e+00
2.446574663533433114e+00
2.364072145756401344e+00
2.364072145756401344e+00
2.329196081423383191e+00
2.329196081423383191e+00
2.314383129367961978e+00
2.314383129367961978e+00
2.277819513534959039e+00
2.277819513534959039e+00
2.251943723868526259e+00
2.251943723868526259e+00
2.232443128757591655e+00
2.232443128757591655e+00
2.232443128757591655e+00
2.345321573534348669e+00
2.345321573534348669e+00
2.199067110202337361e+00
2.199067110202337361e+00
2.182379100924710880e+00
2.182379100924710880e+00
2.173941343424787398e+00
2.173941343424787398e+00
2.212192510757774677e+00
2.212192510757774677e+00
2.069500656147953865e+00
2.069500656147953865e+00
2.165691091647083955e+00
2.165691091647083955e+00
2.494951139866329104e+00
2.494951139866329104e+00
2.494951139866329104e+00
2.332758690145573244e+00
2.332758690145573244e+00
2.295257545701467894e+00
2.295257545701467894e+00
2.333133701590014208e+00
2.333133701590014208e+00
2.337258827478866152e+00
2.337258827478866152e+00
2.288507339701529197e+00
2.288507339701529197e+00
2.260568987090670667e+00
2.260568987090670667e+00
2.355259376812036454e+00
2.355259376812036454e+00
2.239193334757530351e+00
2.239193334757530351e+00
2.239193334757530351e+00
2.238443311868648422e+00
2.238443311868648422e+00
2.239380840479750834e+00
2.239380840479750834e+00
2.216505142368846659e+00
2.216505142368846659e+00
2.096313974425489057e+00
2.096313974425489057e+00
2.304445326090273749e+00
2.304445326090273749e+00
2.460075075533310951e+00
2.460075075533310951e+00
2.329946104312265120e+00
2.329946104312265120e+00
2.323195898312326424e+00
2.323195898312326424e+00
2.288882351145970162e+00
2.288882351145970162e+00
2.258318918424023991e+00
2.258318918424023991e+00
2.258318918424023991e+00
2.259256447035126847e+00
2.259256447035126847e+00
2.337633838923307117e+00
2.337633838923307117e+00
2.299382671590319838e+00
2.299382671590319838e+00
2.203004730368968822e+00
2.203004730368968822e+00
2.190254341257972914e+00
2.190254341257972914e+00
2.199817133091219734e+00
2.199817133091219734e+00
2.120127201147496088e+00
2.120127201147496088e+00
2.053562669759208870e+00
2.053562669759208870e+00
2.414323679311502602e+00
2.414323679311502602e+00
2.414323679311502602e+00
2.357884456923124095e+00
2.357884456923124095e+00
2.325258461256752618e+00
2.325258461256752618e+00
2.353009308145390222e+00
2.353009308145390222e+00
2.303132786034730373e+00
2.303132786034730373e+00
2.302570268868068482e+00
2.302570268868068482e+00
2.307820429090243319e+00
2.307820429090243319e+00
2.412823633533738299e+00
2.412823633533738299e+00
2.280069582201605716e+00
2.280069582201605716e+00
2.280069582201605716e+00
2.229255531479842567e+00
2.229255531479842567e+00
2.193816949980162967e+00
2.193816949980162967e+00
2.217442670979949515e+00
2.217442670979949515e+00
2.081126010925626435e+00
2.081126010925626435e+00
2.087126194036683202e+00
2.087126194036683202e+00
2.458950041199987613e+00
2.458950041199987613e+00
2.287194799645985377e+00
2.287194799645985377e+00
2.235630726035340299e+00
2.235630726035340299e+00
2.238818323313089387e+00
2.238818323313089387e+00
2.238818323313089387e+00
2.249506149479659545e+00
2.249506149479659545e+00
2.272381847590563719e+00
2.272381847590563719e+00
2.317383220923490139e+00
2.317383220923490139e+00
2.465700247199926753e+00
2.465700247199926753e+00
2.311383037812433372e+00
2.311383037812433372e+00
2.307070406201360946e+00
2.307070406201360946e+00
2.311758049256874337e+00
2.311758049256874337e+00
2.298632648701437464e+00
2.298632648701437464e+00
2.298632648701437464e+00
2.129314981536301499e+00
2.129314981536301499e+00
2.253068758201849597e+00
2.253068758201849597e+00
2.474325510422071162e+00
2.474325510422071162e+00
2.313633106479079604e+00
2.313633106479079604e+00
2.270881801812799416e+00
2.270881801812799416e+00
2.268819238868374111e+00
2.268819238868374111e+00
2.255881344035157721e+00
2.255881344035157721e+00
2.245381023590808045e+00
2.245381023590808045e+00
2.245381023590808045e+00
2.305382854701376161e+00
2.305382854701376161e+00
2.351321756645405436e+00
2.351321756645405436e+00
2.247631092257453833e+00
2.247631092257453833e+00
2.222880336924344391e+00
2.222880336924344391e+00
2.215567613757744247e+00
2.215567613757744247e+00
2.135690176091799675e+00
2.135690176091799675e+00
2.026561845759453195e+00
2.026561845759453195e+00
2.301445234534745587e+00
2.301445234534745587e+00
2.344759056367687222e+00
2.344759056367687222e+00
2.244818506424146598e+00
2.244818506424146598e+00
2.244818506424146598e+00
2.254006286812952009e+00
2.254006286812952009e+00
2.273881893368328022e+00
2.273881893368328022e+00
2.285319742423780109e+00
2.285319742423780109e+00
2.305195348979155678e+00
2.305195348979155678e+00
2.422198919644764192e+00
2.422198919644764192e+00
2.367634754478591397e+00
2.367634754478591397e+00
2.297882625812555535e+00
2.297882625812555535e+00
2.260943998535111632e+00
2.260943998535111632e+00
2.260943998535111632e+00
2.260381481368449741e+00
2.260381481368449741e+00
2.154628254036072832e+00
2.154628254036072832e+00
2.086563676870021755e+00
2.086563676870021755e+00
2.458387524033326166e+00
2.458387524033326166e+00
2.339696401867732423e+00
2.339696401867732423e+00
2.265819147312845505e+00
2.265819147312845505e+00
2.237130771813104602e+00
2.237130771813104602e+00
2.196629535813471090e+00
2.196629535813471090e+00
2.196629535813471090e+00
2.189879329813531950e+00
2.189879329813531950e+00
2.211442487868892304e+00
2.211442487868892304e+00
2.382822717978454019e+00
2.382822717978454019e+00
2.264506607257301685e+00
2.264506607257301685e+00
2.259631458479567812e+00
2.259631458479567812e+00
2.255693838312936794e+00
2.255693838312936794e+00
2.303882808923612302e+00
2.303882808923612302e+00
2.178253975035859380e+00
2.178253975035859380e+00
2.178253975035859380e+00
2.235068208868678852e+00
2.235068208868678852e+00
2.526264595477157204e+00
2.526264595477157204e+00
2.352446790978728330e+00
2.352446790978728330e+00
2.311945554979094819e+00
2.311945554979094819e+00
2.290944914090395912e+00
2.290944914090395912e+00
2.267131687368389326e+00
2.267131687368389326e+00
2.271444318979460864e+00
2.271444318979460864e+00
2.325258461256752618e+00
2.325258461256752618e+00
2.416011230811487387e+00
2.416011230811487387e+00
2.253443769646290562e+00
2.253443769646290562e+00
2.253443769646290562e+00
2.224005371257667729e+00
2.224005371257667729e+00
2.212192510757774677e+00
2.212192510757774677e+00
2.190254341257972914e+00
2.190254341257972914e+00
2.054687704092532208e+00
2.054687704092532208e+00
2.246693563646351421e+00
2.246693563646351421e+00
2.390885464033936536e+00
2.390885464033936536e+00
2.263381572923978347e+00
2.263381572923978347e+00
2.268069215979491737e+00
2.268069215979491737e+00
2.268069215979491737e+00
2.295445051423688376e+00
2.295445051423688376e+00
2.301257728812525105e+00
2.301257728812525105e+00
2.265444135868404540e+00
2.265444135868404540e+00
2.373822443311869090e+00
2.373822443311869090e+00
2.374572466200750576e+00
2.374572466200750576e+00
2.268444227423932702e+00
2.268444227423932702e+00
2.232630634479812137e+00
2.232630634479812137e+00
2.224942899868770141e+00
2.224942899868770141e+00
2.224942899868770141e+00
2.140377819147312621e+00
2.140377819147312621e+00
2.048500015259254514e+00
2.048500015259254514e+00
2.394823084200567997e+00
2.394823084200567997e+00
2.354696859645375007e+00
2.354696859645375007e+00
2.264131595812860720e+00
2.264131595812860720e+00
2.264694112979522167e+00
2.264694112979522167e+00
2.260943998535111632e+00
2.260943998535111632e+00
2.255506332590716312e+00
2.255506332590716312e+00
2.255506332590716312e+00
2.263194067201757864e+00
2.263194067201757864e+00
2.389385418256172233e+00
2.389385418256172233e+00
2.299007660145878429e+00
2.299007660145878429e+00
2.260568987090670667e+00
2.260568987090670667e+00
2.252318735312967224e+00
2.252318735312967224e+00
2.270881801812799416e+00
2.270881801812799416e+00
2.132127567369609622e+00
2.132127567369609622e+00
2.122939786980803767e+00
2.122939786980803767e+00
2.122939786980803767e+00
2.487450910977508034e+00
2.487450910977508034e+00
2.326195989867855030e+00
2.326195989867855030e+00
2.284757225257118218e+00
2.284757225257118218e+00
2.301257728812525105e+00
2.301257728812525105e+00
2.288694845423749680e+00
2.288694845423749680e+00
2.272944364757225166e+00
2.272944364757225166e+00
2.289632374034852091e+00
2.289632374034852091e+00
2.417323770867030763e+00
2.417323770867030763e+00
2.266569170201727434e+00
2.266569170201727434e+00
2.255131321146275347e+00
2.255131321146275347e+00
2.225505417035432032e+00
2.225505417035432032e+00
2.225505417035432032e+00
2.213692556535538980e+00
2.213692556535538980e+00
2.059937864314706601e+00
2.059937864314706601e+00
2.197754570146794428e+00
2.197754570146794428e+00
2.434199285866878171e+00
2.434199285866878171e+00
2.278007019257179522e+00
2.278007019257179522e+00
2.278194524979400004e+00
2.278194524979400004e+00
2.281569627979369130e+00
2.281569627979369130e+00
2.263756584368419311e+00
2.263756584368419311e+00
2.274256904812768987e+00
2.274256904812768987e+00
2.274256904812768987e+00
2.328821069978942226e+00
2.328821069978942226e+00
2.376447523422955843e+00
2.376447523422955843e+00
2.258881435590685438e+00
2.258881435590685438e+00
2.236005737479781263e+00
2.236005737479781263e+00
2.230193060090945423e+00
2.230193060090945423e+00
2.167003631702627775e+00
2.167003631702627775e+00
2.059187841425824672e+00
2.059187841425824672e+00
2.332008667256691314e+00
2.332008667256691314e+00
2.332008667256691314e+00
2.407198461867122496e+00
2.407198461867122496e+00
2.294695028534806447e+00
2.294695028534806447e+00
2.286069765312662039e+00
2.286069765312662039e+00
2.277444502090518075e+00
2.277444502090518075e+00
2.281007110812707683e+00
