2.050000061037018817e+00
2.050000061037018817e+00
2.074375804925687294e+00
2.075688344981231115e+00
2.075688344981231115e+00
2.028249397259437981e+00
2.028249397259437981e+00
2.010248847926267679e+00
2.022811731315042216e+00
2.022811731315042216e+00
2.061250404370250422e+00
2.061250404370250422e+00
2.098564043092135289e+00
2.109814386425366894e+00
2.109814386425366894e+00
2.113939512314218838e+00
2.126127384258552855e+00
2.126127384258552855e+00
2.016624042481765411e+00
2.016624042481765411e+00
2.025061799981688893e+00
2.021874202703940249e+00
2.021874202703940249e+00
2.060125370036927084e+00
2.060125370036927084e+00
2.085063631092257452e+00
2.064625507370219992e+00
2.064625507370219992e+00
2.057125278481399366e+00
2.057125278481399366e+00
2.044187383648182976e+00
2.072500747703482027e+00
2.072500747703482027e+00
2.094813928647724754e+00
2.046062440870388244e+00
2.046062440870388244e+00
2.020749168370616911e+00
2.020749168370616911e+00
2.014186468092898252e+00
2.028249397259437981e+00
2.095188940092165719e+00
2.095188940092165719e+00
2.100439100314340557e+00
2.100439100314340557e+00
2.054125186925870761e+00
2.018124088259529714e+00
2.018124088259529714e+00
2.064625507370219992e+00
2.064625507370219992e+00
2.114127018036439321e+00
2.149940610980559885e+00
2.149940610980559885e+00
2.086001159703360308e+00
2.086001159703360308e+00
2.062187932981353278e+00
2.056187749870296511e+00
2.056187749870296511e+00
2.060312875759148010e+00
2.020561662648396428e+00
2.020561662648396428e+00
2.033499557481612818e+00
2.033499557481612818e+00
2.024874294259468410e+00
2.039124729148228621e+00
2.039124729148228621e+00
2.099876583147679110e+00
2.100251594592120075e+00
2.100251594592120075e+00
2.043437360759300603e+00
2.005936216315195253e+00
2.005936216315195253e+00
2.049250038148136888e+00
2.049250038148136888e+00
2.028061891537217498e+00
2.009123813592944341e+00
2.009123813592944341e+00
2.024874294259468410e+00
2.024874294259468410e+00
2.112251960814234053e+00
2.121439741203039464e+00
2.121439741203039464e+00
2.068000610370189563e+00
1.990560747093111926e+00
1.990560747093111926e+00
1.979685415204321286e+00
1.979685415204321286e+00
2.063875484481338063e+00
1.937871639149143954e+00
1.937871639149143954e+00
2.121627246925260390e+00
2.121627246925260390e+00
2.110001892147587377e+00
2.062375438703573760e+00
2.062375438703573760e+00
2.061812921536912313e+00
2.061812921536912313e+00
2.073438276314584883e+00
2.030499465926084213e+00
2.030499465926084213e+00
2.067625598925748598e+00
2.089751274147770843e+00
2.089751274147770843e+00
2.103439191869869163e+00
2.103439191869869163e+00
2.053750175481429796e+00
2.067250587481307633e+00
2.067250587481307633e+00
2.041187292092654371e+00
2.041187292092654371e+00
2.088626239814447505e+00
2.109626880703146412e+00
2.109626880703146412e+00
2.076813379314554453e+00
2.040812280648213406e+00
2.040812280648213406e+00
2.023936765648365554e+00
2.023936765648365554e+00
2.051125095370342155e+00
2.066125553147984295e+00
2.066125553147984295e+00
2.030499465926084213e+00
2.030499465926084213e+00
1.995248390148625317e+00
2.002748619037446165e+00
2.002748619037446165e+00
2.028999420148319910e+00
2.028999420148319910e+00
2.091626331369976111e+00
2.109439374980925930e+00
2.109439374980925930e+00
2.059937864314706601e+00
2.070250679036835795e+00
2.070250679036835795e+00
2.166816125980407293e+00
2.166816125980407293e+00
2.143002899258400262e+00
2.037062166203802427e+00
2.037062166203802427e+00
2.050375072481459782e+00
2.050375072481459782e+00
2.058250312814721816e+00
2.016811548203985893e+00
2.016811548203985893e+00
2.113001983703115982e+00
2.113001983703115982e+00
2.113001983703115982e+00
2.037249671926022909e+00
2.037249671926022909e+00
1.967497543259987047e+00
1.906745689260536558e+00
1.906745689260536558e+00
1.975560289315469786e+00
1.975560289315469786e+00
2.089563768425550361e+00
2.204879787591174090e+00
2.204879787591174090e+00
2.117502121036408447e+00
2.153128208258308529e+00
2.153128208258308529e+00
2.120877224036378017e+00
2.062375438703573760e+00
2.062375438703573760e+00
1.984748069704275641e+00
1.984748069704275641e+00
2.058437818536942299e+00
2.066313058870204777e+00
2.066313058870204777e+00
2.055062715536973172e+00
2.055062715536973172e+00
1.990373241370891666e+00
1.973685232093264519e+00
1.973685232093264519e+00
2.107564317758720662e+00
2.107564317758720662e+00
2.139815301980651618e+00
2.139440290536210654e+00
2.139440290536210654e+00
2.083563585314493150e+00
2.083563585314493150e+00
2.010436353648488161e+00
2.080563493758964988e+00
2.080563493758964988e+00
2.105689260536515395e+00
2.082438550981169811e+00
2.082438550981169811e+00
2.034062074648274265e+00
2.034062074648274265e+00
2.019249122592852608e+00
2.063500473036897098e+00
2.063500473036897098e+00
2.116939603869747000e+00
2.116939603869747000e+00
2.085251136814477935e+00
2.116377086703085553e+00
2.116377086703085553e+00
2.094251411481063307e+00
2.094251411481063307e+00
2.044937406537064906e+00
2.098939054536576698e+00
2.098939054536576698e+00
2.061250404370250422e+00
2.008186284981841485e+00
2.008186284981841485e+00
2.011373882259590129e+00
2.011373882259590129e+00
2.009498825037385306e+00
1.953997131260109432e+00
1.953997131260109432e+00
1.977997863704336723e+00
2.068375621814630971e+00
2.068375621814630971e+00
2.163816034424878687e+00
2.163816034424878687e+00
2.131377544480727693e+00
2.128564958647419569e+00
2.128564958647419569e+00
2.110751915036469750e+00
2.110751915036469750e+00
2.029374431592760875e+00
1.977810357982116241e+00
1.977810357982116241e+00
2.009123813592944341e+00
2.009123813592944341e+00
2.061625415814691387e+00
2.089938779869991325e+00
2.089938779869991325e+00
2.056937772759178884e+00
2.095563951536606684e+00
2.095563951536606684e+00
2.148065553758354618e+00
2.148065553758354618e+00
2.089001251258888470e+00
2.047749992370372585e+00
2.047749992370372585e+00
2.086001159703360308e+00
2.086001159703360308e+00
2.140940336313974068e+00
2.073250770592364400e+00
2.073250770592364400e+00
2.020374156926175946e+00
2.094813928647724754e+00
2.094813928647724754e+00
2.167191137424848257e+00
2.167191137424848257e+00
2.084501113925596005e+00
2.031812005981628033e+00
2.031812005981628033e+00
1.977435346537675276e+00
1.977435346537675276e+00
2.058250312814721816e+00
2.083001068147831703e+00
2.083001068147831703e+00
2.051312601092562637e+00
2.047187475203710694e+00
2.047187475203710694e+00
1.958684774315622379e+00
1.958684774315622379e+00
2.085063631092257452e+00
2.126127384258552855e+00
2.126127384258552855e+00
2.125189855647450443e+00
2.125189855647450443e+00
2.133065095980712478e+00
2.087501205481124167e+00
2.087501205481124167e+00
2.038562211981566730e+00
2.038562211981566730e+00
2.074375804925687294e+00
2.065375530259102366e+00
2.065375530259102366e+00
2.000123538926358524e+00
2.000123538926358524e+00
1.940309213538010891e+00
2.021686696981719766e+00
2.021686696981719766e+00
2.166628620258186366e+00
2.186691732535783306e+00
2.186691732535783306e+00
2.016811548203985893e+00
2.016811548203985893e+00
2.081501022370067400e+00
2.064625507370219992e+00
2.064625507370219992e+00
2.031436994537187068e+00
2.031436994537187068e+00
1.942559282204657345e+00
2.009873836481826270e+00
2.009873836481826270e+00
2.211067476424451339e+00
2.211067476424451339e+00
2.168878688924833043e+00
2.112251960814234053e+00
2.112251960814234053e+00
2.113564500869777874e+00
2.113564500869777874e+00
2.071000701925717724e+00
1.990185735648670962e+00
1.990185735648670962e+00
2.062937955870235207e+00
2.174128849147007880e+00
2.174128849147007880e+00
2.086751182592242237e+00
2.086751182592242237e+00
1.986998138370922096e+00
1.965059968871120333e+00
1.965059968871120333e+00
2.129689992980742907e+00
2.129689992980742907e+00
1.928683858760338099e+00
1.930558915982543589e+00
1.930558915982543589e+00
2.030311960203863730e+00
2.157253334147160473e+00
2.157253334147160473e+00
2.180691549424726094e+00
2.180691549424726094e+00
2.217067659535508550e+00
2.069125644703512901e+00
2.069125644703512901e+00
2.090876308481094181e+00
2.090876308481094181e+00
2.212005005035553751e+00
2.064438001647999510e+00
2.064438001647999510e+00
2.043812372203741567e+00
2.043812372203741567e+00
1.995248390148625317e+00
2.015123996704001108e+00
2.015123996704001108e+00
2.044187383648182976e+00
2.029374431592760875e+00
2.029374431592760875e+00
1.939371684926908257e+00
1.939371684926908257e+00
1.968810083315530868e+00
2.058812829981383707e+00
2.058812829981383707e+00
2.101189123203222930e+00
2.101189123203222930e+00
2.132127567369609622e+00
2.053750175481429796e+00
2.053750175481429796e+00
2.082251045258949329e+00
2.097439008758812395e+00
2.097439008758812395e+00
2.068375621814630971e+00
2.068375621814630971e+00
2.170753746147038310e+00
2.071750724814600098e+00
2.071750724814600098e+00
1.925683767204809937e+00
1.925683767204809937e+00
1.969372600482192537e+00
1.999186010315256334e+00
1.999186010315256334e+00
2.016436536759544484e+00
2.016436536759544484e+00
2.133815118869594407e+00
2.349446699423200169e+00
2.349446699423200169e+00
2.188754295480208611e+00
2.042874843592639156e+00
2.042874843592639156e+00
1.963747428815576734e+00
1.963747428815576734e+00
2.034249580370494748e+00
2.185004181035798521e+00
2.185004181035798521e+00
2.233193151646474028e+00
2.233193151646474028e+00
2.338008850367748082e+00
2.256631366924039650e+00
2.256631366924039650e+00
2.084126102481154597e+00
1.919121066927091501e+00
1.919121066927091501e+00
1.815430402539139898e+00
1.815430402539139898e+00
1.844493789483321544e+00
1.897932920316171668e+00
1.897932920316171668e+00
2.077188390758995418e+00
2.077188390758995418e+00
2.206379833368938392e+00
2.112814477980895500e+00
2.112814477980895500e+00
2.067438093203528116e+00
2.067438093203528116e+00
2.025811822870570822e+00
2.094251411481063307e+00
2.094251411481063307e+00
1.988685689870906881e+00
1.909745780816064942e+00
1.909745780816064942e+00
2.107564317758720662e+00
2.107564317758720662e+00
2.043999877925962494e+00
1.978372875148777910e+00
1.978372875148777910e+00
1.973497726371044036e+00
1.973497726371044036e+00
2.028999420148319910e+00
2.125002349925229961e+00
2.125002349925229961e+00
2.197192052980132537e+00
2.481825739310891787e+00
2.481825739310891787e+00
2.428949125644703777e+00
2.428949125644703777e+00
2.183504135258034218e+00
2.112814477980895500e+00
2.112814477980895500e+00
2.028811914426099428e+00
2.028811914426099428e+00
1.929808893093661437e+00
1.715677358317819756e+00
1.715677358317819756e+00
1.594923673207800485e+00
1.594923673207800485e+00
1.863806878872035888e+00
2.065375530259102366e+00
2.065375530259102366e+00
2.132127567369609622e+00
2.132127567369609622e+00
2.224380382702108694e+00
2.058062807092501334e+00
2.058062807092501334e+00
1.936746604815820838e+00
2.083376079592272667e+00
2.083376079592272667e+00
2.033124546037171854e+00
2.033124546037171854e+00
1.918933561204870797e+00
2.025249305703909375e+00
2.025249305703909375e+00
2.247631092257453833e+00
2.247631092257453833e+00
2.210129947813348927e+00
2.039687246314890068e+00
2.039687246314890068e+00
2.070063173314615312e+00
2.385260292367321178e+00
2.385260292367321178e+00
2.343259010589922919e+00
2.343259010589922919e+00
2.235255714590899334e+00
1.913870906704916663e+00
1.913870906704916663e+00
1.900558000427259309e+00
1.900558000427259309e+00
1.966185003204443671e+00
2.008936307870723859e+00
2.008936307870723859e+00
2.163441022980437278e+00
2.163441022980437278e+00
2.045499923703726353e+00
1.905620654927213442e+00
1.905620654927213442e+00
1.882744956816309267e+00
2.018686605426191161e+00
2.018686605426191161e+00
2.033124546037171854e+00
2.033124546037171854e+00
2.134565141758476781e+00
1.934121524704733419e+00
1.934121524704733419e+00
1.907308206427198227e+00
1.907308206427198227e+00
2.065563035981322848e+00
2.143190404980620745e+00
2.143190404980620745e+00
2.129314981536301499e+00
2.129314981536301499e+00
2.067063081759087151e+00
2.379260109256263966e+00
2.379260109256263966e+00
2.232443128757591655e+00
2.086001159703360308e+00
2.086001159703360308e+00
1.918558549760429832e+00
1.918558549760429832e+00
1.822180608539079039e+00
1.984373058259834677e+00
1.984373058259834677e+00
2.187066743980223826e+00
2.187066743980223826e+00
2.207879879146702695e+00
2.185004181035798521e+00
2.185004181035798521e+00
2.059375347148045154e+00
2.059375347148045154e+00
1.958684774315622379e+00
1.924933744315927786e+00
1.924933744315927786e+00
2.007061250648518591e+00
2.087313699758903685e+00
2.087313699758903685e+00
2.144315439313944083e+00
2.144315439313944083e+00
1.929433881649220250e+00
2.006311227759636218e+00
2.006311227759636218e+00
2.186316721091342341e+00
2.186316721091342341e+00
2.073813287759025847e+00
2.040812280648213406e+00
2.040812280648213406e+00
2.081688528092287882e+00
1.889307657094027704e+00
1.889307657094027704e+00
2.227005462813196335e+00
2.227005462813196335e+00
2.319633289590136371e+00
2.230005554368724940e+00
2.230005554368724940e+00
1.911808343760490692e+00
1.911808343760490692e+00
1.974435254982146670e+00
1.814117862483596522e+00
1.814117862483596522e+00
1.886870082705160767e+00
2.251381206701864812e+00
2.251381206701864812e+00
2.285507248146000592e+00
2.285507248146000592e+00
2.177691457869197489e+00
2.182566606646931362e+00
2.182566606646931362e+00
1.972747703482162107e+00
1.972747703482162107e+00
1.863994384594256370e+00
2.058250312814721816e+00
2.058250312814721816e+00
2.018686605426191161e+00
2.018686605426191161e+00
2.096688985869930022e+00
2.025249305703909375e+00
2.025249305703909375e+00
2.089188756981108952e+00
2.318508255256813033e+00
2.318508255256813033e+00
2.131190038758506766e+00
2.131190038758506766e+00
1.948934476760155077e+00
2.020749168370616911e+00
2.020749168370616911e+00
1.856306649983214818e+00
1.856306649983214818e+00
2.025436811426129857e+00
2.252318735312967224e+00
2.252318735312967224e+00
2.251568712424085295e+00
2.251568712424085295e+00
1.933371501815851268e+00
1.916683492538224565e+00
1.916683492538224565e+00
2.032562028870509963e+00
2.103626697592089645e+00
2.103626697592089645e+00
2.220067751091036712e+00
2.220067751091036712e+00
2.007061250648518591e+00
2.134940153202917745e+00
2.134940153202917745e+00
2.080750999481185470e+00
2.080750999481185470e+00
2.289444868312631609e+00
2.191566881313516735e+00
2.191566881313516735e+00
1.860806787316507505e+00
1.860806787316507505e+00
1.835681020538956876e+00
1.689801568651387198e+00
1.689801568651387198e+00
2.151440656758324188e+00
2.151440656758324188e+00
2.081501022370067400e+00
2.107751823480941145e+00
2.107751823480941145e+00
2.061812921536912313e+00
2.025999328592791304e+00
2.025999328592791304e+00
2.213317545091097571e+00
2.213317545091097571e+00
2.466825281533250092e+00
2.325070955534531691e+00
2.325070955534531691e+00
2.071563219092379615e+00
2.071563219092379615e+00
2.104564226203192501e+00
1.954747154148991584e+00
1.954747154148991584e+00
2.026561845759453195e+00
2.026561845759453195e+00
1.872244636371959814e+00
1.808492690816980719e+00
1.808492690816980719e+00
1.914058412427137146e+00
2.142065370647297406e+00
2.142065370647297406e+00
1.977247840815454571e+00
1.977247840815454571e+00
2.015686513870662555e+00
2.221192785424360050e+00
2.221192785424360050e+00
2.050750083925901190e+00
2.050750083925901190e+00
2.144690450758385047e+00
2.189316812646870059e+00
2.189316812646870059e+00
2.004248664815210468e+00
1.852931546983245470e+00
1.852931546983245470e+00
2.018124088259529714e+00
2.018124088259529714e+00
2.148815576647236547e+00
1.797242347483748892e+00
1.797242347483748892e+00
2.062562944425794242e+00
2.062562944425794242e+00
2.314570635090182460e+00
2.133815118869594407e+00
2.133815118869594407e+00
2.166816125980407293e+00
2.166816125980407293e+00
2.128564958647419569e+00
2.176753929258095077e+00
2.176753929258095077e+00
2.067813104647969080e+00
2.067813104647969080e+00
1.845993835261085847e+00
2.009311319315164823e+00
2.009311319315164823e+00
1.936746604815820838e+00
1.960934842982268833e+00
1.960934842982268833e+00
2.023374248481704107e+00
2.023374248481704107e+00
2.108876857814264483e+00
1.897932920316171668e+00
1.897932920316171668e+00
1.875807245094149645e+00
2.209004913480026033e+00
2.209004913480026033e+00
2.246131046479689974e+00
2.246131046479689974e+00
2.386385326700643628e+00
2.331071138645588459e+00
2.331071138645588459e+00
1.925121250038148268e+00
1.925121250038148268e+00
2.116377086703085553e+00
2.216505142368846659e+00
2.216505142368846659e+00
1.995435895870845799e+00
1.735365459150975065e+00
1.735365459150975065e+00
1.752803491317484141e+00
1.752803491317484141e+00
2.044374889370403459e+00
2.176378917813653668e+00
2.176378917813653668e+00
2.103064180425428198e+00
2.103064180425428198e+00
1.951372051149021791e+00
2.134565141758476781e+00
2.134565141758476781e+00
2.347946653645436310e+00
2.347946653645436310e+00
2.346821619312112972e+00
2.136252693258461566e+00
2.136252693258461566e+00
2.058250312814721816e+00
2.094063905758842381e+00
2.094063905758842381e+00
1.661113193151646517e+00
1.661113193151646517e+00
1.873369670705282708e+00
2.171128757591479275e+00
2.171128757591479275e+00
2.167003631702627775e+00
2.167003631702627775e+00
2.045874935148167761e+00
1.868494521927549057e+00
1.868494521927549057e+00
1.995810907315286764e+00
1.995810907315286764e+00
2.195504501480147752e+00
2.175628894924771739e+00
2.175628894924771739e+00
2.021311685537278358e+00
2.021311685537278358e+00
2.218755211035493335e+00
2.236193243202001746e+00
2.236193243202001746e+00
1.790492141483809974e+00
1.951934568315683460e+00
1.951934568315683460e+00
2.298257637256996500e+00
2.298257637256996500e+00
2.126314889980773337e+00
2.089938779869991325e+00
2.089938779869991325e+00
1.939559190649128739e+00
1.939559190649128739e+00
2.258131412701803509e+00
2.148440565202795582e+00
2.148440565202795582e+00
1.969747611926633502e+00
1.876932279427472761e+00
1.876932279427472761e+00
1.866994476149784976e+00
1.866994476149784976e+00
1.923058687093722297e+00
1.754866054261909891e+00
1.754866054261909891e+00
2.148815576647236547e+00
2.148815576647236547e+00
2.294882534257026929e+00
2.466825281533250092e+00
2.466825281533250092e+00
2.143377910702841227e+00
2.143377910702841227e+00
2.168503677480392078e+00
2.005748710592974771e+00
2.005748710592974771e+00
1.936559099093600356e+00
1.936559099093600356e+00
2.028061891537217498e+00
2.005373699148533806e+00
2.005373699148533806e+00
2.078313425092318756e+00
2.124814844203009478e+00
2.124814844203009478e+00
2.107001800592058771e+00
2.107001800592058771e+00
2.125377361369670925e+00
1.882557451094088563e+00
1.882557451094088563e+00
1.910120792260505906e+00
1.910120792260505906e+00
2.111689443647572162e+00
2.157815851313821920e+00
2.300507705923642732e+00
2.300507705923642732e+00
2.225880428479872997e+00
1.939934202093569704e+00
1.939934202093569704e+00
1.829680837427900109e+00
1.829680837427900109e+00
1.858744224372081755e+00
2.153690725424969976e+00
2.153690725424969976e+00
2.219130222479934300e+00
2.219130222479934300e+00
2.000686056093020415e+00
2.054125186925870761e+00
2.054125186925870761e+00
1.987373149815363060e+00
1.987373149815363060e+00
1.896057863093966622e+00
2.215567613757744247e+00
2.215567613757744247e+00
2.172816309091464060e+00
2.172066286202582130e+00
2.172066286202582130e+00
1.980997955259865106e+00
1.980997955259865106e+00
1.913120883816034512e+00
1.924933744315927786e+00
1.924933744315927786e+00
1.943684316537980239e+00
1.943684316537980239e+00
2.126689901425214746e+00
2.099501571703238145e+00
2.099501571703238145e+00
2.087501205481124167e+00
2.110001892147587377e+00
2.110001892147587377e+00
2.145627979369487459e+00
2.145627979369487459e+00
2.143565416425061709e+00
2.061437910092470904e+00
2.061437910092470904e+00
1.989623218482009515e+00
1.989623218482009515e+00
2.046999969481490211e+00
2.024311777092806519e+00
2.024311777092806519e+00
2.050000061037018817e+00
2.034062074648274265e+00
2.034062074648274265e+00
2.185754203924680450e+00
2.185754203924680450e+00
2.344759056367687222e+00
2.047562486648152102e+00
2.047562486648152102e+00
2.084313608203375079e+00
2.119377178258613714e+00
2.119377178258613714e+00
2.105501754814294912e+00
1.940121707815790408e+00
1.940121707815790408e+00
1.954372142704550397e+00
1.954372142704550397e+00
2.106251777703176842e+00
2.097626514481032878e+00
2.097626514481032878e+00
1.956059694204534960e+00
1.920996124149296547e+00
1.920996124149296547e+00
2.192129398480178182e+00
2.192129398480178182e+00
2.032374523148289480e+00
1.915370952482680744e+00
1.915370952482680744e+00
1.988123172704245212e+00
1.988123172704245212e+00
2.092563859981078966e+00
2.274631916257209951e+00
2.274631916257209951e+00
2.236755760368663637e+00
2.236755760368663637e+00
2.191754387035737217e+00
2.133815118869594407e+00
2.133815118869594407e+00
1.962247383037812432e+00
2.011936399426252020e+00
2.011936399426252020e+00
1.860056764427625353e+00
1.860056764427625353e+00
1.894932828760643506e+00
1.831555894650105376e+00
1.831555894650105376e+00
2.142815393536179780e+00
2.142815393536179780e+00
2.098189031647694325e+00
2.051312601092562637e+00
2.051312601092562637e+00
1.948934476760155077e+00
1.948934476760155077e+00
2.015874019592883037e+00
2.164941068758201581e+00
2.164941068758201581e+00
2.052625141148106458e+00
2.031436994537187068e+00
2.031436994537187068e+00
1.969935117648853984e+00
1.969935117648853984e+00
2.091626331369976111e+00
2.026936857203894160e+00
2.026936857203894160e+00
2.195504501480147752e+00
2.195504501480147752e+00
2.241068391979735619e+00
2.252318735312967224e+00
2.252318735312967224e+00
2.211067476424451339e+00
2.211067476424451339e+00
2.192504409924619146e+00
2.237880794701986531e+00
2.237880794701986531e+00
1.702551957762383106e+00
1.503420880764183565e+00
1.503420880764183565e+00
1.668050904873805917e+00
2.089001251258888470e+00
2.089001251258888470e+00
2.226442945646534444e+00
2.226442945646534444e+00
2.216317636646626177e+00
2.253068758201849597e+00
2.253068758201849597e+00
2.337071321756645670e+00
2.102501663258766751e+00
2.107376812036500180e+00
2.107376812036500180e+00
2.018124088259529714e+00
2.018124088259529714e+00
1.896432874538407587e+00
2.133252601702932960e+00
2.133252601702932960e+00
2.132690084536271069e+00
2.132690084536271069e+00
2.104939237647633021e+00
2.104376720480972018e+00
2.104376720480972018e+00
2.085251136814477935e+00
2.005186193426313324e+00
2.005186193426313324e+00
1.873932187871944377e+00
1.873932187871944377e+00
2.011373882259590129e+00
1.893432782982879203e+00
1.893432782982879203e+00
1.969747611926633502e+00
1.969747611926633502e+00
2.216880153813287624e+00
2.304257820368053267e+00
2.304257820368053267e+00
2.204504776146733125e+00
2.204504776146733125e+00
2.002936124759666647e+00
1.853681569872127621e+00
1.853681569872127621e+00
1.802305001983703248e+00
1.914995941038239557e+00
1.914995941038239557e+00
2.107001800592058771e+00
2.107001800592058771e+00
2.060500381481368493e+00
2.118439649647511303e+00
2.118439649647511303e+00
2.086563676870021755e+00
2.086563676870021755e+00
2.088438734092227023e+00
2.218192693868831444e+00
2.218192693868831444e+00
2.129877498702963390e+00
2.129877498702963390e+00
1.979310403759880321e+00
1.914245918149357406e+00
1.914245918149357406e+00
2.024686788537247928e+00
2.024686788537247928e+00
2.070625690481276759e+00
2.073250770592364400e+00
2.073250770592364400e+00
2.034062074648274265e+00
2.018499099703970678e+00
2.018499099703970678e+00
2.016436536759544484e+00
2.016436536759544484e+00
2.066313058870204777e+00
2.078313425092318756e+00
2.078313425092318756e+00
2.038749717703787212e+00
2.038749717703787212e+00
2.118814661091952267e+00
2.016249031037324002e+00
2.016249031037324002e+00
2.114127018036439321e+00
2.114127018036439321e+00
2.019061616870632125e+00
2.057312784203619849e+00
2.057312784203619849e+00
2.244068483535264225e+00
2.094626422925504272e+00
2.094626422925504272e+00
2.053937681203650278e+00
2.053937681203650278e+00
2.075500839259010633e+00
2.050562578203680708e+00
2.050562578203680708e+00
2.079438459425641650e+00
2.079438459425641650e+00
2.030874477370525177e+00
1.978747886593218652e+00
1.978747886593218652e+00
1.861931821649830621e+00
1.861931821649830621e+00
2.040437269203771997e+00
2.029561937314981801e+00
2.029561937314981801e+00
2.021874202703940249e+00
2.144127933591723156e+00
2.144127933591723156e+00
2.226630451368755370e+00
2.226630451368755370e+00
2.107564317758720662e+00
2.026749351481673678e+00
2.026749351481673678e+00
2.059937864314706601e+00
2.059937864314706601e+00
2.063312967314676172e+00
2.059562852870265637e+00
2.059562852870265637e+00
1.989623218482009515e+00
1.989623218482009515e+00
2.083188573870052185e+00
2.120502212591937052e+00
2.120502212591937052e+00
2.091438825647755628e+00
2.091438825647755628e+00
1.944434339426862390e+00
1.957184728537858298e+00
1.957184728537858298e+00
2.031249488814966586e+00
2.093313882869960452e+00
2.093313882869960452e+00
2.047562486648152102e+00
2.047562486648152102e+00
1.970122623371074688e+00
2.012311410870692985e+00
2.012311410870692985e+00
1.981747978148747258e+00
1.981747978148747258e+00
1.996935941648609880e+00
2.007811273537400520e+00
2.007811273537400520e+00
2.101001617481002448e+00
2.101001617481002448e+00
2.059187841425824672e+00
2.087876216925565576e+00
2.087876216925565576e+00
2.197004547257912055e+00
2.197004547257912055e+00
2.197004547257912055e+00
2.112439466536454535e+00
2.112439466536454535e+00
2.101376628925443413e+00
2.134565141758476781e+00
2.134565141758476781e+00
2.161565965758232455e+00
2.161565965758232455e+00
2.086563676870021755e+00
1.939184179204687553e+00
1.939184179204687553e+00
1.952309579760124647e+00
1.946871913815729327e+00
1.946871913815729327e+00
2.049250038148136888e+00
2.049250038148136888e+00
2.064250495925779028e+00
2.103064180425428198e+00
2.103064180425428198e+00
2.015874019592883037e+00
2.015874019592883037e+00
2.102689168980987233e+00
2.097626514481032878e+00
2.097626514481032878e+00
2.127627430036317158e+00
2.127627430036317158e+00
2.103439191869869163e+00
2.076250862147892562e+00
2.076250862147892562e+00
1.962059877315591949e+00
1.962059877315591949e+00
1.850118961149937347e+00
1.891182714316232749e+00
1.891182714316232749e+00
1.995060884426404613e+00
2.087688711203345093e+00
2.087688711203345093e+00
2.095751457258827610e+00
2.095751457258827610e+00
2.076813379314554453e+00
2.088063722647786058e+00
2.088063722647786058e+00
2.125002349925229961e+00
2.125002349925229961e+00
2.079250953703421168e+00
1.957184728537858298e+00
1.957184728537858298e+00
1.998810998870815148e+00
2.117127109591967482e+00
2.117127109591967482e+00
2.162691000091555793e+00
2.162691000091555793e+00
2.124627338480788552e+00
2.084313608203375079e+00
2.084313608203375079e+00
2.010248847926267679e+00
2.010248847926267679e+00
1.917058503982665529e+00
2.145627979369487459e+00
2.145627979369487459e+00
2.140565324869533104e+00
1.958122257148960932e+00
1.958122257148960932e+00
1.937309121982482507e+00
1.937309121982482507e+00
2.048875026703695923e+00
2.077938413647877791e+00
2.077938413647877791e+00
2.061250404370250422e+00
2.061250404370250422e+00
2.089376262703329878e+00
2.140002807702871657e+00
2.140002807702871657e+00
2.082626056703390294e+00
2.082626056703390294e+00
2.114127018036439321e+00
2.085251136814477935e+00
2.085251136814477935e+00
2.037062166203802427e+00
2.021874202703940249e+00
2.021874202703940249e+00
2.016061525315103520e+00
2.016061525315103520e+00
2.058812829981383707e+00
1.951934568315683460e+00
1.951934568315683460e+00
2.010998870815149164e+00
2.010998870815149164e+00
2.010998870815149164e+00
2.071375713370158689e+00
2.071375713370158689e+00
2.189129306924649576e+00
2.189129306924649576e+00
2.079813470870083059e+00
1.971247657704397804e+00
1.971247657704397804e+00
2.045499923703726353e+00
2.045499923703726353e+00
2.135502670369579192e+00
2.065000518814661401e+00
2.065000518814661401e+00
2.078500930814539238e+00
2.091251319925535146e+00
2.091251319925535146e+00
2.080375988036744506e+00
2.080375988036744506e+00
2.036499649037140980e+00
2.090876308481094181e+00
2.090876308481094181e+00
2.079250953703421168e+00
2.079250953703421168e+00
2.078688436536759720e+00
2.017749076815088305e+00
2.017749076815088305e+00
2.031061983092746104e+00
2.031061983092746104e+00
2.040999786370433888e+00
2.018874111148411643e+00
2.018874111148411643e+00
2.075500839259010633e+00
1.997498458815271549e+00
1.997498458815271549e+00
1.953997131260109432e+00
1.953997131260109432e+00
2.057875301370280852e+00
2.107564317758720662e+00
2.107564317758720662e+00
2.104001709036531054e+00
2.104001709036531054e+00
2.060875392925809457e+00
2.049250038148136888e+00
2.049250038148136888e+00
2.035562120426038124e+00
2.052437635425885976e+00
2.052437635425885976e+00
2.066125553147984295e+00
2.066125553147984295e+00
2.029561937314981801e+00
1.993185827204199345e+00
2.041937314981536300e+00
2.041937314981536300e+00
2.066313058870204777e+00
2.066313058870204777e+00
2.079063447981200685e+00
2.083751091036713632e+00
2.083751091036713632e+00
2.044562395092623941e+00
2.044562395092623941e+00
2.083938596758934114e+00
2.073063264870143918e+00
2.073063264870143918e+00
2.044374889370403459e+00
2.114502029480880285e+00
2.114502029480880285e+00
2.086376171147801273e+00
2.086376171147801273e+00
2.097439008758812395e+00
2.043624866481521085e+00
2.043624866481521085e+00
2.031999511703848516e+00
2.031999511703848516e+00
2.026186834315011787e+00
2.057875301370280852e+00
2.057875301370280852e+00
2.028436902981658463e+00
1.996935941648609880e+00
1.996935941648609880e+00
2.026749351481673678e+00
2.026749351481673678e+00
2.073438276314584883e+00
2.039874752037110550e+00
2.039874752037110550e+00
2.096313974425489057e+00
2.096313974425489057e+00
2.081313516647846917e+00
2.061812921536912313e+00
2.061812921536912313e+00
2.080188482314524023e+00
2.067250587481307633e+00
2.067250587481307633e+00
2.035374614703817642e+00
2.035374614703817642e+00
2.011373882259590129e+00
2.035374614703817642e+00
2.035374614703817642e+00
2.031061983092746104e+00
2.031061983092746104e+00
2.034812097537156195e+00
2.043999877925962494e+00
2.043999877925962494e+00
2.030874477370525177e+00
2.030874477370525177e+00
2.006498733481856700e+00
2.053187658314767905e+00
2.051687612537003602e+00
2.051687612537003602e+00
2.040624774925992480e+00
2.056937772759178884e+00
2.056937772759178884e+00
2.094438917203283790e+00
2.094438917203283790e+00
2.080563493758964988e+00
2.051875118259224084e+00
2.051875118259224084e+00
2.073063264870143918e+00
2.073063264870143918e+00
2.082438550981169811e+00
2.072875759147922992e+00
2.072875759147922992e+00
2.035374614703817642e+00
2.074750816370128703e+00
2.074750816370128703e+00
2.099876583147679110e+00
2.099876583147679110e+00
2.084313608203375079e+00
1.981560472426526776e+00
1.981560472426526776e+00
1.995060884426404613e+00
1.995060884426404613e+00
2.017186559648426858e+00
2.025624317148350340e+00
2.025624317148350340e+00
2.037437177648243392e+00
2.037437177648243392e+00
2.066500564592425260e+00
2.029561937314981801e+00
2.029561937314981801e+00
2.022624225592822178e+00
2.034812097537156195e+00
2.034812097537156195e+00
2.034624591814935712e+00
2.034624591814935712e+00
2.071938230536820580e+00
2.066125553147984295e+00
2.066125553147984295e+00
2.068188116092410045e+00
2.068188116092410045e+00
2.086376171147801273e+00
2.089563768425550361e+00
2.089563768425550361e+00
2.072313241981261545e+00
2.072313241981261545e+00
1.872432142094180296e+00
2.110564409314249268e+00
2.110564409314249268e+00
2.070625690481276759e+00
2.070625690481276759e+00
2.073063264870143918e+00
2.087313699758903685e+00
2.087313699758903685e+00
2.058437818536942299e+00
2.020561662648396428e+00
2.020561662648396428e+00
2.015686513870662555e+00
2.015686513870662555e+00
2.001061067537461380e+00
2.081688528092287882e+00
2.081688528092287882e+00
2.112626972258675018e+00
2.112626972258675018e+00
2.082251045258949329e+00
2.092751365703299449e+00
2.092751365703299449e+00
2.063500473036897098e+00
2.063500473036897098e+00
2.055625232703635064e+00
2.039874752037110550e+00
2.039874752037110550e+00
2.028061891537217498e+00
2.041562303537095335e+00
2.041562303537095335e+00
2.020561662648396428e+00
2.020561662648396428e+00
2.043437360759300603e+00
2.048125003814813549e+00
2.048125003814813549e+00
2.056375255592516993e+00
2.056375255592516993e+00
2.053000152592547423e+00
2.040437269203771997e+00
2.040437269203771997e+00
2.058250312814721816e+00
2.058250312814721816e+00
2.055625232703635064e+00
2.015499008148442073e+00
2.015499008148442073e+00
2.037062166203802427e+00
2.098751548814355772e+00
2.098751548814355772e+00
2.107939329203161627e+00
2.107939329203161627e+00
2.096876491592150504e+00
2.045874935148167761e+00
2.045874935148167761e+00
2.034249580370494748e+00
2.034249580370494748e+00
2.070438184759056277e+00
2.032749534592730889e+00
2.032749534592730889e+00
2.044562395092623941e+00
2.044562395092623941e+00
2.038749717703787212e+00
2.051687612537003602e+00
2.051687612537003602e+00
1.996748435926389398e+00
2.065375530259102366e+00
2.065375530259102366e+00
2.059375347148045154e+00
2.059375347148045154e+00
2.034812097537156195e+00
2.077000885036774935e+00
2.077000885036774935e+00
2.065188024536881883e+00
2.077563402203436382e+00
2.077563402203436382e+00
2.053375164036988387e+00
2.053375164036988387e+00
2.014561479537339217e+00
2.043437360759300603e+00
2.043437360759300603e+00
2.042312326425977265e+00
2.042312326425977265e+00
2.070250679036835795e+00
2.061250404370250422e+00
2.061250404370250422e+00
2.084688619647816488e+00
2.084688619647816488e+00
2.052437635425885976e+00
2.042687337870418673e+00
2.042687337870418673e+00
2.049250038148136888e+00
2.049250038148136888e+00
2.067438093203528116e+00
2.050375072481459782e+00
2.050375072481459782e+00
2.053000152592547423e+00
2.079438459425641650e+00
2.079438459425641650e+00
2.073250770592364400e+00
2.073250770592364400e+00
2.052625141148106458e+00
2.070250679036835795e+00
2.070250679036835795e+00
2.066125553147984295e+00
2.066125553147984295e+00
2.046999969481490211e+00
2.027311868648335125e+00
2.027311868648335125e+00
2.066125553147984295e+00
2.066125553147984295e+00
2.052812646870326940e+00
2.062562944425794242e+00
2.062562944425794242e+00
2.056375255592516993e+00
2.056375255592516993e+00
2.065000518814661401e+00
2.079063447981200685e+00
2.079063447981200685e+00
2.050750083925901190e+00
2.032749534592730889e+00
2.032749534592730889e+00
2.050375072481459782e+00
2.050375072481459782e+00
2.024686788537247928e+00
2.021686696981719766e+00
2.021686696981719766e+00
2.054125186925870761e+00
2.054125186925870761e+00
2.061250404370250422e+00
2.080938505203405953e+00
2.080938505203405953e+00
2.039124729148228621e+00
2.039124729148228621e+00
2.052812646870326940e+00
2.069500656147953865e+00
2.069500656147953865e+00
2.066500564592425260e+00
2.055250221259193655e+00
2.055250221259193655e+00
2.068375621814630971e+00
2.068375621814630971e+00
2.065000518814661401e+00
2.098939054536576698e+00
2.098939054536576698e+00
2.096313974425489057e+00
2.096313974425489057e+00
2.090876308481094181e+00
2.057875301370280852e+00
2.057875301370280852e+00
2.046624958037049247e+00
2.046624958037049247e+00
2.040062257759331033e+00
2.045687429425947279e+00
2.045687429425947279e+00
2.046249946592608282e+00
2.051500106814783120e+00
2.051500106814783120e+00
2.066688070314646186e+00
2.066688070314646186e+00
2.082063539536728847e+00
2.082438550981169811e+00
2.082438550981169811e+00
2.079625965147862576e+00
2.079625965147862576e+00
2.074375804925687294e+00
2.056937772759178884e+00
2.056937772759178884e+00
2.030499465926084213e+00
2.030499465926084213e+00
2.028811914426099428e+00
2.053187658314767905e+00
2.053187658314767905e+00
2.060312875759148010e+00
2.065938047425763813e+00
2.065938047425763813e+00
2.065938047425763813e+00
2.065938047425763813e+00
2.032374523148289480e+00
2.042874843592639156e+00
2.042874843592639156e+00
2.044187383648182976e+00
2.044187383648182976e+00
2.082063539536728847e+00
2.086563676870021755e+00
2.086563676870021755e+00
2.087313699758903685e+00
2.087313699758903685e+00
2.044937406537064906e+00
2.033874568926053783e+00
2.033874568926053783e+00
2.037249671926022909e+00
2.037437177648243392e+00
2.037437177648243392e+00
2.051125095370342155e+00
2.051125095370342155e+00
2.062750450148014725e+00
2.067063081759087151e+00
2.067063081759087151e+00
2.077750907925656865e+00
2.077750907925656865e+00
2.089001251258888470e+00
2.098001525925473842e+00
2.098001525925473842e+00
2.093126377147739969e+00
2.087501205481124167e+00
2.087501205481124167e+00
2.057312784203619849e+00
2.057312784203619849e+00
2.059937864314706601e+00
2.059937864314706601e+00
2.059937864314706601e+00
2.062750450148014725e+00
2.062750450148014725e+00
2.048875026703695923e+00
2.040624774925992480e+00
2.040624774925992480e+00
2.054687704092532208e+00
2.065938047425763813e+00
2.065938047425763813e+00
2.063500473036897098e+00
2.063500473036897098e+00
2.079438459425641650e+00
2.058250312814721816e+00
2.058250312814721816e+00
2.038937223426007694e+00
2.038937223426007694e+00
2.072688253425702509e+00
2.080750999481185470e+00
2.080750999481185470e+00
2.051500106814783120e+00
2.051500106814783120e+00
2.042499832148198191e+00
2.030311960203863730e+00
2.030311960203863730e+00
2.046062440870388244e+00
2.072875759147922992e+00
2.072875759147922992e+00
2.036124637592700015e+00
2.036124637592700015e+00
2.056187749870296511e+00
2.065000518814661401e+00
2.065000518814661401e+00
2.050937589648121673e+00
2.050937589648121673e+00
2.027499374370555607e+00
2.039874752037110550e+00
2.039874752037110550e+00
2.073625782036805365e+00
2.076813379314554453e+00
2.076813379314554453e+00
2.045687429425947279e+00
2.045687429425947279e+00
2.034812097537156195e+00
2.054875209814752690e+00
2.054875209814752690e+00
2.073438276314584883e+00
2.073438276314584883e+00
2.072875759147922992e+00
2.069875667592394830e+00
2.069875667592394830e+00
2.038374706259346247e+00
2.038374706259346247e+00
2.002748619037446165e+00
2.032749534592730889e+00
2.032749534592730889e+00
2.085438642536698417e+00
2.085438642536698417e+00
2.109814386425366894e+00
2.061437910092470904e+00
2.061437910092470904e+00
2.082813562425611220e+00
2.091813837092196593e+00
2.091813837092196593e+00
2.041937314981536300e+00
2.041937314981536300e+00
2.067063081759087151e+00
2.077188390758995418e+00
2.077188390758995418e+00
2.059562852870265637e+00
2.059562852870265637e+00
2.032374523148289480e+00
1.990185735648670962e+00
1.990185735648670962e+00
2.049062532425916405e+00
2.049062532425916405e+00
2.074375804925687294e+00
2.072125736259041062e+00
2.072125736259041062e+00
2.086001159703360308e+00
2.086001159703360308e+00
2.078125919370098273e+00
2.090126285592211808e+00
2.090126285592211808e+00
2.069688161870173904e+00
2.071000701925717724e+00
2.071000701925717724e+00
2.077750907925656865e+00
2.077750907925656865e+00
2.036499649037140980e+00
2.019999145481734981e+00
2.019999145481734981e+00
2.014748985259559699e+00
2.047937498092593067e+00
2.047937498092593067e+00
2.086376171147801273e+00
2.086376171147801273e+00
2.082251045258949329e+00
2.053375164036988387e+00
2.053375164036988387e+00
2.071375713370158689e+00
2.071375713370158689e+00
2.064062990203558545e+00
2.047374980925931620e+00
2.047374980925931620e+00
2.091063814203314664e+00
2.091063814203314664e+00
2.084876125370036970e+00
2.014561479537339217e+00
2.014561479537339217e+00
2.025249305703909375e+00
2.025249305703909375e+00
2.074750816370128703e+00
2.074000793481246330e+00
2.074000793481246330e+00
2.052062623981445011e+00
2.064625507370219992e+00
2.064625507370219992e+00
2.054875209814752690e+00
2.054875209814752690e+00
2.070813196203497242e+00
2.059375347148045154e+00
2.059375347148045154e+00
2.037999694814905283e+00
2.037999694814905283e+00
2.036499649037140980e+00
2.037624683370464318e+00
2.037624683370464318e+00
2.017561571092867823e+00
2.045499923703726353e+00
2.045499923703726353e+00
2.041749809259315818e+00
2.041749809259315818e+00
2.108126834925382109e+00
2.145815485091708386e+00
2.145815485091708386e+00
2.099876583147679110e+00
2.099876583147679110e+00
2.070063173314615312e+00
2.057500289925840331e+00
2.057500289925840331e+00
2.026561845759453195e+00
2.026561845759453195e+00
2.023936765648365554e+00
2.049812555314798335e+00
2.049812555314798335e+00
2.052812646870326940e+00
2.052812646870326940e+00
2.077938413647877791e+00
2.100626606036561483e+00
2.100626606036561483e+00
2.062562944425794242e+00
2.050562578203680708e+00
2.050562578203680708e+00
2.053375164036988387e+00
2.053375164036988387e+00
2.055062715536973172e+00
2.041937314981536300e+00
2.041937314981536300e+00
2.030874477370525177e+00
2.030874477370525177e+00
2.023186742759483625e+00
2.041937314981536300e+00
2.041937314981536300e+00
2.027874385814997016e+00
2.044187383648182976e+00
2.044187383648182976e+00
2.142815393536179780e+00
2.142815393536179780e+00
2.163628528702658205e+00
2.089563768425550361e+00
2.089563768425550361e+00
2.045124912259285388e+00
2.045124912259285388e+00
2.030499465926084213e+00
2.030124454481643248e+00
2.030124454481643248e+00
2.050750083925901190e+00
2.050750083925901190e+00
2.040062257759331033e+00
2.029186925870540392e+00
2.029186925870540392e+00
2.049812555314798335e+00
2.056937772759178884e+00
2.056937772759178884e+00
2.087688711203345093e+00
2.087688711203345093e+00
2.108876857814264483e+00
2.081688528092287882e+00
2.081688528092287882e+00
2.034812097537156195e+00
2.034812097537156195e+00
2.015123996704001108e+00
2.006311227759636218e+00
2.006311227759636218e+00
1.987185644093142578e+00
1.987185644093142578e+00
2.004061159092989985e+00
2.102501663258766751e+00
2.102501663258766751e+00
2.103814203314310571e+00
2.103814203314310571e+00
2.071563219092379615e+00
2.077938413647877791e+00
2.077938413647877791e+00
2.063875484481338063e+00
2.033124546037171854e+00
2.033124546037171854e+00
2.072875759147922992e+00
2.072875759147922992e+00
2.066875576036866669e+00
2.044749900814844423e+00
2.044749900814844423e+00
2.062000427259132795e+00
2.062000427259132795e+00
2.051312601092562637e+00
2.040062257759331033e+00
2.040062257759331033e+00
2.071750724814600098e+00
2.071750724814600098e+00
2.097814020203253360e+00
2.084501113925596005e+00
2.084501113925596005e+00
2.048500015259254514e+00
2.068188116092410045e+00
2.068188116092410045e+00
2.090313791314432290e+00
2.090313791314432290e+00
2.049437543870357370e+00
2.015311502426221590e+00
2.015311502426221590e+00
1.996748435926389398e+00
1.996748435926389398e+00
2.020561662648396428e+00
2.110564409314249268e+00
2.110564409314249268e+00
2.126127384258552855e+00
2.126127384258552855e+00
2.093126377147739969e+00
2.060875392925809457e+00
2.060875392925809457e+00
2.050000061037018817e+00
2.067063081759087151e+00
2.067063081759087151e+00
2.066125553147984295e+00
2.066125553147984295e+00
2.037249671926022909e+00
2.034999603259376677e+00
2.034999603259376677e+00
2.062187932981353278e+00
2.062187932981353278e+00
2.055062715536973172e+00
2.034624591814935712e+00
2.034624591814935712e+00
2.093688894314401416e+00
2.093688894314401416e+00
2.067063081759087151e+00
2.064062990203558545e+00
2.064062990203558545e+00
2.068000610370189563e+00
2.064813013092440475e+00
2.064813013092440475e+00
2.070250679036835795e+00
2.070250679036835795e+00
2.060875392925809457e+00
2.025624317148350340e+00
2.025624317148350340e+00
1.958309762871181414e+00
2.028061891537217498e+00
2.028061891537217498e+00
2.012311410870692985e+00
2.012311410870692985e+00
2.044562395092623941e+00
2.116752098147526517e+00
2.116752098147526517e+00
2.075688344981231115e+00
2.075688344981231115e+00
2.089188756981108952e+00
2.111501937925351680e+00
2.111501937925351680e+00
2.110376903592028786e+00
2.110376903592028786e+00
2.130627521591845319e+00
2.093501388592180934e+00
2.093501388592180934e+00
2.034999603259376677e+00
2.034999603259376677e+00
2.050562578203680708e+00
2.042499832148198191e+00
2.042499832148198191e+00
2.032562028870509963e+00
2.023749259926145072e+00
2.023749259926145072e+00
2.028999420148319910e+00
2.028999420148319910e+00
1.997873470259712514e+00
2.007061250648518591e+00
2.007061250648518591e+00
2.023186742759483625e+00
2.023186742759483625e+00
2.013248939481795396e+00
2.033874568926053783e+00
2.033874568926053783e+00
2.034624591814935712e+00
2.098751548814355772e+00
2.098751548814355772e+00
2.107376812036500180e+00
2.107376812036500180e+00
2.097063997314370987e+00
2.095751457258827610e+00
2.095751457258827610e+00
2.051312601092562637e+00
2.051312601092562637e+00
2.040812280648213406e+00
2.071375713370158689e+00
2.071375713370158689e+00
2.072500747703482027e+00
2.072500747703482027e+00
2.037999694814905283e+00
2.036124637592700015e+00
2.036124637592700015e+00
2.023186742759483625e+00
2.023936765648365554e+00
2.023936765648365554e+00
2.045499923703726353e+00
2.045499923703726353e+00
2.085813653981139382e+00
2.097439008758812395e+00
2.097439008758812395e+00
2.108501846369823074e+00
2.108501846369823074e+00
2.081688528092287882e+00
2.050375072481459782e+00
2.050375072481459782e+00
2.070063173314615312e+00
2.070063173314615312e+00
2.065563035981322848e+00
2.070625690481276759e+00
2.070625690481276759e+00
2.048687520981474997e+00
2.067250587481307633e+00
2.067250587481307633e+00
2.049250038148136888e+00
2.049250038148136888e+00
2.044937406537064906e+00
2.077375896481215900e+00
2.077375896481215900e+00
2.080375988036744506e+00
2.080375988036744506e+00
2.029374431592760875e+00
2.062562944425794242e+00
2.062562944425794242e+00
2.142440382091738371e+00
2.142440382091738371e+00
2.082626056703390294e+00
2.064625507370219992e+00
2.064625507370219992e+00
2.039499740592669585e+00
2.039499740592669585e+00
1.981935483870967740e+00
2.045687429425947279e+00
2.045687429425947279e+00
2.043249855037080120e+00
2.046999969481490211e+00
2.046999969481490211e+00
2.058437818536942299e+00
2.058437818536942299e+00
2.114877040925321250e+00
2.085626148258918899e+00
2.085626148258918899e+00
2.016999053926206376e+00
2.016999053926206376e+00
2.040999786370433888e+00
2.050937589648121673e+00
2.050937589648121673e+00
2.035937131870479533e+00
2.035937131870479533e+00
2.001061067537461380e+00
2.002373607593005200e+00
2.002373607593005200e+00
2.009873836481826270e+00
2.031999511703848516e+00
2.031999511703848516e+00
2.086188665425580790e+00
2.086188665425580790e+00
2.094251411481063307e+00
2.077938413647877791e+00
2.077938413647877791e+00
2.057687795648060813e+00
2.057687795648060813e+00
2.058062807092501334e+00
2.052625141148106458e+00
2.052625141148106458e+00
2.057687795648060813e+00
2.069500656147953865e+00
2.069500656147953865e+00
2.087126194036683202e+00
2.087126194036683202e+00
2.055625232703635064e+00
2.052062623981445011e+00
2.052062623981445011e+00
2.046437452314828764e+00
2.046437452314828764e+00
1.997873470259712514e+00
2.000873561815240897e+00
2.000873561815240897e+00
2.042687337870418673e+00
2.042687337870418673e+00
2.070063173314615312e+00
2.124252327036347587e+00
2.124252327036347587e+00
2.059187841425824672e+00
1.998998504593035630e+00
1.998998504593035630e+00
2.071938230536820580e+00
2.071938230536820580e+00
2.090126285592211808e+00
2.059750358592486119e+00
2.059750358592486119e+00
2.098189031647694325e+00
2.098189031647694325e+00
2.079625965147862576e+00
2.072500747703482027e+00
2.072500747703482027e+00
2.077563402203436382e+00
2.077563402203436382e+00
2.106064271980956359e+00
2.066688070314646186e+00
2.066688070314646186e+00
2.025624317148350340e+00
2.021124179815057875e+00
2.021124179815057875e+00
2.040437269203771997e+00
2.040437269203771997e+00
2.013436445204016323e+00
2.001623584704122827e+00
2.001623584704122827e+00
2.067625598925748598e+00
2.067625598925748598e+00
2.083938596758934114e+00
2.092938871425519931e+00
2.092938871425519931e+00
2.134565141758476781e+00
2.134565141758476781e+00
2.100439100314340557e+00
2.083751091036713632e+00
2.083751091036713632e+00
2.031249488814966586e+00
2.031249488814966586e+00
2.004061159092989985e+00
2.022999237037263143e+00
2.022999237037263143e+00
2.020749168370616911e+00
2.047562486648152102e+00
2.047562486648152102e+00
2.061625415814691387e+00
2.061625415814691387e+00
2.047374980925931620e+00
2.034812097537156195e+00
2.034812097537156195e+00
2.086376171147801273e+00
2.086376171147801273e+00
2.125189855647450443e+00
2.017374065370647340e+00
2.017374065370647340e+00
2.075313333536790150e+00
2.151253151036103706e+00
2.151253151036103706e+00
2.148440565202795582e+00
2.148440565202795582e+00
2.115814569536424106e+00
2.064438001647999510e+00
2.064438001647999510e+00
2.026561845759453195e+00
2.026561845759453195e+00
2.031999511703848516e+00
2.050187566759239299e+00
2.050187566759239299e+00
2.085813653981139382e+00
2.085813653981139382e+00
2.098189031647694325e+00
2.034624591814935712e+00
2.034624591814935712e+00
2.023186742759483625e+00
2.035374614703817642e+00
2.035374614703817642e+00
2.087126194036683202e+00
2.087126194036683202e+00
2.071188207647938206e+00
2.038374706259346247e+00
2.038374706259346247e+00
2.054312692648091243e+00
2.054312692648091243e+00
2.029374431592760875e+00
1.999186010315256334e+00
1.999186010315256334e+00
1.985685598315378275e+00
2.004811181981871915e+00
2.004811181981871915e+00
2.015499008148442073e+00
2.016999053926206376e+00
2.016999053926206376e+00
2.138502761925107798e+00
2.166441114535965884e+00
2.166441114535965884e+00
2.153878231147190458e+00
2.153878231147190458e+00
2.109814386425366894e+00
2.035937131870479533e+00
2.035937131870479533e+00
2.061812921536912313e+00
2.120127201147496088e+00
2.120127201147496088e+00
2.106439283425397324e+00
2.106439283425397324e+00
2.072313241981261545e+00
2.068750633259071936e+00
2.068750633259071936e+00
2.065375530259102366e+00
2.065375530259102366e+00
2.072688253425702509e+00
2.037437177648243392e+00
2.037437177648243392e+00
1.997310953093050845e+00
1.997310953093050845e+00
2.008936307870723859e+00
2.018124088259529714e+00
2.018124088259529714e+00
2.013623950926236805e+00
1.968435071871089903e+00
1.968435071871089903e+00
2.028436902981658463e+00
2.028436902981658463e+00
2.072875759147922992e+00
2.139627796258431136e+00
2.139627796258431136e+00
2.174503860591448845e+00
2.174503860591448845e+00
2.130065004425183872e+00
2.100814111758781966e+00
2.100814111758781966e+00
1.977060335093234089e+00
1.979497909482100804e+00
1.979497909482100804e+00
2.047562486648152102e+00
2.047562486648152102e+00
2.018499099703970678e+00
1.979497909482100804e+00
1.979497909482100804e+00
2.031624500259407551e+00
2.031624500259407551e+00
2.134565141758476781e+00
2.122377269814142320e+00
2.122377269814142320e+00
2.044749900814844423e+00
2.096126468703268575e+00
2.096126468703268575e+00
2.158003357036042402e+00
2.191941892757957699e+00
2.191941892757957699e+00
2.153128208258308529e+00
2.153128208258308529e+00
2.039687246314890068e+00
1.939184179204687553e+00
1.939184179204687553e+00
1.986810632648701391e+00
2.049812555314798335e+00
2.049812555314798335e+00
2.127814935758537640e+00
2.127814935758537640e+00
2.113001983703115982e+00
2.143565416425061709e+00
2.143565416425061709e+00
2.088813745536667987e+00
2.088813745536667987e+00
2.157253334147160473e+00
2.029186925870540392e+00
2.029186925870540392e+00
1.979310403759880321e+00
1.976685323648793124e+00
1.976685323648793124e+00
1.972560197759941625e+00
1.972560197759941625e+00
2.090688802758873255e+00
2.143377910702841227e+00
2.143377910702841227e+00
2.117502121036408447e+00
2.056375255592516993e+00
2.056375255592516993e+00
2.019249122592852608e+00
2.019249122592852608e+00
2.016249031037324002e+00
2.006123722037415735e+00
2.006123722037415735e+00
2.049812555314798335e+00
2.049812555314798335e+00
2.090876308481094181e+00
2.002186101870784718e+00
2.002186101870784718e+00
2.096501480147709540e+00
2.096501480147709540e+00
2.131565050202948175e+00
2.124627338480788552e+00
2.124627338480788552e+00
2.084876125370036970e+00
2.034249580370494748e+00
2.034249580370494748e+00
2.017561571092867823e+00
2.017561571092867823e+00
2.081688528092287882e+00
2.085438642536698417e+00
2.085438642536698417e+00
2.061625415814691387e+00
2.061625415814691387e+00
2.144502945036164565e+00
2.047562486648152102e+00
2.047562486648152102e+00
2.042124820703756782e+00
2.042124820703756782e+00
2.072125736259041062e+00
2.065938047425763813e+00
2.065938047425763813e+00
2.075500839259010633e+00
2.026749351481673678e+00
2.026749351481673678e+00
2.032187017426068998e+00
2.032187017426068998e+00
2.080938505203405953e+00
2.156690816980498582e+00
2.156690816980498582e+00
2.085438642536698417e+00
2.007248756370739073e+00
2.007248756370739073e+00
1.916870998260445047e+00
1.916870998260445047e+00
2.034062074648274265e+00
2.116752098147526517e+00
2.116752098147526517e+00
2.175253883480330774e+00
2.175253883480330774e+00
2.114314523758659803e+00
2.028249397259437981e+00
2.028249397259437981e+00
1.992810815759758380e+00
1.992810815759758380e+00
2.106439283425397324e+00
2.119564683980834197e+00
2.119564683980834197e+00
2.121627246925260390e+00
2.121627246925260390e+00
2.008561296426282894e+00
2.020936674092837393e+00
2.020936674092837393e+00
2.092001342814417075e+00
2.092001342814417075e+00
2.037249671926022909e+00
2.057312784203619849e+00
2.057312784203619849e+00
2.052625141148106458e+00
2.132690084536271069e+00
2.132690084536271069e+00
2.150878139591662741e+00
2.150878139591662741e+00
2.061062898648029940e+00
1.986998138370922096e+00
1.986998138370922096e+00
1.971810174871059473e+00
2.057312784203619849e+00
2.057312784203619849e+00
2.085251136814477935e+00
2.085251136814477935e+00
2.042124820703756782e+00
2.017561571092867823e+00
2.017561571092867823e+00
2.123689809869686140e+00
2.123689809869686140e+00
2.091626331369976111e+00
2.076438367870113488e+00
2.076438367870113488e+00
2.104001709036531054e+00
2.104001709036531054e+00
2.086001159703360308e+00
2.079438459425641650e+00
2.079438459425641650e+00
2.089751274147770843e+00
2.167191137424848257e+00
2.167191137424848257e+00
2.090126285592211808e+00
2.090126285592211808e+00
2.026749351481673678e+00
1.945371868037965024e+00
1.945371868037965024e+00
1.921558641315958216e+00
1.921558641315958216e+00
1.980997955259865106e+00
2.095563951536606684e+00
2.095563951536606684e+00
2.121627246925260390e+00
2.121627246925260390e+00
2.072500747703482027e+00
2.151815668202764709e+00
2.151815668202764709e+00
2.197192052980132537e+00
2.197192052980132537e+00
2.055250221259193655e+00
1.962997405926694583e+00
1.962997405926694583e+00
2.082251045258949329e+00
2.112439466536454535e+00
2.112439466536454535e+00
2.121064729758598499e+00
2.121064729758598499e+00
2.047749992370372585e+00
1.946309396649067658e+00
1.946309396649067658e+00
1.984935575426496124e+00
1.984935575426496124e+00
2.099501571703238145e+00
2.093688894314401416e+00
2.093688894314401416e+00
2.128189947202978605e+00
2.128189947202978605e+00
2.125189855647450443e+00
2.120127201147496088e+00
2.120127201147496088e+00
1.996560930204168693e+00
1.996560930204168693e+00
1.961872371593371245e+00
2.079813470870083059e+00
2.079813470870083059e+00
2.173941343424787398e+00
2.138502761925107798e+00
2.138502761925107798e+00
1.988498184148686176e+00
1.988498184148686176e+00
1.928308847315897134e+00
2.039687246314890068e+00
2.039687246314890068e+00
2.043249855037080120e+00
2.043249855037080120e+00
1.959809808648945717e+00
2.138502761925107798e+00
2.138502761925107798e+00
2.087876216925565576e+00
2.087876216925565576e+00
2.098939054536576698e+00
2.077188390758995418e+00
2.077188390758995418e+00
2.160440931424909561e+00
2.007436262092959556e+00
2.007436262092959556e+00
1.985685598315378275e+00
1.985685598315378275e+00
1.930558915982543589e+00
2.027874385814997016e+00
2.027874385814997016e+00
2.246881069368571904e+00
2.246881069368571904e+00
2.143565416425061709e+00
2.066313058870204777e+00
2.066313058870204777e+00
2.162315988647114828e+00
2.164753563035981099e+00
2.164753563035981099e+00
2.097251503036591469e+00
2.097251503036591469e+00
2.021124179815057875e+00
2.019249122592852608e+00
2.019249122592852608e+00
1.985123081148716606e+00
1.985123081148716606e+00
2.133065095980712478e+00
1.991685781426435042e+00
1.991685781426435042e+00
2.005748710592974771e+00
2.077188390758995418e+00
2.077188390758995418e+00
2.094438917203283790e+00
2.094438917203283790e+00
2.043812372203741567e+00
2.035749626148258606e+00
2.035749626148258606e+00
1.992810815759758380e+00
1.992810815759758380e+00
2.199254615924558287e+00
2.062937955870235207e+00
2.062937955870235207e+00
1.976310312204351938e+00
1.976310312204351938e+00
1.941434247871334007e+00
2.063500473036897098e+00
2.063500473036897098e+00
2.045312417981505870e+00
2.064625507370219992e+00
2.064625507370219992e+00
2.191941892757957699e+00
2.191941892757957699e+00
2.056187749870296511e+00
2.184254158146916147e+00
2.184254158146916147e+00
2.221567796868801015e+00
2.116377086703085553e+00
2.116377086703085553e+00
1.961497360148930280e+00
1.961497360148930280e+00
2.019249122592852608e+00
1.964309945982238181e+00
1.964309945982238181e+00
1.979122898037659839e+00
1.979122898037659839e+00
2.071188207647938206e+00
2.172816309091464060e+00
2.172816309091464060e+00
2.050187566759239299e+00
2.050187566759239299e+00
1.898495437482833337e+00
1.973310220648823554e+00
1.973310220648823554e+00
1.928121341593676652e+00
1.928121341593676652e+00
2.183129123813593253e+00
2.176003906369212704e+00
2.176003906369212704e+00
2.017186559648426858e+00
2.053937681203650278e+00
2.053937681203650278e+00
2.316070680867946319e+00
2.316070680867946319e+00
2.180129032258064647e+00
1.817117954039124683e+00
1.817117954039124683e+00
1.986248115482039944e+00
1.986248115482039944e+00
1.944059327982421204e+00
2.034999603259376677e+00
2.034999603259376677e+00
2.237130771813104602e+00
2.237130771813104602e+00
2.263006561479537382e+00
2.115439558091983141e+00
2.115439558091983141e+00
1.844681295205542026e+00
1.852744041261024766e+00
1.852744041261024766e+00
1.977060335093234089e+00
1.977060335093234089e+00
2.333133701590014208e+00
2.371009857478560967e+00
2.371009857478560967e+00
2.020186651203955464e+00
2.020186651203955464e+00
1.985685598315378275e+00
1.900745506149479791e+00
1.900745506149479791e+00
1.866431958983123307e+00
1.866431958983123307e+00
2.085251136814477935e+00
2.142627887813959298e+00
2.142627887813959298e+00
2.148253059480575100e+00
2.064625507370219992e+00
2.064625507370219992e+00
2.146002990813928868e+00
2.146002990813928868e+00
2.245943540757469048e+00
2.216880153813287624e+00
2.216880153813287624e+00
2.142627887813959298e+00
2.142627887813959298e+00
2.124252327036347587e+00
1.781304361095004118e+00
1.781304361095004118e+00
1.752990997039704624e+00
1.752990997039704624e+00
2.078688436536759720e+00
2.150503128147221332e+00
2.150503128147221332e+00
1.826680745872371503e+00
1.992248298593096711e+00
1.992248298593096711e+00
2.013811456648457288e+00
2.013811456648457288e+00
1.969747611926633502e+00
2.209942442091128445e+00
2.209942442091128445e+00
2.270881801812799416e+00
2.270881801812799416e+00
2.100064088869899592e+00
1.977622852259895758e+00
1.977622852259895758e+00
1.914620929593798593e+00
1.914620929593798593e+00
2.095001434369945237e+00
2.184816675313578038e+00
2.184816675313578038e+00
2.034624591814935712e+00
2.093126377147739969e+00
2.093126377147739969e+00
2.046249946592608282e+00
2.046249946592608282e+00
2.045874935148167761e+00
2.272569353312784202e+00
2.272569353312784202e+00
2.276319467757194737e+00
2.297132602923673161e+00
2.297132602923673161e+00
2.291132419812616394e+00
1.834930997650074724e+00
1.834930997650074724e+00
1.769866512039552031e+00
2.019061616870632125e+00
2.019061616870632125e+00
2.178253975035859380e+00
2.178253975035859380e+00
1.931871456038086965e+00
1.816742942594683718e+00
1.816742942594683718e+00
2.017374065370647340e+00
2.017374065370647340e+00
2.278569536423841413e+00
2.168503677480392078e+00
2.168503677480392078e+00
1.979310403759880321e+00
1.979310403759880321e+00
2.077938413647877791e+00
1.998623493148594665e+00
1.998623493148594665e+00
2.083563585314493150e+00
2.016999053926206376e+00
2.016999053926206376e+00
1.844118778038880579e+00
1.844118778038880579e+00
1.933559007538071750e+00
2.227567979979857782e+00
2.227567979979857782e+00
2.107939329203161627e+00
1.955309671315652809e+00
1.955309671315652809e+00
2.185941709646900932e+00
2.185941709646900932e+00
2.344384044923245813e+00
2.467575304422132465e+00
2.467575304422132465e+00
2.161378460036011973e+00
2.161378460036011973e+00
1.909745780816064942e+00
1.741928159428693501e+00
1.741928159428693501e+00
1.694301705984679662e+00
1.694301705984679662e+00
2.058625324259163225e+00
2.267881710257271255e+00
2.267881710257271255e+00
2.225130405590991067e+00
1.851056489761039980e+00
1.851056489761039980e+00
2.066875576036866669e+00
2.066875576036866669e+00
2.176566423535874595e+00
2.092376354258858040e+00
2.039687246314890068e+00
2.039687246314890068e+00
1.971247657704397804e+00
1.971247657704397804e+00
1.890620197149571302e+00
1.773991637928403531e+00
1.773991637928403531e+00
1.842993743705557463e+00
2.368947294534135217e+00
2.368947294534135217e+00
2.378322580645161111e+00
2.378322580645161111e+00
2.149190588091677956e+00
2.115439558091983141e+00
2.115439558091983141e+00
2.200942167424543072e+00
2.200942167424543072e+00
2.239943357646412725e+00
1.950622028260139862e+00
1.950622028260139862e+00
1.821618091372417370e+00
1.821618091372417370e+00
1.922871181371501814e+00
2.034249580370494748e+00
2.034249580370494748e+00
2.078688436536759720e+00
2.165878597369304437e+00
2.165878597369304437e+00
2.216317636646626177e+00
2.216317636646626177e+00
2.041374797814874853e+00
2.251756218146305777e+00
2.251756218146305777e+00
2.151253151036103706e+00
2.151253151036103706e+00
2.010811365092929126e+00
1.820305551316873771e+00
1.820305551316873771e+00
1.670863490707113819e+00
1.670863490707113819e+00
1.898870448927274301e+00
1.983623035370952525e+00
1.983623035370952525e+00
1.969935117648853984e+00
2.444887112033448329e+00
2.444887112033448329e+00
2.473200476088747823e+00
2.242755943479720404e+00
2.242755943479720404e+00
2.092751365703299449e+00
2.092751365703299449e+00
1.888557634205145552e+00
2.079813470870083059e+00
2.079813470870083059e+00
2.164753563035981099e+00
2.164753563035981099e+00
2.019999145481734981e+00
1.893620288705099686e+00
1.893620288705099686e+00
1.979310403759880321e+00
1.979310403759880321e+00
2.114877040925321250e+00
2.052062623981445011e+00
2.052062623981445011e+00
2.068188116092410045e+00
2.224005371257667729e+00
2.224005371257667729e+00
2.189504318369090985e+00
2.189504318369090985e+00
2.033124546037171854e+00
1.895120334482863989e+00
1.895120334482863989e+00
2.239193334757530351e+00
2.239193334757530351e+00
2.080188482314524023e+00
1.869807061983092877e+00
1.869807061983092877e+00
1.863619373149815406e+00
2.108689352092044000e+00
2.108689352092044000e+00
1.832305917538987305e+00
1.832305917538987305e+00
1.998060975981932996e+00
2.349259193700979687e+00
2.349259193700979687e+00
2.250256172368541474e+00
2.250256172368541474e+00
2.013061433759574914e+00
2.153503219702749494e+00
2.153503219702749494e+00
2.023186742759483625e+00
2.023186742759483625e+00
1.901120517593920756e+00
2.051125095370342155e+00
2.051125095370342155e+00
1.859681752983184388e+00
1.859681752983184388e+00
1.931871456038086965e+00
2.071375713370158689e+00
2.071375713370158689e+00
2.355259376812036454e+00
2.408698507644886799e+00
2.408698507644886799e+00
2.077188390758995418e+00
2.077188390758995418e+00
1.932433973204748634e+00
2.181441572313608468e+00
2.181441572313608468e+00
2.101001617481002448e+00
1.853119052705465952e+00
1.853119052705465952e+00
2.136440198980682048e+00
2.136440198980682048e+00
2.064625507370219992e+00
1.992810815759758380e+00
1.992810815759758380e+00
1.876182256538590609e+00
1.876182256538590609e+00
1.917808526871547681e+00
2.162878505813776275e+00
2.162878505813776275e+00
2.275756950590533290e+00
2.170941251869258792e+00
2.170941251869258792e+00
2.045312417981505870e+00
2.045312417981505870e+00
2.003311136204107612e+00
1.944246833704641908e+00
1.944246833704641908e+00
1.793492233039338357e+00
1.793492233039338357e+00
1.948934476760155077e+00
2.077375896481215900e+00
2.077375896481215900e+00
2.383947752311777357e+00
2.383947752311777357e+00
2.346446607867672007e+00
2.010811365092929126e+00
2.010811365092929126e+00
2.005373699148533806e+00
2.024499282815027001e+00
2.024499282815027001e+00
2.126127384258552855e+00
2.126127384258552855e+00
2.086188665425580790e+00
2.056750267036957958e+00
2.056750267036957958e+00
1.905058137760551773e+00
1.905058137760551773e+00
1.857244178594317452e+00
1.991685781426435042e+00
1.991685781426435042e+00
2.359759514145329362e+00
2.359759514145329362e+00
2.382447706534013054e+00
1.893995300149540650e+00
1.893995300149540650e+00
1.676863673818170808e+00
1.676863673818170808e+00
1.921183629871517029e+00
2.219505233924375265e+00
2.219505233924375265e+00
2.244443494979705633e+00
2.167566148869289222e+00
2.167566148869289222e+00
2.195692007202368234e+00
2.195692007202368234e+00
2.163253517258217240e+00
2.020186651203955464e+00
2.020186651203955464e+00
1.918746055482650315e+00
1.918746055482650315e+00
2.033124546037171854e+00
2.167003631702627775e+00
2.167003631702627775e+00
2.085813653981139382e+00
2.085813653981139382e+00
1.979497909482100804e+00
1.872244636371959814e+00
1.872244636371959814e+00
1.792929715872676688e+00
2.134940153202917745e+00
2.134940153202917745e+00
1.970685140537736135e+00
1.970685140537736135e+00
2.107376812036500180e+00
2.176378917813653668e+00
2.176378917813653668e+00
2.261319009979552597e+00
2.261319009979552597e+00
2.126877407147435228e+00
1.991873287148655747e+00
1.991873287148655747e+00
2.027124362926114642e+00
2.027124362926114642e+00
2.025061799981688893e+00
1.911620838038270209e+00
1.911620838038270209e+00
2.087313699758903685e+00
2.245193517868587563e+00
2.245193517868587563e+00
2.192879421369060555e+00
2.192879421369060555e+00
2.132127567369609622e+00
1.912183355204931878e+00
1.912183355204931878e+00
2.026561845759453195e+00
2.026561845759453195e+00
1.878807336649678250e+00
1.934684041871395088e+00
1.934684041871395088e+00
2.203754753257850751e+00
2.203754753257850751e+00
2.269194250312814631e+00
2.012311410870692985e+00
2.012311410870692985e+00
1.987748161259804025e+00
2.031061983092746104e+00
2.031061983092746104e+00
2.210692464980010374e+00
2.210692464980010374e+00
2.104376720480972018e+00
2.112251960814234053e+00
2.112251960814234053e+00
2.048687520981474997e+00
2.048687520981474997e+00
1.965434980315561520e+00
1.979872920926541990e+00
1.979872920926541990e+00
2.276319467757194737e+00
2.276319467757194737e+00
2.157440839869380955e+00
1.969935117648853984e+00
1.969935117648853984e+00
1.896057863093966622e+00
2.055812738425855546e+00
2.055812738425855546e+00
2.183691640980254700e+00
2.183691640980254700e+00
2.086001159703360308e+00
2.020561662648396428e+00
2.020561662648396428e+00
1.976685323648793124e+00
1.976685323648793124e+00
2.051312601092562637e+00
2.084876125370036970e+00
2.084876125370036970e+00
2.037999694814905283e+00
2.044374889370403459e+00
2.044374889370403459e+00
2.071938230536820580e+00
2.071938230536820580e+00
2.038562211981566730e+00
2.040437269203771997e+00
2.040437269203771997e+00
2.086376171147801273e+00
2.086376171147801273e+00
2.098564043092135289e+00
1.955872188482314478e+00
1.955872188482314478e+00
1.970122623371074688e+00
2.219130222479934300e+00
2.219130222479934300e+00
2.158753379924924776e+00
2.158753379924924776e+00
2.136252693258461566e+00
2.016624042481765411e+00
2.016624042481765411e+00
2.005936216315195253e+00
2.005936216315195253e+00
2.131940061647389140e+00
2.009686330759605788e+00
2.009686330759605788e+00
1.897182897427289516e+00
1.897182897427289516e+00
2.042124820703756782e+00
1.920058595538193913e+00
1.920058595538193913e+00
1.959622302926725235e+00
2.166816125980407293e+00
2.166816125980407293e+00
2.156878322702719064e+00
2.156878322702719064e+00
2.236943266090884119e+00
2.274444410534989469e+00
2.274444410534989469e+00
2.123314798425245176e+00
2.123314798425245176e+00
1.785429486983855618e+00
2.005561204870754288e+00
2.005561204870754288e+00
2.130065004425183872e+00
2.130065004425183872e+00
2.217067659535508550e+00
2.112251960814234053e+00
2.112251960814234053e+00
2.003311136204107612e+00
1.962809900204474101e+00
1.962809900204474101e+00
2.030124454481643248e+00
2.030124454481643248e+00
2.071750724814600098e+00
2.128002441480758122e+00
2.128002441480758122e+00
2.147690542313913653e+00
2.147690542313913653e+00
1.997498458815271549e+00
2.036687154759361462e+00
2.036687154759361462e+00
2.078125919370098273e+00
2.078125919370098273e+00
2.157440839869380955e+00
2.157815851313821920e+00
2.157815851313821920e+00
2.102501663258766751e+00
2.037812189092684800e+00
2.037812189092684800e+00
1.948184453871272925e+00
1.948184453871272925e+00
2.076438367870113488e+00
1.961309854426709798e+00
1.961309854426709798e+00
1.956997222815637594e+00
1.956997222815637594e+00
1.887995117038483883e+00
2.078688436536759720e+00
2.078688436536759720e+00
2.188566789757988129e+00
2.188566789757988129e+00
2.153128208258308529e+00
2.166066103091524919e+00
2.166066103091524919e+00
1.919683584093752948e+00
2.041562303537095335e+00
2.041562303537095335e+00
2.124252327036347587e+00
2.124252327036347587e+00
2.165503585924863472e+00
2.042499832148198191e+00
2.042499832148198191e+00
2.030499465926084213e+00
2.030499465926084213e+00
2.116752098147526517e+00
2.035562120426038124e+00
2.035562120426038124e+00
2.003311136204107612e+00
2.003311136204107612e+00
2.019624134037293572e+00
2.031812005981628033e+00
2.031812005981628033e+00
2.097439008758812395e+00
2.135502670369579192e+00
2.135502670369579192e+00
2.075500839259010633e+00
2.075500839259010633e+00
2.061625415814691387e+00
1.992060792870876229e+00
1.992060792870876229e+00
2.011936399426252020e+00
2.011936399426252020e+00
2.058062807092501334e+00
2.123689809869686140e+00
2.123689809869686140e+00
2.093501388592180934e+00
2.093501388592180934e+00
2.130065004425183872e+00
2.082063539536728847e+00
2.082063539536728847e+00
2.081313516647846917e+00
2.054312692648091243e+00
2.054312692648091243e+00
1.899245460371715488e+00
1.899245460371715488e+00
2.006686239204077182e+00
2.266381664479506952e+00
2.266381664479506952e+00
2.297132602923673161e+00
2.071938230536820580e+00
2.071938230536820580e+00
1.770054017761772513e+00
1.770054017761772513e+00
1.929996398815881919e+00
2.079250953703421168e+00
2.079250953703421168e+00
1.974622760704367153e+00
1.974622760704367153e+00
2.204504776146733125e+00
2.101001617481002448e+00
2.101001617481002448e+00
2.030686971648304695e+00
2.030686971648304695e+00
1.943496810815759979e+00
2.001998596148564236e+00
2.001998596148564236e+00
2.138690267647328280e+00
2.143940427869502674e+00
2.143940427869502674e+00
2.039687246314890068e+00
2.039687246314890068e+00
2.076438367870113488e+00
2.022624225592822178e+00
2.022624225592822178e+00
2.066688070314646186e+00
2.066688070314646186e+00
2.128189947202978605e+00
1.999373516037476817e+00
1.999373516037476817e+00
2.033124546037171854e+00
2.062187932981353278e+00
2.062187932981353278e+00
2.077000885036774935e+00
2.077000885036774935e+00
2.077375896481215900e+00
1.918371044038209350e+00
1.918371044038209350e+00
1.986435621204260427e+00
1.986435621204260427e+00
2.011748893704031538e+00
1.989248207037568328e+00
1.989248207037568328e+00
2.155940794091616652e+00
2.155940794091616652e+00
2.136627704702902530e+00
2.173378826258125951e+00
2.173378826258125951e+00
2.134940153202917745e+00
2.151628162480544670e+00
2.151628162480544670e+00
2.107189306314279698e+00
2.107189306314279698e+00
1.996373424481948211e+00
1.970497634815515653e+00
1.970497634815515653e+00
2.045874935148167761e+00
2.045874935148167761e+00
2.028436902981658463e+00
2.031812005981628033e+00
2.031812005981628033e+00
2.092751365703299449e+00
2.092751365703299449e+00
2.164566057313760616e+00
2.189316812646870059e+00
2.189316812646870059e+00
2.074188299203466812e+00
2.074188299203466812e+00
2.041749809259315818e+00
2.039687246314890068e+00
2.039687246314890068e+00
2.065188024536881883e+00
2.103251686147648680e+00
2.103251686147648680e+00
2.032374523148289480e+00
2.032374523148289480e+00
1.944059327982421204e+00
1.898870448927274301e+00
1.898870448927274301e+00
2.097814020203253360e+00
2.097814020203253360e+00
2.134377636036255854e+00
2.045124912259285388e+00
2.045124912259285388e+00
2.048875026703695923e+00
2.048875026703695923e+00
2.050562578203680708e+00
2.051875118259224084e+00
2.051875118259224084e+00
2.006498733481856700e+00
2.116564592425305591e+00
2.116564592425305591e+00
2.143940427869502674e+00
2.143940427869502674e+00
2.059937864314706601e+00
2.147315530869472244e+00
2.147315530869472244e+00
2.122002258369701355e+00
2.122002258369701355e+00
2.002561113315225683e+00
1.978185369426557427e+00
1.978185369426557427e+00
2.030124454481643248e+00
2.064813013092440475e+00
2.064813013092440475e+00
2.055625232703635064e+00
2.055625232703635064e+00
2.060125370036927084e+00
2.030499465926084213e+00
2.030499465926084213e+00
2.085251136814477935e+00
2.085251136814477935e+00
2.156128299813837135e+00
2.082063539536728847e+00
2.082063539536728847e+00
2.003686147648549021e+00
2.055437726981414581e+00
2.055437726981414581e+00
1.991310769981994078e+00
1.991310769981994078e+00
2.116564592425305591e+00
2.205067293313394572e+00
2.205067293313394572e+00
2.181441572313608468e+00
2.181441572313608468e+00
2.045124912259285388e+00
1.922683675649281332e+00
1.922683675649281332e+00
1.778304269539475735e+00
1.778304269539475735e+00
1.962622394482253396e+00
2.101751640369884377e+00
2.101751640369884377e+00
2.109814386425366894e+00
2.114877040925321250e+00
2.114877040925321250e+00
2.089001251258888470e+00
2.089001251258888470e+00
2.190629352702413879e+00
2.110189397869807859e+00
2.110189397869807859e+00
2.091813837092196593e+00
2.023749259926145072e+00
2.023749259926145072e+00
2.011561387981810611e+00
2.011561387981810611e+00
1.998623493148594665e+00
1.951372051149021791e+00
1.951372051149021791e+00
2.010998870815149164e+00
2.010998870815149164e+00
2.131377544480727693e+00
2.155003265480513797e+00
2.155003265480513797e+00
2.074938322092349186e+00
2.074938322092349186e+00
1.967497543259987047e+00
2.059187841425824672e+00
2.059187841425824672e+00
2.125939878536332373e+00
2.092938871425519931e+00
2.092938871425519931e+00
2.103064180425428198e+00
2.103064180425428198e+00
2.194941984313486305e+00
2.061437910092470904e+00
2.061437910092470904e+00
1.982122989593188223e+00
1.982122989593188223e+00
2.046812463759269729e+00
2.035562120426038124e+00
2.035562120426038124e+00
2.011748893704031538e+00
2.011748893704031538e+00
2.108126834925382109e+00
2.078313425092318756e+00
2.078313425092318756e+00
2.027311868648335125e+00
1.947434430982390996e+00
1.947434430982390996e+00
1.955309671315652809e+00
1.955309671315652809e+00
2.069500656147953865e+00
2.116564592425305591e+00
2.116564592425305591e+00
2.032749534592730889e+00
2.032749534592730889e+00
1.982498001037629409e+00
2.033312051759392336e+00
2.033312051759392336e+00
2.034999603259376677e+00
2.010811365092929126e+00
2.010811365092929126e+00
2.082438550981169811e+00
2.082438550981169811e+00
2.085626148258918899e+00
2.069688161870173904e+00
2.069688161870173904e+00
2.119002166814172750e+00
2.119002166814172750e+00
2.113752006591998356e+00
2.059750358592486119e+00
2.059750358592486119e+00
2.124439832758568070e+00
2.124439832758568070e+00
2.201317178868984037e+00
2.050187566759239299e+00
2.050187566759239299e+00
1.917433515427106494e+00
2.038937223426007694e+00
2.038937223426007694e+00
2.064250495925779028e+00
2.064250495925779028e+00
2.069125644703512901e+00
2.091626331369976111e+00
2.091626331369976111e+00
2.038562211981566730e+00
2.038562211981566730e+00
1.976497817926572642e+00
2.025999328592791304e+00
2.025999328592791304e+00
2.066688070314646186e+00
2.066688070314646186e+00
2.100626606036561483e+00
2.109439374980925930e+00
2.109439374980925930e+00
1.966747520371105118e+00
1.966747520371105118e+00
1.997685964537492032e+00
2.020186651203955464e+00
2.020186651203955464e+00
1.993935850093081497e+00
2.075125827814569668e+00
2.075125827814569668e+00
2.133815118869594407e+00
2.133815118869594407e+00
2.109251869258705447e+00
2.047562486648152102e+00
2.047562486648152102e+00
1.999186010315256334e+00
1.999186010315256334e+00
2.016436536759544484e+00
2.046624958037049247e+00
2.046624958037049247e+00
2.016811548203985893e+00
1.992248298593096711e+00
1.992248298593096711e+00
2.022436719870601696e+00
2.022436719870601696e+00
2.009873836481826270e+00
2.088251228370006540e+00
2.088251228370006540e+00
2.062750450148014725e+00
2.062750450148014725e+00
2.072125736259041062e+00
2.124252327036347587e+00
2.124252327036347587e+00
2.050187566759239299e+00
2.050187566759239299e+00
2.062187932981353278e+00
2.074375804925687294e+00
2.074375804925687294e+00
2.043812372203741567e+00
2.050187566759239299e+00
2.050187566759239299e+00
2.068563127536851454e+00
2.068563127536851454e+00
2.047937498092593067e+00
2.054312692648091243e+00
2.054312692648091243e+00
2.055062715536973172e+00
2.055062715536973172e+00
1.975935300759910973e+00
2.047749992370372585e+00
2.047749992370372585e+00
2.063875484481338063e+00
2.055437726981414581e+00
2.055437726981414581e+00
2.060312875759148010e+00
2.060312875759148010e+00
2.023186742759483625e+00
2.074938322092349186e+00
2.074938322092349186e+00
2.079813470870083059e+00
2.079813470870083059e+00
2.047937498092593067e+00
2.073813287759025847e+00
2.073813287759025847e+00
2.068750633259071936e+00
2.017936582537308787e+00
2.017936582537308787e+00
1.982498001037629409e+00
1.982498001037629409e+00
2.007623767815180038e+00
2.067625598925748598e+00
2.067625598925748598e+00
2.049437543870357370e+00
2.049437543870357370e+00
2.037624683370464318e+00
2.046999969481490211e+00
2.046999969481490211e+00
2.082626056703390294e+00
2.082626056703390294e+00
2.081876033814508364e+00
2.095001434369945237e+00
2.095001434369945237e+00
2.074000793481246330e+00
2.029936948759422766e+00
2.029936948759422766e+00
2.023561754203924590e+00
2.023561754203924590e+00
2.098564043092135289e+00
2.052250129703665493e+00
2.052250129703665493e+00
2.040249763481551515e+00
2.040249763481551515e+00
2.076438367870113488e+00
2.061062898648029940e+00
2.061062898648029940e+00
2.059750358592486119e+00
2.059750358592486119e+00
2.058625324259163225e+00
2.071750724814600098e+00
2.071750724814600098e+00
2.034624591814935712e+00
2.034624591814935712e+00
2.003311136204107612e+00
1.978747886593218652e+00
1.978747886593218652e+00
2.015123996704001108e+00
2.062562944425794242e+00
2.062562944425794242e+00
2.064438001647999510e+00
2.064438001647999510e+00
2.098376537369914807e+00
2.107001800592058771e+00
2.107001800592058771e+00
2.027311868648335125e+00
2.027311868648335125e+00
2.014186468092898252e+00
2.053937681203650278e+00
2.053937681203650278e+00
2.061437910092470904e+00
2.061437910092470904e+00
2.076438367870113488e+00
2.086376171147801273e+00
2.086376171147801273e+00
2.078313425092318756e+00
2.133065095980712478e+00
2.133065095980712478e+00
2.101001617481002448e+00
2.101001617481002448e+00
2.040062257759331033e+00
2.021311685537278358e+00
2.021311685537278358e+00
2.017374065370647340e+00
2.017374065370647340e+00
2.015874019592883037e+00
2.035562120426038124e+00
2.035562120426038124e+00
2.057125278481399366e+00
2.057125278481399366e+00
2.070438184759056277e+00
2.070250679036835795e+00
2.070250679036835795e+00
2.066125553147984295e+00
2.048125003814813549e+00
2.048125003814813549e+00
2.053750175481429796e+00
2.053750175481429796e+00
2.060312875759148010e+00
2.043062349314859638e+00
2.043062349314859638e+00
2.040249763481551515e+00
2.072688253425702509e+00
2.072688253425702509e+00
2.058625324259163225e+00
2.033499557481612818e+00
2.033499557481612818e+00
2.076625873592333971e+00
2.114877040925321250e+00
2.114877040925321250e+00
2.070813196203497242e+00
2.070813196203497242e+00
2.054687704092532208e+00
2.014373973815118735e+00
2.014373973815118735e+00
2.048875026703695923e+00
2.048875026703695923e+00
2.026374340037232713e+00
2.027874385814997016e+00
2.027874385814997016e+00
2.050375072481459782e+00
2.016249031037324002e+00
2.016249031037324002e+00
2.066313058870204777e+00
2.066313058870204777e+00
2.072875759147922992e+00
2.035749626148258606e+00
2.035749626148258606e+00
2.082813562425611220e+00
2.082813562425611220e+00
2.090126285592211808e+00
2.092376354258858040e+00
2.092376354258858040e+00
2.082626056703390294e+00
2.062187932981353278e+00
2.062187932981353278e+00
2.061062898648029940e+00
2.061062898648029940e+00
2.044749900814844423e+00
2.016811548203985893e+00
2.016811548203985893e+00
2.004998687704092397e+00
2.004998687704092397e+00
2.033124546037171854e+00
2.061250404370250422e+00
2.061250404370250422e+00
2.091626331369976111e+00
2.085438642536698417e+00
2.085438642536698417e+00
2.056750267036957958e+00
2.056750267036957958e+00
2.055437726981414581e+00
2.041562303537095335e+00
2.041562303537095335e+00
2.054875209814752690e+00
2.054875209814752690e+00
2.073250770592364400e+00
2.056000244148076028e+00
2.052812646870326940e+00
2.052812646870326940e+00
2.070438184759056277e+00
2.079813470870083059e+00
2.079813470870083059e+00
2.069313150425733383e+00
2.069313150425733383e+00
2.065000518814661401e+00
2.046624958037049247e+00
2.046624958037049247e+00
2.043437360759300603e+00
2.041374797814874853e+00
2.041374797814874853e+00
2.085063631092257452e+00
2.085063631092257452e+00
2.069313150425733383e+00
2.060875392925809457e+00
2.060875392925809457e+00
2.045499923703726353e+00
2.045499923703726353e+00
2.025811822870570822e+00
2.057500289925840331e+00
2.057500289925840331e+00
2.055437726981414581e+00
2.063875484481338063e+00
2.063875484481338063e+00
2.058437818536942299e+00
2.058437818536942299e+00
2.073063264870143918e+00
2.053937681203650278e+00
2.053937681203650278e+00
2.053187658314767905e+00
2.053187658314767905e+00
2.054312692648091243e+00
2.041562303537095335e+00
2.041562303537095335e+00
2.043812372203741567e+00
2.043812372203741567e+00
2.078500930814539238e+00
2.075125827814569668e+00
2.075125827814569668e+00
2.078125919370098273e+00
2.087313699758903685e+00
2.087313699758903685e+00
2.059750358592486119e+00
2.059750358592486119e+00
2.052250129703665493e+00
2.066500564592425260e+00
2.066500564592425260e+00
1.957559739982299263e+00
2.065938047425763813e+00
2.065938047425763813e+00
2.072500747703482027e+00
2.072500747703482027e+00
2.073250770592364400e+00
2.067625598925748598e+00
2.067625598925748598e+00
2.069125644703512901e+00
2.069125644703512901e+00
2.068000610370189563e+00
2.044374889370403459e+00
2.044374889370403459e+00
2.044937406537064906e+00
2.044937406537064906e+00
2.057125278481399366e+00
2.078500930814539238e+00
2.078500930814539238e+00
2.068188116092410045e+00
2.064250495925779028e+00
2.064250495925779028e+00
2.068750633259071936e+00
2.068750633259071936e+00
2.068000610370189563e+00
2.072500747703482027e+00
2.072500747703482027e+00
2.060312875759148010e+00
2.060312875759148010e+00
2.039874752037110550e+00
2.075875850703451597e+00
2.075875850703451597e+00
2.086001159703360308e+00
2.086001159703360308e+00
2.040624774925992480e+00
2.038187200537125765e+00
2.038187200537125765e+00
2.037812189092684800e+00
2.037812189092684800e+00
2.075688344981231115e+00
2.082813562425611220e+00
2.082813562425611220e+00
2.067813104647969080e+00
2.057312784203619849e+00
2.057312784203619849e+00
2.066875576036866669e+00
2.066875576036866669e+00
2.052812646870326940e+00
2.052437635425885976e+00
2.052437635425885976e+00
2.059562852870265637e+00
2.059562852870265637e+00
2.056937772759178884e+00
2.045874935148167761e+00
2.045874935148167761e+00
2.051500106814783120e+00
2.051500106814783120e+00
2.077938413647877791e+00
2.075875850703451597e+00
2.075875850703451597e+00
2.055250221259193655e+00
2.047562486648152102e+00
2.047562486648152102e+00
2.061250404370250422e+00
2.061250404370250422e+00
2.062750450148014725e+00
2.065375530259102366e+00
2.065375530259102366e+00
2.069688161870173904e+00
2.073438276314584883e+00
2.073438276314584883e+00
2.024124271370586037e+00
2.065375530259102366e+00
2.065375530259102366e+00
2.056562761314737475e+00
2.056562761314737475e+00
2.059937864314706601e+00
2.057312784203619849e+00
2.057312784203619849e+00
2.054312692648091243e+00
2.060500381481368493e+00
2.060500381481368493e+00
2.058437818536942299e+00
2.058437818536942299e+00
2.055812738425855546e+00
2.047937498092593067e+00
2.047937498092593067e+00
2.046999969481490211e+00
2.046999969481490211e+00
2.055062715536973172e+00
2.056375255592516993e+00
2.056375255592516993e+00
2.059562852870265637e+00
2.059562852870265637e+00
2.053187658314767905e+00
2.058437818536942299e+00
2.058437818536942299e+00
2.071000701925717724e+00
2.071000701925717724e+00
2.070063173314615312e+00
2.048875026703695923e+00
2.048875026703695923e+00
2.039499740592669585e+00
2.044562395092623941e+00
2.044562395092623941e+00
2.065375530259102366e+00
2.065375530259102366e+00
2.078875942258980203e+00
2.075688344981231115e+00
2.075688344981231115e+00
2.079438459425641650e+00
2.079438459425641650e+00
2.086188665425580790e+00
2.074000793481246330e+00
2.074000793481246330e+00
2.052812646870326940e+00
2.052812646870326940e+00
2.054875209814752690e+00
2.066688070314646186e+00
2.066688070314646186e+00
2.057500289925840331e+00
2.057500289925840331e+00
2.062562944425794242e+00
2.050000061037018817e+00
2.050000061037018817e+00
2.076438367870113488e+00
2.076438367870113488e+00
2.065375530259102366e+00
2.040624774925992480e+00
2.040624774925992480e+00
2.048875026703695923e+00
2.078500930814539238e+00
2.078500930814539238e+00
2.078688436536759720e+00
2.078688436536759720e+00
2.072125736259041062e+00
2.057500289925840331e+00
2.057500289925840331e+00
2.057500289925840331e+00
2.057500289925840331e+00
2.070813196203497242e+00
2.081501022370067400e+00
2.081501022370067400e+00
2.063875484481338063e+00
2.062750450148014725e+00
2.062750450148014725e+00
2.062750450148014725e+00
2.062750450148014725e+00
2.064625507370219992e+00
2.065750541703543330e+00
2.065750541703543330e+00
2.046999969481490211e+00
2.046999969481490211e+00
2.055625232703635064e+00
2.051875118259224084e+00
2.051875118259224084e+00
2.056562761314737475e+00
2.056562761314737475e+00
2.064062990203558545e+00
2.034812097537156195e+00
2.034812097537156195e+00
2.070813196203497242e+00
2.070813196203497242e+00
2.085063631092257452e+00
2.068000610370189563e+00
2.068000610370189563e+00
2.060687887203588975e+00
2.049250038148136888e+00
2.049250038148136888e+00
2.039499740592669585e+00
2.039499740592669585e+00
2.062562944425794242e+00
2.062937955870235207e+00
2.062937955870235207e+00
2.057875301370280852e+00
2.057875301370280852e+00
2.053375164036988387e+00
2.034249580370494748e+00
2.034249580370494748e+00
2.045499923703726353e+00
2.055625232703635064e+00
2.055625232703635064e+00
2.066875576036866669e+00
2.066875576036866669e+00
2.087876216925565576e+00
2.109251869258705447e+00
2.109251869258705447e+00
2.100814111758781966e+00
2.100814111758781966e+00
2.086563676870021755e+00
2.059937864314706601e+00
2.059937864314706601e+00
2.067438093203528116e+00
2.066313058870204777e+00
2.066313058870204777e+00
2.062187932981353278e+00
2.062187932981353278e+00
2.047187475203710694e+00
2.056187749870296511e+00
2.056187749870296511e+00
2.029374431592760875e+00
2.029374431592760875e+00
2.067063081759087151e+00
2.080938505203405953e+00
2.080938505203405953e+00
2.054875209814752690e+00
2.054875209814752690e+00
2.062187932981353278e+00
2.080563493758964988e+00
2.080563493758964988e+00
2.074938322092349186e+00
2.077563402203436382e+00
2.077563402203436382e+00
2.077000885036774935e+00
2.077000885036774935e+00
2.068938138981292418e+00
2.058062807092501334e+00
2.058062807092501334e+00
2.057312784203619849e+00
2.057312784203619849e+00
2.061437910092470904e+00
2.059187841425824672e+00
2.059187841425824672e+00
2.053750175481429796e+00
2.053750175481429796e+00
2.053187658314767905e+00
2.069500656147953865e+00
2.069500656147953865e+00
2.051875118259224084e+00
2.044749900814844423e+00
2.044749900814844423e+00
2.057500289925840331e+00
2.057500289925840331e+00
2.059375347148045154e+00
2.059562852870265637e+00
2.059562852870265637e+00
2.041749809259315818e+00
2.041749809259315818e+00
2.065375530259102366e+00
2.095563951536606684e+00
2.095563951536606684e+00
2.071563219092379615e+00
2.069500656147953865e+00
2.069500656147953865e+00
2.053562669759208870e+00
2.053562669759208870e+00
2.051125095370342155e+00
2.072875759147922992e+00
2.072875759147922992e+00
2.058625324259163225e+00
2.058625324259163225e+00
2.052250129703665493e+00
2.050000061037018817e+00
2.050000061037018817e+00
2.049250038148136888e+00
2.049250038148136888e+00
2.086188665425580790e+00
2.080750999481185470e+00
2.080750999481185470e+00
2.040624774925992480e+00
2.041374797814874853e+00
2.041374797814874853e+00
2.051687612537003602e+00
2.051687612537003602e+00
2.046437452314828764e+00
2.052625141148106458e+00
2.052625141148106458e+00
2.048875026703695923e+00
2.048875026703695923e+00
2.071938230536820580e+00
2.088063722647786058e+00
2.088063722647786058e+00
2.083563585314493150e+00
2.083563585314493150e+00
2.088438734092227023e+00
2.081126010925626435e+00
2.081126010925626435e+00
2.051312601092562637e+00
2.051312601092562637e+00
2.056750267036957958e+00
2.067625598925748598e+00
2.067625598925748598e+00
2.081501022370067400e+00
2.049625049592577852e+00
2.049625049592577852e+00
2.047374980925931620e+00
2.047374980925931620e+00
2.075688344981231115e+00
2.064250495925779028e+00
2.064250495925779028e+00
2.031249488814966586e+00
2.031249488814966586e+00
2.041562303537095335e+00
2.068188116092410045e+00
2.068188116092410045e+00
2.072500747703482027e+00
2.072500747703482027e+00
2.042499832148198191e+00
2.032374523148289480e+00
2.032374523148289480e+00
2.052812646870326940e+00
2.079063447981200685e+00
2.078125919370098273e+00
2.078125919370098273e+00
2.070625690481276759e+00
2.070625690481276759e+00
2.100626606036561483e+00
2.099876583147679110e+00
2.099876583147679110e+00
2.067438093203528116e+00
2.067438093203528116e+00
2.050937589648121673e+00
2.043812372203741567e+00
2.043812372203741567e+00
2.021686696981719766e+00
2.021686696981719766e+00
2.057312784203619849e+00
2.087501205481124167e+00
2.087501205481124167e+00
2.091626331369976111e+00
2.089188756981108952e+00
2.089188756981108952e+00
2.058625324259163225e+00
2.058625324259163225e+00
2.001998596148564236e+00
2.008186284981841485e+00
2.008186284981841485e+00
2.059562852870265637e+00
2.092188848536637558e+00
2.092188848536637558e+00
2.120877224036378017e+00
2.120877224036378017e+00
2.060875392925809457e+00
2.041187292092654371e+00
2.041187292092654371e+00
2.043437360759300603e+00
2.043437360759300603e+00
2.032374523148289480e+00
2.062375438703573760e+00
2.062375438703573760e+00
2.062000427259132795e+00
2.062000427259132795e+00
2.063500473036897098e+00
2.075313333536790150e+00
2.075313333536790150e+00
2.087501205481124167e+00
2.092938871425519931e+00
2.092938871425519931e+00
2.045874935148167761e+00
2.045874935148167761e+00
2.024499282815027001e+00
2.001623584704122827e+00
2.001623584704122827e+00
2.058437818536942299e+00
2.058437818536942299e+00
2.090688802758873255e+00
2.083376079592272667e+00
2.088813745536667987e+00
2.088813745536667987e+00
2.054500198370311725e+00
2.054500198370311725e+00
2.053937681203650278e+00
2.036124637592700015e+00
2.036124637592700015e+00
2.078500930814539238e+00
2.110001892147587377e+00
2.110001892147587377e+00
2.098564043092135289e+00
2.098564043092135289e+00
2.061250404370250422e+00
2.043437360759300603e+00
2.043437360759300603e+00
2.062375438703573760e+00
2.062375438703573760e+00
2.049062532425916405e+00
2.022249214148381213e+00
2.022249214148381213e+00
2.033124546037171854e+00
2.033124546037171854e+00
2.057875301370280852e+00
2.072875759147922992e+00
2.072875759147922992e+00
2.077375896481215900e+00
2.021686696981719766e+00
2.021686696981719766e+00
2.033874568926053783e+00
2.033874568926053783e+00
2.040812280648213406e+00
2.034249580370494748e+00
2.034249580370494748e+00
2.050937589648121673e+00
2.050937589648121673e+00
2.050562578203680708e+00
2.025249305703909375e+00
2.025249305703909375e+00
2.061062898648029940e+00
2.024874294259468410e+00
2.024874294259468410e+00
2.065188024536881883e+00
2.065188024536881883e+00
2.116564592425305591e+00
2.099314065981017663e+00
2.099314065981017663e+00
2.093876400036621899e+00
2.072500747703482027e+00
2.072500747703482027e+00
2.021499191259499284e+00
2.021499191259499284e+00
2.088438734092227023e+00
2.059750358592486119e+00
2.059750358592486119e+00
2.058812829981383707e+00
2.058812829981383707e+00
2.026374340037232713e+00
2.047187475203710694e+00
2.047187475203710694e+00
2.029374431592760875e+00
2.029374431592760875e+00
2.022436719870601696e+00
2.083563585314493150e+00
2.083563585314493150e+00
2.071938230536820580e+00
2.071938230536820580e+00
2.089188756981108952e+00
2.097626514481032878e+00
2.097626514481032878e+00
2.059000335703604190e+00
2.045499923703726353e+00
2.045499923703726353e+00
2.041374797814874853e+00
2.041374797814874853e+00
2.030874477370525177e+00
2.089751274147770843e+00
2.089751274147770843e+00
2.085063631092257452e+00
2.051125095370342155e+00
2.051125095370342155e+00
2.034999603259376677e+00
2.034999603259376677e+00
2.051312601092562637e+00
2.070438184759056277e+00
2.070438184759056277e+00
2.064250495925779028e+00
2.064250495925779028e+00
2.036687154759361462e+00
2.098376537369914807e+00
2.098376537369914807e+00
2.101001617481002448e+00
2.101001617481002448e+00
2.071375713370158689e+00
2.054875209814752690e+00
2.054875209814752690e+00
2.031624500259407551e+00
2.031624500259407551e+00
2.020936674092837393e+00
2.022061708426160731e+00
2.022061708426160731e+00
2.040437269203771997e+00
2.065563035981322848e+00
2.065563035981322848e+00
2.052812646870326940e+00
2.052812646870326940e+00
2.090313791314432290e+00
2.104189214758751536e+00
2.104189214758751536e+00
2.082438550981169811e+00
2.082438550981169811e+00
2.048125003814813549e+00
2.014186468092898252e+00
2.014186468092898252e+00
1.998998504593035630e+00
1.964872463148899850e+00
1.964872463148899850e+00
2.062375438703573760e+00
2.062375438703573760e+00
2.091626331369976111e+00
2.076813379314554453e+00
2.076813379314554453e+00
2.088813745536667987e+00
2.088813745536667987e+00
2.069688161870173904e+00
2.028999420148319910e+00
2.028999420148319910e+00
2.050000061037018817e+00
2.067625598925748598e+00
2.067625598925748598e+00
2.029936948759422766e+00
2.029936948759422766e+00
2.024874294259468410e+00
2.068938138981292418e+00
2.068938138981292418e+00
2.070438184759056277e+00
2.070438184759056277e+00
2.060312875759148010e+00
2.064438001647999510e+00
2.064438001647999510e+00
2.080750999481185470e+00
2.080750999481185470e+00
2.061625415814691387e+00
2.052250129703665493e+00
2.052250129703665493e+00
2.037999694814905283e+00
2.037999694814905283e+00
2.006686239204077182e+00
2.016061525315103520e+00
2.016061525315103520e+00
2.044374889370403459e+00
2.070813196203497242e+00
2.070813196203497242e+00
2.042124820703756782e+00
2.042124820703756782e+00
2.046624958037049247e+00
2.104564226203192501e+00
2.104564226203192501e+00
2.081688528092287882e+00
2.081688528092287882e+00
2.077563402203436382e+00
2.087688711203345093e+00
2.087688711203345093e+00
2.106251777703176842e+00
2.106251777703176842e+00
2.062375438703573760e+00
2.030686971648304695e+00
2.030686971648304695e+00
2.015123996704001108e+00
2.015123996704001108e+00
2.040249763481551515e+00
2.039874752037110550e+00
2.039874752037110550e+00
2.018499099703970678e+00
2.018499099703970678e+00
2.037999694814905283e+00
2.051125095370342155e+00
2.051125095370342155e+00
2.098751548814355772e+00
2.109064363536484965e+00
2.109064363536484965e+00
2.054500198370311725e+00
2.054500198370311725e+00
1.985685598315378275e+00
2.020374156926175946e+00
2.020374156926175946e+00
2.068000610370189563e+00
2.068000610370189563e+00
2.123502304147465658e+00
2.115252052369762659e+00
2.115252052369762659e+00
2.068563127536851454e+00
2.048125003814813549e+00
2.048125003814813549e+00
2.061625415814691387e+00
2.061625415814691387e+00
2.052250129703665493e+00
2.048312509537034032e+00
2.048312509537034032e+00
2.055250221259193655e+00
2.055250221259193655e+00
2.039124729148228621e+00
1.992060792870876229e+00
1.992060792870876229e+00
2.032374523148289480e+00
2.032374523148289480e+00
2.054687704092532208e+00
2.060875392925809457e+00
2.060875392925809457e+00
2.063312967314676172e+00
2.063312967314676172e+00
2.083188573870052185e+00
2.092376354258858040e+00
2.092376354258858040e+00
2.060875392925809457e+00
2.062562944425794242e+00
2.062562944425794242e+00
2.040999786370433888e+00
2.040999786370433888e+00
1.992435804315317194e+00
2.063875484481338063e+00
2.063875484481338063e+00
2.049625049592577852e+00
2.049625049592577852e+00
2.087876216925565576e+00
2.058062807092501334e+00
2.058062807092501334e+00
2.012311410870692985e+00
2.036124637592700015e+00
2.036124637592700015e+00
2.121252235480818982e+00
2.121252235480818982e+00
2.112064455092013571e+00
2.090126285592211808e+00
2.090126285592211808e+00
2.070813196203497242e+00
2.070813196203497242e+00
2.048687520981474997e+00
2.024686788537247928e+00
2.024686788537247928e+00
2.038749717703787212e+00
2.038749717703787212e+00
2.050375072481459782e+00
2.061812921536912313e+00
2.061812921536912313e+00
2.074375804925687294e+00
2.083001068147831703e+00
2.083001068147831703e+00
2.062375438703573760e+00
2.062375438703573760e+00
2.055062715536973172e+00
2.055437726981414581e+00
2.055437726981414581e+00
1.983248023926511561e+00
1.983248023926511561e+00
1.988685689870906881e+00
2.022811731315042216e+00
2.022811731315042216e+00
2.058812829981383707e+00
2.110751915036469750e+00
2.110751915036469750e+00
2.095938962981048093e+00
2.095938962981048093e+00
2.077563402203436382e+00
2.088626239814447505e+00
2.088626239814447505e+00
2.040062257759331033e+00
2.040062257759331033e+00
2.025811822870570822e+00
2.025624317148350340e+00
2.025624317148350340e+00
2.057125278481399366e+00
2.057125278481399366e+00
2.059000335703604190e+00
2.044937406537064906e+00
2.044937406537064906e+00
2.031812005981628033e+00
2.055625232703635064e+00
2.055625232703635064e+00
2.075500839259010633e+00
2.075500839259010633e+00
2.085813653981139382e+00
2.105876766258735877e+00
2.105876766258735877e+00
2.098189031647694325e+00
2.098189031647694325e+00
2.076438367870113488e+00
2.061437910092470904e+00
2.061437910092470904e+00
2.047937498092593067e+00
2.057312784203619849e+00
2.057312784203619849e+00
2.062187932981353278e+00
2.062187932981353278e+00
2.034624591814935712e+00
2.034999603259376677e+00
2.034999603259376677e+00
2.058062807092501334e+00
2.058062807092501334e+00
2.059750358592486119e+00
2.100064088869899592e+00
2.100064088869899592e+00
2.077375896481215900e+00
2.077375896481215900e+00
2.095376445814386202e+00
2.108126834925382109e+00
2.108126834925382109e+00
2.104751731925412539e+00
2.104751731925412539e+00
2.088251228370006540e+00
2.074938322092349186e+00
2.074938322092349186e+00
1.995623401593066282e+00
2.032749534592730889e+00
2.032749534592730889e+00
2.015123996704001108e+00
2.015123996704001108e+00
2.037249671926022909e+00
2.095376445814386202e+00
2.095376445814386202e+00
2.090501297036652772e+00
2.090501297036652772e+00
2.100626606036561483e+00
2.084126102481154597e+00
2.084126102481154597e+00
2.094813928647724754e+00
2.094813928647724754e+00
2.094438917203283790e+00
2.054687704092532208e+00
2.054687704092532208e+00
1.999936033204138486e+00
1.964684957426679368e+00
1.964684957426679368e+00
1.995435895870845799e+00
1.995435895870845799e+00
2.079813470870083059e+00
2.124627338480788552e+00
2.124627338480788552e+00
2.083938596758934114e+00
2.083938596758934114e+00
2.123127292703024249e+00
2.112439466536454535e+00
2.112439466536454535e+00
2.073813287759025847e+00
2.073813287759025847e+00
2.148440565202795582e+00
2.108876857814264483e+00
2.108876857814264483e+00
2.091251319925535146e+00
2.073250770592364400e+00
2.073250770592364400e+00
1.971622669148838769e+00
1.971622669148838769e+00
2.012311410870692985e+00
1.990185735648670962e+00
1.990185735648670962e+00
1.974997772148808339e+00
1.974997772148808339e+00
2.008561296426282894e+00
2.045874935148167761e+00
2.045874935148167761e+00
1.984748069704275641e+00
1.984748069704275641e+00
2.114877040925321250e+00
2.063500473036897098e+00
2.063500473036897098e+00
1.996560930204168693e+00
1.996560930204168693e+00
2.045874935148167761e+00
2.191941892757957699e+00
2.191941892757957699e+00
2.122189764091921838e+00
2.032749534592730889e+00
2.032749534592730889e+00
2.074000793481246330e+00
2.074000793481246330e+00
2.149003082369457029e+00
2.099689077425458628e+00
2.099689077425458628e+00
2.118064638203069894e+00
2.083563585314493150e+00
2.083563585314493150e+00
2.084126102481154597e+00
2.084126102481154597e+00
2.098751548814355772e+00
2.084501113925596005e+00
2.084501113925596005e+00
2.068938138981292418e+00
2.068938138981292418e+00
2.029936948759422766e+00
2.061625415814691387e+00
2.061625415814691387e+00
2.112439466536454535e+00
2.112439466536454535e+00
2.147690542313913653e+00
2.086751182592242237e+00
2.086751182592242237e+00
2.005748710592974771e+00
1.986248115482039944e+00
1.986248115482039944e+00
1.932621478926969116e+00
1.932621478926969116e+00
1.924183721427045635e+00
1.965434980315561520e+00
1.965434980315561520e+00
2.032374523148289480e+00
2.032374523148289480e+00
2.111876949369793088e+00
2.200567155980101663e+00
2.200567155980101663e+00
2.188004272591326682e+00
2.188004272591326682e+00
2.056750267036957958e+00
2.112814477980895500e+00
2.112814477980895500e+00
2.094438917203283790e+00
2.089001251258888470e+00
2.089001251258888470e+00
1.972747703482162107e+00
1.972747703482162107e+00
2.030686971648304695e+00
2.063125461592455689e+00
2.063125461592455689e+00
2.097814020203253360e+00
2.097814020203253360e+00
2.063500473036897098e+00
1.942184270760216158e+00
1.942184270760216158e+00
1.954372142704550397e+00
1.954372142704550397e+00
2.132315073091830104e+00
2.161565965758232455e+00
2.161565965758232455e+00
2.125377361369670925e+00
2.064813013092440475e+00
2.064813013092440475e+00
2.109251869258705447e+00
2.109251869258705447e+00
2.197942075869014911e+00
2.123127292703024249e+00
2.123127292703024249e+00
1.965622486037782002e+00
1.965622486037782002e+00
2.033312051759392336e+00
2.143940427869502674e+00
2.143940427869502674e+00
2.168316171758171151e+00
2.168316171758171151e+00
1.990935758537552891e+00
2.019811639759514499e+00
2.019811639759514499e+00
1.933371501815851268e+00
2.059187841425824672e+00
2.059187841425824672e+00
2.054687704092532208e+00
2.054687704092532208e+00
2.042499832148198191e+00
2.058812829981383707e+00
2.058812829981383707e+00
2.145815485091708386e+00
2.145815485091708386e+00
2.096876491592150504e+00
2.136065187536240639e+00
2.136065187536240639e+00
2.181066560869167059e+00
2.181066560869167059e+00
2.000123538926358524e+00
2.089938779869991325e+00
2.089938779869991325e+00
2.038562211981566730e+00
2.038562211981566730e+00
2.056750267036957958e+00
2.092001342814417075e+00
2.092001342814417075e+00
2.052625141148106458e+00
2.013436445204016323e+00
2.013436445204016323e+00
2.014748985259559699e+00
2.014748985259559699e+00
1.929621387371440955e+00
2.014373973815118735e+00
2.014373973815118735e+00
2.077563402203436382e+00
2.077563402203436382e+00
2.085438642536698417e+00
2.054125186925870761e+00
2.054125186925870761e+00
2.031624500259407551e+00
2.079063447981200685e+00
2.079063447981200685e+00
2.101939146092104860e+00
2.101939146092104860e+00
2.065375530259102366e+00
1.991123264259773595e+00
1.991123264259773595e+00
1.965997497482223189e+00
1.965997497482223189e+00
2.043249855037080120e+00
2.080750999481185470e+00
2.080750999481185470e+00
2.215380108035523765e+00
2.215380108035523765e+00
2.221942808313242423e+00
2.091438825647755628e+00
2.091438825647755628e+00
2.042124820703756782e+00
2.042124820703756782e+00
2.182191595202490397e+00
2.181066560869167059e+00
2.181066560869167059e+00
2.016624042481765411e+00
1.873182164983062226e+00
1.873182164983062226e+00
1.925496261482589233e+00
1.925496261482589233e+00
2.055812738425855546e+00
2.137190221869563977e+00
2.137190221869563977e+00
2.214067567979979945e+00
2.214067567979979945e+00
2.167003631702627775e+00
1.995248390148625317e+00
1.995248390148625317e+00
1.971997680593279956e+00
1.969935117648853984e+00
1.969935117648853984e+00
1.908433240760521121e+00
1.908433240760521121e+00
1.912370860927152361e+00
2.118627155369731785e+00
2.118627155369731785e+00
2.263194067201757864e+00
2.263194067201757864e+00
2.235255714590899334e+00
2.001248573259681862e+00
2.001248573259681862e+00
1.920058595538193913e+00
1.920058595538193913e+00
2.231318094424268317e+00
2.262069032868434526e+00
2.262069032868434526e+00
1.968622577593310385e+00
1.856306649983214818e+00
1.856306649983214818e+00
2.130065004425183872e+00
2.130065004425183872e+00
2.148065553758354618e+00
2.087876216925565576e+00
2.087876216925565576e+00
2.074563310647907777e+00
2.074563310647907777e+00
2.119377178258613714e+00
2.094438917203283790e+00
2.094438917203283790e+00
2.086376171147801273e+00
1.933934018982512937e+00
1.933934018982512937e+00
1.787679555650502072e+00
1.787679555650502072e+00
2.056000244148076028e+00
2.101939146092104860e+00
2.101939146092104860e+00
2.171316263313699757e+00
2.171316263313699757e+00
1.938434156315805401e+00
1.989623218482009515e+00
1.989623218482009515e+00
2.014748985259559699e+00
2.014748985259559699e+00
2.027499374370555607e+00
2.094438917203283790e+00
2.094438917203283790e+00
2.137752739036225869e+00
2.120689718314157535e+00
2.120689718314157535e+00
2.168878688924833043e+00
2.168878688924833043e+00
2.248943632312997654e+00
2.310070497756889552e+00
2.310070497756889552e+00
2.294507522812585520e+00
2.294507522812585520e+00
2.060875392925809457e+00
1.906745689260536558e+00
1.906745689260536558e+00
1.836431043427839027e+00
1.836431043427839027e+00
1.773054109317301119e+00
1.853869075594348104e+00
1.853869075594348104e+00
2.067625598925748598e+00
2.122189764091921838e+00
2.122189764091921838e+00
2.145627979369487459e+00
2.145627979369487459e+00
2.076625873592333971e+00
2.037249671926022909e+00
2.037249671926022909e+00
2.177128940702536042e+00
2.177128940702536042e+00
2.231693105868709726e+00
2.314945646534623425e+00
2.314945646534623425e+00
2.194941984313486305e+00
2.194941984313486305e+00
1.999373516037476817e+00
1.797617358928189857e+00
1.797617358928189857e+00
1.790492141483809974e+00
1.965434980315561520e+00
1.965434980315561520e+00
2.040062257759331033e+00
2.040062257759331033e+00
2.080000976592303541e+00
2.121252235480818982e+00
2.121252235480818982e+00
2.229818048646504014e+00
2.229818048646504014e+00
2.224192876979888212e+00
2.101751640369884377e+00
2.101751640369884377e+00
2.081876033814508364e+00
2.136252693258461566e+00
2.136252693258461566e+00
2.161753471480452937e+00
2.161753471480452937e+00
2.142065370647297406e+00
2.029374431592760875e+00
2.029374431592760875e+00
1.897370403149510221e+00
1.694489211706900367e+00
1.694489211706900367e+00
1.770054017761772513e+00
1.770054017761772513e+00
2.084313608203375079e+00
2.248756126590777171e+00
2.248756126590777171e+00
2.247443586535233351e+00
2.247443586535233351e+00
2.118439649647511303e+00
1.900558000427259309e+00
1.900558000427259309e+00
1.879557359538560180e+00
1.967122531815546083e+00
1.967122531815546083e+00
2.030124454481643248e+00
2.030124454481643248e+00
2.139065279091769245e+00
2.191754387035737217e+00
2.191754387035737217e+00
2.044187383648182976e+00
2.044187383648182976e+00
2.024686788537247928e+00
1.908058229316080379e+00
1.908058229316080379e+00
2.149753105258339403e+00
2.310070497756889552e+00
2.310070497756889552e+00
2.323945921201208797e+00
2.323945921201208797e+00
2.277069490646077110e+00
2.240505874813074172e+00
2.240505874813074172e+00
2.026561845759453195e+00
2.026561845759453195e+00
1.605423993652149939e+00
2.042312326425977265e+00
2.042312326425977265e+00
2.222692831202123909e+00
2.222692831202123909e+00
2.157628345591601438e+00
2.224192876979888212e+00
2.224192876979888212e+00
1.830993377483443707e+00
2.046437452314828764e+00
2.046437452314828764e+00
2.116752098147526517e+00
2.116752098147526517e+00
2.144127933591723156e+00
2.084126102481154597e+00
2.084126102481154597e+00
2.173003814813684542e+00
2.173003814813684542e+00
1.611424176763206928e+00
1.743803216650898991e+00
1.743803216650898991e+00
2.160815942869350526e+00
2.160815942869350526e+00
2.210692464980010374e+00
2.080563493758964988e+00
2.080563493758964988e+00
1.990373241370891666e+00
2.049437543870357370e+00
2.049437543870357370e+00
2.035749626148258606e+00
2.035749626148258606e+00
1.966372508926664153e+00
2.125002349925229961e+00
2.125002349925229961e+00
2.164191045869319652e+00
2.164191045869319652e+00
2.126689901425214746e+00
2.113752006591998356e+00
2.113752006591998356e+00
2.023936765648365554e+00
2.023936765648365554e+00
2.166253608813745402e+00
2.272194341868343237e+00
2.272194341868343237e+00
1.771179052095095630e+00
1.771179052095095630e+00
1.925683767204809937e+00
1.952122074037903943e+00
1.952122074037903943e+00
2.296945097201452679e+00
2.214817590868861874e+00
2.214817590868861874e+00
2.242943449201941331e+00
2.242943449201941331e+00
2.169066194647053525e+00
2.032562028870509963e+00
2.032562028870509963e+00
2.364259651478621826e+00
2.364259651478621826e+00
2.025249305703909375e+00
1.658863124485000284e+00
1.658863124485000284e+00
1.667675893429364953e+00
1.667675893429364953e+00
1.902245551927244094e+00
1.979685415204321286e+00
1.979685415204321286e+00
2.009123813592944341e+00
2.009123813592944341e+00
2.112626972258675018e+00
2.034812097537156195e+00
2.034812097537156195e+00
2.200379650257881181e+00
2.128377452925199087e+00
2.128377452925199087e+00
2.159315897091586223e+00
2.159315897091586223e+00
2.149003082369457029e+00
2.187629261146885273e+00
2.187629261146885273e+00
2.283819696646015807e+00
2.283819696646015807e+00
2.107751823480941145e+00
2.006123722037415735e+00
2.006123722037415735e+00
2.001061067537461380e+00
2.001061067537461380e+00
2.038562211981566730e+00
2.105126743369853504e+00
2.006498733481856700e+00
2.006498733481856700e+00
1.818055482650227317e+00
1.746428296761986187e+00
1.746428296761986187e+00
1.915558458204901227e+00
1.915558458204901227e+00
1.838493606372264777e+00
2.175816400646992221e+00
2.175816400646992221e+00
2.167941160313730187e+00
2.167941160313730187e+00
2.239380840479750834e+00
2.193066927091281038e+00
2.193066927091281038e+00
2.198692098757896396e+00
2.198692098757896396e+00
2.495701162755211033e+00
2.153315713980529011e+00
2.153315713980529011e+00
1.934309030426953901e+00
1.979122898037659839e+00
1.979122898037659839e+00
2.059375347148045154e+00
2.059375347148045154e+00
1.798554887539292491e+00
1.739115573595385600e+00
1.739115573595385600e+00
2.113189489425336465e+00
2.113189489425336465e+00
2.289257362590411127e+00
1.970310129093295171e+00
1.970310129093295171e+00
2.053187658314767905e+00
2.244818506424146598e+00
2.244818506424146598e+00
2.092001342814417075e+00
2.092001342814417075e+00
1.760116214484084729e+00
1.784304452650532724e+00
1.784304452650532724e+00
1.933746513260292454e+00
1.933746513260292454e+00
2.256256355479598685e+00
2.158003357036042402e+00
2.158003357036042402e+00
2.252318735312967224e+00
2.252318735312967224e+00
2.268256721701712220e+00
2.015499008148442073e+00
2.015499008148442073e+00
1.751865962706381508e+00
1.547109714041566164e+00
1.547109714041566164e+00
2.260381481368449741e+00
2.260381481368449741e+00
2.605016998809778439e+00
2.089376262703329878e+00
1.783366924039430090e+00
1.783366924039430090e+00
2.021311685537278358e+00
2.021311685537278358e+00
2.193066927091281038e+00
2.303320291756950855e+00
2.303320291756950855e+00
2.285882259590441556e+00
2.285882259590441556e+00
2.101564134647663895e+00
1.990185735648670962e+00
1.990185735648670962e+00
2.110564409314249268e+00
1.757116122928556123e+00
1.757116122928556123e+00
1.882369945371868081e+00
1.882369945371868081e+00
2.024499282815027001e+00
1.916308481093783378e+00
1.916308481093783378e+00
2.181441572313608468e+00
2.181441572313608468e+00
2.405135898922696747e+00
2.334446241645558029e+00
2.334446241645558029e+00
2.056000244148076028e+00
2.148440565202795582e+00
2.148440565202795582e+00
1.894182805871761355e+00
1.894182805871761355e+00
1.818242988372448021e+00
2.071750724814600098e+00
2.071750724814600098e+00
2.062937955870235207e+00
2.062937955870235207e+00
1.914808435316019075e+00
2.143752922147282192e+00
2.143752922147282192e+00
2.161003448591571008e+00
2.161003448591571008e+00
2.059937864314706601e+00
2.108126834925382109e+00
2.108126834925382109e+00
1.873557176427503190e+00
1.765553880428480049e+00
1.765553880428480049e+00
2.186316721091342341e+00
2.186316721091342341e+00
2.181254066591387542e+00
2.064438001647999510e+00
2.064438001647999510e+00
2.262631550035096417e+00
2.073250770592364400e+00
2.073250770592364400e+00
2.150690633869442259e+00
2.150690633869442259e+00
2.112814477980895500e+00
1.807742667928098568e+00
1.807742667928098568e+00
2.189504318369090985e+00
2.189504318369090985e+00
1.918558549760429832e+00
1.734802941984313396e+00
1.734802941984313396e+00
2.003873653370769503e+00
2.222505325479903426e+00
2.222505325479903426e+00
2.137565233314004942e+00
2.137565233314004942e+00
2.391822992645039392e+00
2.602766930143131763e+00
2.602766930143131763e+00
2.299007660145878429e+00
2.299007660145878429e+00
1.945371868037965024e+00
1.882744956816309267e+00
1.882744956816309267e+00
1.954559648426770879e+00
1.954559648426770879e+00
1.764803857539597898e+00
1.832680928983428492e+00
1.832680928983428492e+00
2.103439191869869163e+00
2.088251228370006540e+00
2.088251228370006540e+00
2.057687795648060813e+00
2.057687795648060813e+00
2.144127933591723156e+00
1.896995391705069034e+00
1.896995391705069034e+00
1.850118961149937347e+00
1.850118961149937347e+00
2.201504684591204519e+00
2.286632282479323930e+00
2.286632282479323930e+00
2.110376903592028786e+00
2.110376903592028786e+00
2.024124271370586037e+00
1.971622669148838769e+00
1.971622669148838769e+00
2.030124454481643248e+00
1.972560197759941625e+00
1.972560197759941625e+00
1.834368480483413277e+00
1.834368480483413277e+00
1.739115573595385600e+00
1.997310953093050845e+00
1.997310953093050845e+00
2.289069856868190644e+00
2.316445692312387283e+00
2.316445692312387283e+00
2.292069948423719250e+00
1.874682210760826528e+00
1.874682210760826528e+00
2.155565782647175688e+00
2.155565782647175688e+00
2.290757408368175430e+00
2.169066194647053525e+00
2.169066194647053525e+00
1.676676168095950326e+00
1.676676168095950326e+00
1.718677449873348362e+00
2.021124179815057875e+00
2.021124179815057875e+00
2.471512924588763038e+00
2.471512924588763038e+00
2.275381939146092325e+00
2.025811822870570822e+00
2.025811822870570822e+00
2.257756401257362544e+00
2.257756401257362544e+00
2.218567705313272853e+00
2.064062990203558545e+00
2.064062990203558545e+00
2.179566515091402756e+00
2.271819330423901828e+00
2.271819330423901828e+00
2.017186559648426858e+00
2.017186559648426858e+00
1.823680654316843119e+00
1.765178868984038862e+00
1.765178868984038862e+00
1.845993835261085847e+00
1.845993835261085847e+00
2.047749992370372585e+00
1.995998413037507468e+00
1.995998413037507468e+00
2.198879604480116878e+00
2.198879604480116878e+00
2.185191686758019003e+00
2.250443678090761956e+00
2.250443678090761956e+00
1.909558275093844459e+00
1.909558275093844459e+00
1.774554155095065200e+00
1.984560563982054937e+00
1.984560563982054937e+00
2.160253425702688634e+00
1.992248298593096711e+00
1.992248298593096711e+00
2.098751548814355772e+00
2.098751548814355772e+00
2.048875026703695923e+00
2.070625690481276759e+00
2.070625690481276759e+00
2.079250953703421168e+00
2.079250953703421168e+00
2.050750083925901190e+00
2.056750267036957958e+00
2.056750267036957958e+00
2.087688711203345093e+00
2.087688711203345093e+00
2.038562211981566730e+00
2.060875392925809457e+00
2.060875392925809457e+00
1.973310220648823554e+00
2.152003173924985191e+00
2.152003173924985191e+00
2.127064912869655711e+00
2.127064912869655711e+00
2.318320749534592551e+00
2.154440748313852350e+00
2.154440748313852350e+00
1.973122714926602850e+00
1.973122714926602850e+00
2.017936582537308787e+00
1.993560838648640532e+00
1.993560838648640532e+00
1.908058229316080379e+00
1.908058229316080379e+00
2.085813653981139382e+00
2.217817682424390480e+00
2.217817682424390480e+00
2.223817865535447247e+00
2.017186559648426858e+00
2.017186559648426858e+00
2.007811273537400520e+00
2.007811273537400520e+00
2.118439649647511303e+00
2.069125644703512901e+00
2.069125644703512901e+00
1.938996673482467070e+00
1.938996673482467070e+00
1.780366832483901485e+00
2.036124637592700015e+00
2.036124637592700015e+00
2.184816675313578038e+00
2.184816675313578038e+00
2.206942350535599839e+00
2.167566148869289222e+00
2.167566148869289222e+00
2.078875942258980203e+00
2.006873744926298109e+00
2.006873744926298109e+00
1.999936033204138486e+00
1.999936033204138486e+00
1.984935575426496124e+00
1.911058320871608762e+00
1.911058320871608762e+00
2.135502670369579192e+00
2.135502670369579192e+00
2.223067842646564873e+00
2.094438917203283790e+00
2.094438917203283790e+00
2.043249855037080120e+00
2.074000793481246330e+00
2.074000793481246330e+00
2.028249397259437981e+00
2.028249397259437981e+00
2.066875576036866669e+00
2.057875301370280852e+00
2.057875301370280852e+00
2.185941709646900932e+00
2.185941709646900932e+00
2.119564683980834197e+00
1.888370128482924848e+00
1.888370128482924848e+00
1.941809259315775193e+00
1.941809259315775193e+00
2.017749076815088305e+00
1.991498275704214560e+00
1.991498275704214560e+00
2.069500656147953865e+00
2.045687429425947279e+00
2.045687429425947279e+00
2.061625415814691387e+00
2.061625415814691387e+00
2.097626514481032878e+00
2.082251045258949329e+00
2.082251045258949329e+00
2.055250221259193655e+00
2.102689168980987233e+00
2.102689168980987233e+00
2.260381481368449741e+00
2.260381481368449741e+00
2.043812372203741567e+00
2.056562761314737475e+00
2.056562761314737475e+00
2.052625141148106458e+00
2.052625141148106458e+00
2.181254066591387542e+00
2.059187841425824672e+00
2.059187841425824672e+00
1.956622211371196629e+00
1.956622211371196629e+00
1.965809991760002484e+00
2.124064821314127105e+00
2.124064821314127105e+00
2.097814020203253360e+00
1.905433149204992960e+00
1.905433149204992960e+00
2.165128574480422063e+00
2.165128574480422063e+00
2.276506973479415219e+00
2.198879604480116878e+00
2.198879604480116878e+00
1.994498367259743166e+00
1.994498367259743166e+00
2.043249855037080120e+00
1.931496444593646222e+00
1.931496444593646222e+00
1.939371684926908257e+00
2.093876400036621899e+00
2.093876400036621899e+00
2.010623859370708644e+00
2.010623859370708644e+00
1.824243171483504788e+00
2.030124454481643248e+00
2.030124454481643248e+00
2.089001251258888470e+00
2.089001251258888470e+00
2.013998962370677770e+00
2.089938779869991325e+00
2.089938779869991325e+00
2.271631824701681346e+00
2.271631824701681346e+00
2.155190771202734279e+00
2.143565416425061709e+00
2.143565416425061709e+00
2.055250221259193655e+00
2.078125919370098273e+00
2.078125919370098273e+00
1.983248023926511561e+00
1.983248023926511561e+00
1.992060792870876229e+00
2.128939970091860534e+00
2.128939970091860534e+00
1.991873287148655747e+00
1.991873287148655747e+00
2.120689718314157535e+00
2.077563402203436382e+00
2.077563402203436382e+00
1.980435438093203437e+00
1.980435438093203437e+00
2.099126560258797181e+00
1.786742027039399439e+00
1.786742027039399439e+00
1.799117404705954160e+00
2.290007385479293500e+00
2.290007385479293500e+00
2.304820337534714714e+00
2.304820337534714714e+00
2.131002533036286284e+00
1.960559831537827868e+00
1.960559831537827868e+00
2.015686513870662555e+00
2.015686513870662555e+00
2.066688070314646186e+00
2.105314249092073986e+00
2.105314249092073986e+00
1.836431043427839027e+00
1.836431043427839027e+00
2.014936490981780626e+00
2.269944273201696561e+00
2.269944273201696561e+00
2.369884823145237629e+00
2.177878963591417971e+00
2.177878963591417971e+00
2.011373882259590129e+00
2.011373882259590129e+00
2.069313150425733383e+00
1.984935575426496124e+00
1.984935575426496124e+00
1.956622211371196629e+00
1.956622211371196629e+00
1.934496536149174606e+00
1.994873378704184130e+00
2.058062807092501334e+00
2.058062807092501334e+00
1.935246559038056535e+00
1.974997772148808339e+00
1.974997772148808339e+00
2.248756126590777171e+00
2.248756126590777171e+00
2.120877224036378017e+00
2.038374706259346247e+00
2.038374706259346247e+00
1.995998413037507468e+00
1.995998413037507468e+00
2.101939146092104860e+00
2.132502578814050587e+00
