2.039687246314890068e+00
2.056750267036957958e+00
2.083938596758934114e+00
2.083938596758934114e+00
2.058437818536942299e+00
2.048687520981474997e+00
2.048687520981474997e+00
2.047562486648152102e+00
2.047562486648152102e+00
2.058625324259163225e+00
2.058062807092501334e+00
2.058062807092501334e+00
2.075313333536790150e+00
2.075313333536790150e+00
2.051875118259224084e+00
2.016999053926206376e+00
2.016999053926206376e+00
2.024124271370586037e+00
2.035749626148258606e+00
2.035749626148258606e+00
2.046812463759269729e+00
2.046812463759269729e+00
2.056750267036957958e+00
2.083188573870052185e+00
2.083188573870052185e+00
2.089938779869991325e+00
2.089938779869991325e+00
2.086376171147801273e+00
2.054312692648091243e+00
2.054312692648091243e+00
2.060875392925809457e+00
2.060875392925809457e+00
2.037812189092684800e+00
2.061437910092470904e+00
2.061437910092470904e+00
2.090876308481094181e+00
2.046624958037049247e+00
2.022624225592822178e+00
2.054687704092532208e+00
2.063125461592455689e+00
2.063125461592455689e+00
2.059937864314706601e+00
2.075875850703451597e+00
2.075875850703451597e+00
2.044749900814844423e+00
2.044749900814844423e+00
2.033312051759392336e+00
2.049812555314798335e+00
2.049812555314798335e+00
2.074563310647907777e+00
2.074563310647907777e+00
2.047374980925931620e+00
2.025249305703909375e+00
2.025249305703909375e+00
2.035374614703817642e+00
2.035374614703817642e+00
2.040624774925992480e+00
2.043437360759300603e+00
2.043437360759300603e+00
2.043062349314859638e+00
2.049437543870357370e+00
2.049437543870357370e+00
2.091438825647755628e+00
2.091438825647755628e+00
2.073063264870143918e+00
2.053750175481429796e+00
2.053750175481429796e+00
2.059375347148045154e+00
2.059375347148045154e+00
2.070438184759056277e+00
2.039124729148228621e+00
2.039124729148228621e+00
2.052062623981445011e+00
2.076063356425672080e+00
2.076063356425672080e+00
2.081126010925626435e+00
2.081126010925626435e+00
2.075500839259010633e+00
2.045874935148167761e+00
2.045874935148167761e+00
2.036499649037140980e+00
2.036499649037140980e+00
2.038374706259346247e+00
2.031999511703848516e+00
2.031999511703848516e+00
2.054687704092532208e+00
2.092376354258858040e+00
2.092376354258858040e+00
1.934496536149174606e+00
1.934496536149174606e+00
2.074938322092349186e+00
2.066688070314646186e+00
2.066688070314646186e+00
2.084688619647816488e+00
2.084688619647816488e+00
2.078688436536759720e+00
2.080000976592303541e+00
2.080000976592303541e+00
2.080375988036744506e+00
2.085063631092257452e+00
2.085063631092257452e+00
2.070063173314615312e+00
2.070063173314615312e+00
2.040812280648213406e+00
2.024499282815027001e+00
2.024499282815027001e+00
2.072875759147922992e+00
2.072875759147922992e+00
2.076250862147892562e+00
2.052250129703665493e+00
2.052250129703665493e+00
2.049625049592577852e+00
2.036124637592700015e+00
2.036124637592700015e+00
2.047749992370372585e+00
2.047749992370372585e+00
2.043624866481521085e+00
2.034062074648274265e+00
2.034062074648274265e+00
2.056750267036957958e+00
2.056750267036957958e+00
2.060875392925809457e+00
2.066125553147984295e+00
2.066125553147984295e+00
2.069875667592394830e+00
2.069875667592394830e+00
2.059375347148045154e+00
2.074188299203466812e+00
2.074188299203466812e+00
2.058250312814721816e+00
2.058250312814721816e+00
2.044562395092623941e+00
2.066313058870204777e+00
2.066313058870204777e+00
2.028061891537217498e+00
2.055250221259193655e+00
2.055250221259193655e+00
2.071563219092379615e+00
2.071563219092379615e+00
2.055437726981414581e+00
2.086001159703360308e+00
2.086001159703360308e+00
2.071563219092379615e+00
2.071563219092379615e+00
2.060500381481368493e+00
2.077563402203436382e+00
2.077563402203436382e+00
2.070063173314615312e+00
2.070063173314615312e+00
2.031812005981628033e+00
2.020374156926175946e+00
2.020374156926175946e+00
2.069688161870173904e+00
2.069688161870173904e+00
2.066125553147984295e+00
2.032562028870509963e+00
2.032562028870509963e+00
2.027311868648335125e+00
2.033124546037171854e+00
2.033124546037171854e+00
2.056937772759178884e+00
2.056937772759178884e+00
2.065750541703543330e+00
2.069500656147953865e+00
2.069500656147953865e+00
2.047187475203710694e+00
2.047187475203710694e+00
2.042874843592639156e+00
2.053187658314767905e+00
2.053187658314767905e+00
2.042499832148198191e+00
2.042499832148198191e+00
2.070625690481276759e+00
2.104564226203192501e+00
2.104564226203192501e+00
2.098376537369914807e+00
2.098376537369914807e+00
2.064813013092440475e+00
2.048687520981474997e+00
2.048687520981474997e+00
2.052250129703665493e+00
2.039874752037110550e+00
2.039874752037110550e+00
2.068375621814630971e+00
2.068375621814630971e+00
2.066875576036866669e+00
2.072500747703482027e+00
2.072500747703482027e+00
2.055437726981414581e+00
2.055437726981414581e+00
2.014561479537339217e+00
2.026374340037232713e+00
2.026374340037232713e+00
2.100064088869899592e+00
2.100064088869899592e+00
2.057312784203619849e+00
2.043999877925962494e+00
2.043999877925962494e+00
2.104001709036531054e+00
2.116564592425305591e+00
2.116564592425305591e+00
2.083376079592272667e+00
2.083376079592272667e+00
2.061812921536912313e+00
2.015686513870662555e+00
2.015686513870662555e+00
2.008748802148503376e+00
2.008748802148503376e+00
2.027686880092776089e+00
2.050375072481459782e+00
2.050375072481459782e+00
2.088438734092227023e+00
2.058250312814721816e+00
2.058250312814721816e+00
2.022811731315042216e+00
2.022811731315042216e+00
2.021124179815057875e+00
2.022811731315042216e+00
2.022811731315042216e+00
2.027124362926114642e+00
2.027124362926114642e+00
2.065750541703543330e+00
2.108126834925382109e+00
2.108126834925382109e+00
2.105689260536515395e+00
2.105689260536515395e+00
2.111314432203131197e+00
2.088251228370006540e+00
2.088251228370006540e+00
2.058062807092501334e+00
2.058062807092501334e+00
2.034999603259376677e+00
2.031249488814966586e+00
2.031249488814966586e+00
2.055250221259193655e+00
2.028436902981658463e+00
2.028436902981658463e+00
2.006873744926298109e+00
2.006873744926298109e+00
2.014936490981780626e+00
2.016249031037324002e+00
2.016249031037324002e+00
2.034624591814935712e+00
2.034624591814935712e+00
2.089938779869991325e+00
2.123127292703024249e+00
2.123127292703024249e+00
2.135690176091799675e+00
2.099689077425458628e+00
2.099689077425458628e+00
2.062750450148014725e+00
2.062750450148014725e+00
2.041937314981536300e+00
2.042124820703756782e+00
2.042124820703756782e+00
2.059187841425824672e+00
2.059187841425824672e+00
2.022061708426160731e+00
2.050375072481459782e+00
2.050375072481459782e+00
2.021686696981719766e+00
2.021686696981719766e+00
2.031249488814966586e+00
2.054125186925870761e+00
2.054125186925870761e+00
2.062375438703573760e+00
2.062375438703573760e+00
2.042874843592639156e+00
2.041187292092654371e+00
2.041187292092654371e+00
2.100064088869899592e+00
2.100064088869899592e+00
2.039499740592669585e+00
2.012498916592913467e+00
2.012498916592913467e+00
2.017374065370647340e+00
2.042124820703756782e+00
2.042124820703756782e+00
2.066500564592425260e+00
2.066500564592425260e+00
2.126127384258552855e+00
2.108314340647602592e+00
2.108314340647602592e+00
2.062750450148014725e+00
2.062750450148014725e+00
2.048500015259254514e+00
2.027499374370555607e+00
2.027499374370555607e+00
2.052437635425885976e+00
2.052437635425885976e+00
2.073063264870143918e+00
2.040249763481551515e+00
2.040249763481551515e+00
2.066688070314646186e+00
2.066688070314646186e+00
2.097251503036591469e+00
2.083751091036713632e+00
2.083751091036713632e+00
2.073250770592364400e+00
2.073250770592364400e+00
2.105501754814294912e+00
2.109251869258705447e+00
2.109251869258705447e+00
2.044937406537064906e+00
2.012498916592913467e+00
2.012498916592913467e+00
2.043812372203741567e+00
2.043812372203741567e+00
2.031436994537187068e+00
2.033312051759392336e+00
2.033312051759392336e+00
2.021124179815057875e+00
2.021124179815057875e+00
2.022999237037263143e+00
2.055625232703635064e+00
2.055625232703635064e+00
2.068375621814630971e+00
2.068375621814630971e+00
2.113376995147556947e+00
2.126689901425214746e+00
2.126689901425214746e+00
2.096876491592150504e+00
2.096876491592150504e+00
2.048875026703695923e+00
2.028811914426099428e+00
2.028811914426099428e+00
2.036124637592700015e+00
2.036124637592700015e+00
2.068000610370189563e+00
2.084126102481154597e+00
2.084126102481154597e+00
2.098751548814355772e+00
2.083188573870052185e+00
2.083188573870052185e+00
2.104751731925412539e+00
2.104751731925412539e+00
2.087501205481124167e+00
2.086563676870021755e+00
2.086563676870021755e+00
2.040249763481551515e+00
2.040249763481551515e+00
1.992060792870876229e+00
2.000873561815240897e+00
2.000873561815240897e+00
2.004998687704092397e+00
2.004998687704092397e+00
2.026186834315011787e+00
2.047937498092593067e+00
2.047937498092593067e+00
2.076250862147892562e+00
2.093688894314401416e+00
2.093688894314401416e+00
2.095751457258827610e+00
2.095751457258827610e+00
2.134752647480697263e+00
2.112626972258675018e+00
2.112626972258675018e+00
2.085251136814477935e+00
2.085251136814477935e+00
2.068000610370189563e+00
2.036124637592700015e+00
2.036124637592700015e+00
2.040062257759331033e+00
2.040062257759331033e+00
2.086938688314462720e+00
2.048687520981474997e+00
2.048687520981474997e+00
2.005186193426313324e+00
2.027311868648335125e+00
2.027311868648335125e+00
2.057312784203619849e+00
2.057312784203619849e+00
2.099876583147679110e+00
2.090876308481094181e+00
2.090876308481094181e+00
2.117877132480849411e+00
2.117877132480849411e+00
2.099126560258797181e+00
2.019061616870632125e+00
2.019061616870632125e+00
2.065750541703543330e+00
2.065750541703543330e+00
2.041187292092654371e+00
1.968247566148869199e+00
1.968247566148869199e+00
1.976685323648793124e+00
1.976685323648793124e+00
2.033874568926053783e+00
2.073438276314584883e+00
2.073438276314584883e+00
2.076438367870113488e+00
2.080375988036744506e+00
2.080375988036744506e+00
2.051500106814783120e+00
2.051500106814783120e+00
2.049437543870357370e+00
2.023749259926145072e+00
2.023749259926145072e+00
2.161940977202673420e+00
2.161940977202673420e+00
2.129502487258521981e+00
2.054125186925870761e+00
2.054125186925870761e+00
2.108876857814264483e+00
2.122189764091921838e+00
2.122189764091921838e+00
2.126502395702994264e+00
2.126502395702994264e+00
2.158378368480483367e+00
2.056187749870296511e+00
2.056187749870296511e+00
1.920433606982634878e+00
1.971810174871059473e+00
1.971810174871059473e+00
2.078125919370098273e+00
2.078125919370098273e+00
2.076438367870113488e+00
2.113376995147556947e+00
2.113376995147556947e+00
2.048687520981474997e+00
2.048687520981474997e+00
2.045874935148167761e+00
2.124439832758568070e+00
2.124439832758568070e+00
2.096126468703268575e+00
2.096126468703268575e+00
2.035187108981597159e+00
2.018686605426191161e+00
2.018686605426191161e+00
2.022436719870601696e+00
2.022436719870601696e+00
2.026374340037232713e+00
2.073063264870143918e+00
2.073063264870143918e+00
2.016436536759544484e+00
2.016436536759544484e+00
2.070625690481276759e+00
2.099314065981017663e+00
2.099314065981017663e+00
2.119939695425275605e+00
2.104751731925412539e+00
2.104751731925412539e+00
2.090876308481094181e+00
2.090876308481094181e+00
2.116189580980865070e+00
2.097626514481032878e+00
2.097626514481032878e+00
2.028061891537217498e+00
2.028061891537217498e+00
1.980810449537644624e+00
2.050375072481459782e+00
2.050375072481459782e+00
2.086001159703360308e+00
2.086001159703360308e+00
2.028436902981658463e+00
1.984373058259834677e+00
1.984373058259834677e+00
2.067063081759087151e+00
2.067063081759087151e+00
2.089001251258888470e+00
2.055062715536973172e+00
2.055062715536973172e+00
1.992248298593096711e+00
1.989435712759789032e+00
1.989435712759789032e+00
2.012311410870692985e+00
2.012311410870692985e+00
2.071188207647938206e+00
2.116752098147526517e+00
2.116752098147526517e+00
2.096501480147709540e+00
2.096501480147709540e+00
1.993373332926419828e+00
2.035562120426038124e+00
2.035562120426038124e+00
2.122002258369701355e+00
2.122002258369701355e+00
2.154065736869411385e+00
2.059750358592486119e+00
2.059750358592486119e+00
2.015123996704001108e+00
2.017374065370647340e+00
2.017374065370647340e+00
2.032749534592730889e+00
2.032749534592730889e+00
2.057125278481399366e+00
2.095001434369945237e+00
2.095001434369945237e+00
2.059375347148045154e+00
2.059375347148045154e+00
2.116564592425305591e+00
2.080000976592303541e+00
2.080000976592303541e+00
2.107564317758720662e+00
2.107564317758720662e+00
2.134940153202917745e+00
2.169628711813714972e+00
2.169628711813714972e+00
2.090688802758873255e+00
2.090688802758873255e+00
2.029186925870540392e+00
2.064250495925779028e+00
2.064250495925779028e+00
2.058625324259163225e+00
1.977247840815454571e+00
1.977247840815454571e+00
2.003311136204107612e+00
2.003311136204107612e+00
2.082626056703390294e+00
2.142252876369517889e+00
2.142252876369517889e+00
2.040812280648213406e+00
2.040812280648213406e+00
2.027311868648335125e+00
2.028624408703878945e+00
2.028624408703878945e+00
2.062562944425794242e+00
2.062562944425794242e+00
2.119189672536393232e+00
2.031249488814966586e+00
2.031249488814966586e+00
2.051687612537003602e+00
2.051687612537003602e+00
2.010436353648488161e+00
1.987373149815363060e+00
1.987373149815363060e+00
2.053000152592547423e+00
2.086001159703360308e+00
2.086001159703360308e+00
2.168316171758171151e+00
2.168316171758171151e+00
2.231505600146489243e+00
2.149378093813898438e+00
2.149378093813898438e+00
2.037999694814905283e+00
2.037999694814905283e+00
1.988685689870906881e+00
1.973685232093264519e+00
1.973685232093264519e+00
1.954559648426770879e+00
1.954559648426770879e+00
1.920246101260414395e+00
1.933183996093630785e+00
1.933183996093630785e+00
2.213317545091097571e+00
2.213317545091097571e+00
2.198504593035676358e+00
2.054500198370311725e+00
2.054500198370311725e+00
2.007623767815180038e+00
2.002936124759666647e+00
2.002936124759666647e+00
2.111876949369793088e+00
2.111876949369793088e+00
2.190441846980193397e+00
2.225880428479872997e+00
2.225880428479872997e+00
2.124627338480788552e+00
2.124627338480788552e+00
2.048687520981474997e+00
2.046812463759269729e+00
2.046812463759269729e+00
1.980810449537644624e+00
1.980810449537644624e+00
1.958684774315622379e+00
1.979685415204321286e+00
1.979685415204321286e+00
2.019249122592852608e+00
2.063312967314676172e+00
2.063312967314676172e+00
1.971247657704397804e+00
1.971247657704397804e+00
2.017749076815088305e+00
2.010248847926267679e+00
2.010248847926267679e+00
2.182754112369151844e+00
2.182754112369151844e+00
2.292257454145939732e+00
2.133065095980712478e+00
2.133065095980712478e+00
2.026374340037232713e+00
2.026374340037232713e+00
2.008561296426282894e+00
1.985873104037598758e+00
1.985873104037598758e+00
2.017561571092867823e+00
2.017561571092867823e+00
2.129877498702963390e+00
2.115064546647541732e+00
2.115064546647541732e+00
2.068750633259071936e+00
2.068750633259071936e+00
2.083563585314493150e+00
2.008748802148503376e+00
2.008748802148503376e+00
2.078500930814539238e+00
2.095751457258827610e+00
2.095751457258827610e+00
2.039687246314890068e+00
2.039687246314890068e+00
2.059562852870265637e+00
2.152753196813867564e+00
2.152753196813867564e+00
2.065188024536881883e+00
2.065188024536881883e+00
1.930558915982543589e+00
1.951934568315683460e+00
1.951934568315683460e+00
2.047374980925931620e+00
2.047374980925931620e+00
2.060125370036927084e+00
1.960934842982268833e+00
1.960934842982268833e+00
2.116752098147526517e+00
2.094438917203283790e+00
2.094438917203283790e+00
2.089563768425550361e+00
2.089563768425550361e+00
2.092751365703299449e+00
2.111126926480910715e+00
2.111126926480910715e+00
2.036312143314920498e+00
2.036312143314920498e+00
2.033124546037171854e+00
2.020749168370616911e+00
2.020749168370616911e+00
1.985310586870937088e+00
2.097814020203253360e+00
2.097814020203253360e+00
2.249131138035218136e+00
2.249131138035218136e+00
2.103439191869869163e+00
1.980810449537644624e+00
1.980810449537644624e+00
1.987748161259804025e+00
1.987748161259804025e+00
2.037812189092684800e+00
2.006873744926298109e+00
2.006873744926298109e+00
2.059187841425824672e+00
2.059187841425824672e+00
2.134002624591814889e+00
2.292819971312600735e+00
2.292819971312600735e+00
2.083376079592272667e+00
1.949121982482375781e+00
1.949121982482375781e+00
1.866619464705344011e+00
1.866619464705344011e+00
1.995810907315286764e+00
2.084876125370036970e+00
2.084876125370036970e+00
2.013998962370677770e+00
2.013998962370677770e+00
2.034812097537156195e+00
2.152565691091647082e+00
2.152565691091647082e+00
2.082813562425611220e+00
2.082813562425611220e+00
2.049250038148136888e+00
2.089938779869991325e+00
2.089938779869991325e+00
2.174316354869228363e+00
2.174316354869228363e+00
2.071375713370158689e+00
2.014373973815118735e+00
2.014373973815118735e+00
1.978560380870998392e+00
1.978560380870998392e+00
2.056375255592516993e+00
2.029749443037202283e+00
2.029749443037202283e+00
2.019249122592852608e+00
2.128564958647419569e+00
2.128564958647419569e+00
2.050937589648121673e+00
2.050937589648121673e+00
2.024874294259468410e+00
2.057500289925840331e+00
2.057500289925840331e+00
2.245568529313028083e+00
2.245568529313028083e+00
2.042312326425977265e+00
1.861931821649830621e+00
1.861931821649830621e+00
1.893995300149540650e+00
1.893995300149540650e+00
1.857431684316537934e+00
1.963747428815576734e+00
1.963747428815576734e+00
2.000498550370799933e+00
2.000498550370799933e+00
2.174691366313669327e+00
2.272381847590563719e+00
2.272381847590563719e+00
2.187441755424664791e+00
1.934121524704733419e+00
1.934121524704733419e+00
1.929058870204779286e+00
1.929058870204779286e+00
2.143002899258400262e+00
2.085438642536698417e+00
2.085438642536698417e+00
2.248006103701895242e+00
2.248006103701895242e+00
2.223442854091006282e+00
2.286444776757103448e+00
2.286444776757103448e+00
2.125752372814111890e+00
2.125752372814111890e+00
2.007248756370739073e+00
2.048875026703695923e+00
2.048875026703695923e+00
2.012873928037354432e+00
2.012873928037354432e+00
1.942559282204657345e+00
2.014748985259559699e+00
2.014748985259559699e+00
1.911808343760490692e+00
1.832868434705648975e+00
1.832868434705648975e+00
2.021874202703940249e+00
2.021874202703940249e+00
2.179941526535844165e+00
2.069875667592394830e+00
2.069875667592394830e+00
1.903745597705008175e+00
1.903745597705008175e+00
1.897557908871730703e+00
2.054875209814752690e+00
2.054875209814752690e+00
2.046249946592608282e+00
2.046249946592608282e+00
2.238818323313089387e+00
2.391447981200597983e+00
2.391447981200597983e+00
2.383572740867336393e+00
2.383572740867336393e+00
2.086563676870021755e+00
1.809805230872524096e+00
1.809805230872524096e+00
1.903370586260566988e+00
1.805492599261452114e+00
2.082813562425611220e+00
2.082813562425611220e+00
2.197754570146794428e+00
2.197754570146794428e+00
2.091813837092196593e+00
1.949121982482375781e+00
1.949121982482375781e+00
2.108876857814264483e+00
2.108876857814264483e+00
2.115814569536424106e+00
2.149378093813898438e+00
2.149378093813898438e+00
2.203004730368968822e+00
2.203004730368968822e+00
2.140565324869533104e+00
2.175066377758110736e+00
2.175066377758110736e+00
2.187816766869105756e+00
2.087688711203345093e+00
2.087688711203345093e+00
1.809430219428083131e+00
1.809430219428083131e+00
1.914620929593798593e+00
1.884245002594073348e+00
1.884245002594073348e+00
2.044562395092623941e+00
2.044562395092623941e+00
1.881994933927427116e+00
2.099126560258797181e+00
2.099126560258797181e+00
2.235068208868678852e+00
2.100439100314340557e+00
2.100439100314340557e+00
2.084876125370036970e+00
2.084876125370036970e+00
2.155753288369396170e+00
2.159315897091586223e+00
2.159315897091586223e+00
2.006498733481856700e+00
2.006498733481856700e+00
2.015686513870662555e+00
1.784866969817194171e+00
1.784866969817194171e+00
1.938809167760246588e+00
1.938809167760246588e+00
1.954559648426770879e+00
2.087126194036683202e+00
2.087126194036683202e+00
2.148065553758354618e+00
2.121252235480818982e+00
2.121252235480818982e+00
2.143752922147282192e+00
2.143752922147282192e+00
2.121439741203039464e+00
1.973122714926602850e+00
1.973122714926602850e+00
1.817117954039124683e+00
2.207129856257820322e+00
2.207129856257820322e+00
2.158003357036042402e+00
2.158003357036042402e+00
2.305007843256935196e+00
2.234880703146458369e+00
2.234880703146458369e+00
1.866619464705344011e+00
1.825930722983489574e+00
1.825930722983489574e+00
1.975560289315469786e+00
1.975560289315469786e+00
2.221005279702139568e+00
2.193066927091281038e+00
2.193066927091281038e+00
1.694489211706900367e+00
1.694489211706900367e+00
1.819743034150212324e+00
2.124439832758568070e+00
2.124439832758568070e+00
2.160253425702688634e+00
2.160253425702688634e+00
2.187066743980223826e+00
2.055062715536973172e+00
2.055062715536973172e+00
2.182004089480269915e+00
2.182004089480269915e+00
1.990373241370891666e+00
1.897932920316171668e+00
1.897932920316171668e+00
2.112064455092013571e+00
1.983248023926511561e+00
1.983248023926511561e+00
1.985498092593157793e+00
1.985498092593157793e+00
2.243880977813043742e+00
2.078500930814539238e+00
2.078500930814539238e+00
2.118439649647511303e+00
2.118439649647511303e+00
2.243505966368602778e+00
2.342133976256599581e+00
2.342133976256599581e+00
2.048312509537034032e+00
2.048312509537034032e+00
1.905058137760551773e+00
1.758428662984099944e+00
1.758428662984099944e+00
1.637112460707419226e+00
1.637112460707419226e+00
1.994498367259743166e+00
1.864181890316477075e+00
1.864181890316477075e+00
2.082813562425611220e+00
2.185004181035798521e+00
2.185004181035798521e+00
2.233380657368694511e+00
2.233380657368694511e+00
2.121627246925260390e+00
2.029561937314981801e+00
2.029561937314981801e+00
2.060312875759148010e+00
1.767241431928464834e+00
1.767241431928464834e+00
2.112439466536454535e+00
2.112439466536454535e+00
2.239005829035309869e+00
2.149378093813898438e+00
2.149378093813898438e+00
2.421636402478102745e+00
2.421636402478102745e+00
2.217442670979949515e+00
1.909370769371623755e+00
1.909370769371623755e+00
1.657550584429456464e+00
1.517671315652943553e+00
1.517671315652943553e+00
2.204317270424512643e+00
2.204317270424512643e+00
2.165128574480422063e+00
2.246693563646351421e+00
2.246693563646351421e+00
2.339508896145511940e+00
2.339508896145511940e+00
2.264881618701742649e+00
2.153315713980529011e+00
2.153315713980529011e+00
1.683238868373668762e+00
1.683238868373668762e+00
1.868869533371990022e+00
2.121627246925260390e+00
2.121627246925260390e+00
2.458575029755546648e+00
2.336883816034425188e+00
2.336883816034425188e+00
2.112064455092013571e+00
2.112064455092013571e+00
2.010061342204047197e+00
2.300882717368083696e+00
2.300882717368083696e+00
2.027499374370555607e+00
2.027499374370555607e+00
1.910495803704947093e+00
1.882744956816309267e+00
1.882744956816309267e+00
2.021311685537278358e+00
2.167566148869289222e+00
2.167566148869289222e+00
2.037437177648243392e+00
2.037437177648243392e+00
2.018874111148411643e+00
1.958497268593401897e+00
1.958497268593401897e+00
1.717552415540025024e+00
1.717552415540025024e+00
1.881994933927427116e+00
1.998810998870815148e+00
1.998810998870815148e+00
1.869432050538651691e+00
1.869432050538651691e+00
2.153690725424969976e+00
1.937121616260262025e+00
1.937121616260262025e+00
2.285882259590441556e+00
2.517826837977233279e+00
2.517826837977233279e+00
2.400635761589403838e+00
2.400635761589403838e+00
2.159315897091586223e+00
2.152190679647205673e+00
2.152190679647205673e+00
1.757866145817438275e+00
1.757866145817438275e+00
1.864744407483138522e+00
2.237130771813104602e+00
2.237130771813104602e+00
2.114314523758659803e+00
2.114314523758659803e+00
1.944434339426862390e+00
2.157440839869380955e+00
2.157440839869380955e+00
2.132127567369609622e+00
1.985123081148716606e+00
1.985123081148716606e+00
2.120877224036378017e+00
2.120877224036378017e+00
1.980622943815424142e+00
1.774554155095065200e+00
1.774554155095065200e+00
1.864556901760918040e+00
1.864556901760918040e+00
1.864181890316477075e+00
2.052437635425885976e+00
2.052437635425885976e+00
2.234880703146458369e+00
2.183879146702475182e+00
2.183879146702475182e+00
2.487450910977508034e+00
2.487450910977508034e+00
2.410198553422650658e+00
2.016624042481765411e+00
2.016624042481765411e+00
1.900370494705038604e+00
1.900370494705038604e+00
1.911433332316049727e+00
1.901495529038361942e+00
1.901495529038361942e+00
2.051312601092562637e+00
2.051312601092562637e+00
2.011936399426252020e+00
1.940121707815790408e+00
1.940121707815790408e+00
2.072875759147922992e+00
2.072875759147922992e+00
2.008186284981841485e+00
1.899057954649495006e+00
1.899057954649495006e+00
1.902433057649464576e+00
1.902433057649464576e+00
2.120689718314157535e+00
2.245193517868587563e+00
2.245193517868587563e+00
2.125377361369670925e+00
2.141127842036194995e+00
2.141127842036194995e+00
2.059375347148045154e+00
2.059375347148045154e+00
2.136065187536240639e+00
1.998435987426374183e+00
1.998435987426374183e+00
1.949309488204596263e+00
1.949309488204596263e+00
2.067438093203528116e+00
2.134377636036255854e+00
2.134377636036255854e+00
2.333508713034455617e+00
2.333508713034455617e+00
2.005373699148533806e+00
2.063125461592455689e+00
2.063125461592455689e+00
1.896807885982848552e+00
1.896807885982848552e+00
1.977435346537675276e+00
2.026374340037232713e+00
2.026374340037232713e+00
2.010248847926267679e+00
2.014748985259559699e+00
2.014748985259559699e+00
2.142627887813959298e+00
2.142627887813959298e+00
2.183879146702475182e+00
2.177878963591417971e+00
2.177878963591417971e+00
2.148628070925016065e+00
2.148628070925016065e+00
1.890432691427350820e+00
1.896620380260628069e+00
1.896620380260628069e+00
1.970497634815515653e+00
1.970497634815515653e+00
2.112814477980895500e+00
2.129502487258521981e+00
2.129502487258521981e+00
2.061250404370250422e+00
2.112251960814234053e+00
2.112251960814234053e+00
2.093313882869960452e+00
2.093313882869960452e+00
2.078875942258980203e+00
2.096876491592150504e+00
2.096876491592150504e+00
2.200004638813440216e+00
2.200004638813440216e+00
2.164941068758201581e+00
1.928683858760338099e+00
1.928683858760338099e+00
1.936184087649159391e+00
1.936184087649159391e+00
2.081688528092287882e+00
2.163441022980437278e+00
2.163441022980437278e+00
2.071188207647938206e+00
2.147128025147251762e+00
2.147128025147251762e+00
2.290007385479293500e+00
2.290007385479293500e+00
2.020936674092837393e+00
1.875807245094149645e+00
1.875807245094149645e+00
1.968247566148869199e+00
1.968247566148869199e+00
2.092563859981078966e+00
2.103814203314310571e+00
2.103814203314310571e+00
1.983998046815393712e+00
1.983998046815393712e+00
1.907495712149418710e+00
2.117877132480849411e+00
2.117877132480849411e+00
2.147315530869472244e+00
2.147315530869472244e+00
2.106814294869838289e+00
1.966372508926664153e+00
1.966372508926664153e+00
2.024124271370586037e+00
2.024124271370586037e+00
2.260943998535111632e+00
2.201879696035645484e+00
2.201879696035645484e+00
2.031436994537187068e+00
2.065000518814661401e+00
2.065000518814661401e+00
2.013436445204016323e+00
2.013436445204016323e+00
2.004998687704092397e+00
2.067250587481307633e+00
2.067250587481307633e+00
2.011373882259590129e+00
2.011373882259590129e+00
1.930746421704764071e+00
2.074563310647907777e+00
2.074563310647907777e+00
2.104376720480972018e+00
2.104376720480972018e+00
2.100251594592120075e+00
2.111126926480910715e+00
2.111126926480910715e+00
1.965622486037782002e+00
1.979685415204321286e+00
1.979685415204321286e+00
2.117314615314187964e+00
2.117314615314187964e+00
2.071750724814600098e+00
2.089188756981108952e+00
2.089188756981108952e+00
2.058062807092501334e+00
2.058062807092501334e+00
2.059562852870265637e+00
2.078500930814539238e+00
2.078500930814539238e+00
2.000123538926358524e+00
2.000123538926358524e+00
2.105314249092073986e+00
2.140002807702871657e+00
2.140002807702871657e+00
2.111501937925351680e+00
2.111501937925351680e+00
1.964309945982238181e+00
2.054875209814752690e+00
2.054875209814752690e+00
2.160253425702688634e+00
2.131190038758506766e+00
2.131190038758506766e+00
2.113376995147556947e+00
2.113376995147556947e+00
2.052625141148106458e+00
2.063125461592455689e+00
2.063125461592455689e+00
2.003311136204107612e+00
2.003311136204107612e+00
1.918933561204870797e+00
2.140752830591753586e+00
2.140752830591753586e+00
2.061250404370250422e+00
2.061250404370250422e+00
2.059000335703604190e+00
2.012123905148472502e+00
2.012123905148472502e+00
2.114127018036439321e+00
2.114127018036439321e+00
1.932058961760307669e+00
2.041374797814874853e+00
2.041374797814874853e+00
2.223630359813226764e+00
2.176941434980315559e+00
2.176941434980315559e+00
2.124064821314127105e+00
2.124064821314127105e+00
2.043062349314859638e+00
2.049062532425916405e+00
2.049062532425916405e+00
1.986248115482039944e+00
1.986248115482039944e+00
2.162315988647114828e+00
2.231505600146489243e+00
2.107564317758720662e+00
1.949309488204596263e+00
1.949309488204596263e+00
1.979497909482100804e+00
1.979497909482100804e+00
2.069688161870173904e+00
2.079438459425641650e+00
2.079438459425641650e+00
1.956247199926755442e+00
1.956247199926755442e+00
2.054312692648091243e+00
2.103064180425428198e+00
2.103064180425428198e+00
2.042687337870418673e+00
2.042687337870418673e+00
1.943684316537980239e+00
2.031999511703848516e+00
2.031999511703848516e+00
2.025624317148350340e+00
2.055437726981414581e+00
2.055437726981414581e+00
2.056562761314737475e+00
2.056562761314737475e+00
2.056750267036957958e+00
2.044937406537064906e+00
2.044937406537064906e+00
2.126127384258552855e+00
2.126127384258552855e+00
2.160065919980468152e+00
2.076250862147892562e+00
2.076250862147892562e+00
2.033874568926053783e+00
2.033874568926053783e+00
1.971810174871059473e+00
1.962059877315591949e+00
1.962059877315591949e+00
2.008936307870723859e+00
2.148065553758354618e+00
2.148065553758354618e+00
2.156128299813837135e+00
2.156128299813837135e+00
2.083001068147831703e+00
1.984935575426496124e+00
1.984935575426496124e+00
2.106064271980956359e+00
2.106064271980956359e+00
2.139440290536210654e+00
2.149003082369457029e+00
2.149003082369457029e+00
2.102501663258766751e+00
2.102501663258766751e+00
2.008561296426282894e+00
1.974435254982146670e+00
2.133815118869594407e+00
2.128377452925199087e+00
1.983248023926511561e+00
1.983248023926511561e+00
1.943684316537980239e+00
2.012498916592913467e+00
2.012498916592913467e+00
2.128377452925199087e+00
2.128377452925199087e+00
2.052625141148106458e+00
2.022624225592822178e+00
2.022624225592822178e+00
2.031624500259407551e+00
2.038562211981566730e+00
2.038562211981566730e+00
2.058437818536942299e+00
2.058437818536942299e+00
2.037437177648243392e+00
2.173191320535905025e+00
2.173191320535905025e+00
2.186504226813562823e+00
2.186504226813562823e+00
2.105876766258735877e+00
2.024874294259468410e+00
2.024874294259468410e+00
2.007061250648518591e+00
2.007061250648518591e+00
2.046812463759269729e+00
2.047374980925931620e+00
2.047374980925931620e+00
2.134565141758476781e+00
2.159878414258247670e+00
2.159878414258247670e+00
2.124252327036347587e+00
2.124252327036347587e+00
2.010998870815149164e+00
2.015311502426221590e+00
2.015311502426221590e+00
2.026749351481673678e+00
2.026749351481673678e+00
2.017186559648426858e+00
2.031624500259407551e+00
2.031624500259407551e+00
2.090126285592211808e+00
2.090126285592211808e+00
2.103626697592089645e+00
2.135315164647358710e+00
2.135315164647358710e+00
2.042687337870418673e+00
1.884807519760735017e+00
1.884807519760735017e+00
2.048312509537034032e+00
2.048312509537034032e+00
2.105126743369853504e+00
2.076438367870113488e+00
2.076438367870113488e+00
2.078875942258980203e+00
2.078875942258980203e+00
2.090876308481094181e+00
2.085813653981139382e+00
2.085813653981139382e+00
1.975560289315469786e+00
1.975560289315469786e+00
2.041562303537095335e+00
2.036874660481581945e+00
2.036874660481581945e+00
1.944621845149082873e+00
2.027686880092776089e+00
2.027686880092776089e+00
2.069125644703512901e+00
2.069125644703512901e+00
2.074375804925687294e+00
2.119377178258613714e+00
2.119377178258613714e+00
2.098939054536576698e+00
2.098939054536576698e+00
2.095001434369945237e+00
2.082438550981169811e+00
2.082438550981169811e+00
2.090126285592211808e+00
2.090126285592211808e+00
2.113376995147556947e+00
1.969747611926633502e+00
1.969747611926633502e+00
2.045874935148167761e+00
2.158003357036042402e+00
2.158003357036042402e+00
2.125002349925229961e+00
2.125002349925229961e+00
2.035374614703817642e+00
1.995060884426404613e+00
1.995060884426404613e+00
2.065750541703543330e+00
2.065750541703543330e+00
2.145252967925046494e+00
2.076813379314554453e+00
2.076813379314554453e+00
2.039687246314890068e+00
2.039687246314890068e+00
2.067625598925748598e+00
2.045874935148167761e+00
2.045874935148167761e+00
2.122564775536362802e+00
2.122564775536362802e+00
2.103439191869869163e+00
1.945934385204626693e+00
1.945934385204626693e+00
1.980247932370982955e+00
2.041937314981536300e+00
2.041937314981536300e+00
2.062562944425794242e+00
2.062562944425794242e+00
2.105876766258735877e+00
2.081501022370067400e+00
2.081501022370067400e+00
2.131940061647389140e+00
2.131940061647389140e+00
2.086001159703360308e+00
2.000686056093020415e+00
2.000686056093020415e+00
1.951559556871242496e+00
1.978747886593218652e+00
1.978747886593218652e+00
2.057312784203619849e+00
2.057312784203619849e+00
2.126877407147435228e+00
2.102876674703207716e+00
2.102876674703207716e+00
2.047749992370372585e+00
2.047749992370372585e+00
2.078313425092318756e+00
2.075125827814569668e+00
2.075125827814569668e+00
2.057500289925840331e+00
2.057500289925840331e+00
2.023749259926145072e+00
2.057687795648060813e+00
2.057687795648060813e+00
2.117877132480849411e+00
2.117877132480849411e+00
2.080938505203405953e+00
2.070063173314615312e+00
2.070063173314615312e+00
2.056375255592516993e+00
2.046812463759269729e+00
2.046812463759269729e+00
2.060500381481368493e+00
2.060500381481368493e+00
2.041187292092654371e+00
2.081126010925626435e+00
2.081126010925626435e+00
2.089938779869991325e+00
2.089938779869991325e+00
2.080188482314524023e+00
2.115814569536424106e+00
2.115814569536424106e+00
2.037999694814905283e+00
2.037999694814905283e+00
2.031249488814966586e+00
2.048500015259254514e+00
2.048500015259254514e+00
2.065000518814661401e+00
2.043624866481521085e+00
2.043624866481521085e+00
2.070063173314615312e+00
2.070063173314615312e+00
2.061812921536912313e+00
2.097439008758812395e+00
2.097439008758812395e+00
2.096688985869930022e+00
2.096688985869930022e+00
2.094251411481063307e+00
2.053000152592547423e+00
2.053000152592547423e+00
2.079625965147862576e+00
2.079625965147862576e+00
2.072313241981261545e+00
2.030874477370525177e+00
2.030874477370525177e+00
2.034624591814935712e+00
2.034624591814935712e+00
2.037812189092684800e+00
2.042874843592639156e+00
2.042874843592639156e+00
2.046249946592608282e+00
2.090126285592211808e+00
2.090126285592211808e+00
2.107564317758720662e+00
2.107564317758720662e+00
2.103814203314310571e+00
2.076063356425672080e+00
2.076063356425672080e+00
2.098001525925473842e+00
2.098001525925473842e+00
2.078688436536759720e+00
2.053375164036988387e+00
2.053375164036988387e+00
2.034437086092715230e+00
2.034437086092715230e+00
1.981935483870967740e+00
1.983623035370952525e+00
1.983623035370952525e+00
2.068000610370189563e+00
2.068000610370189563e+00
2.131190038758506766e+00
2.108126834925382109e+00
2.108126834925382109e+00
2.046249946592608282e+00
2.046249946592608282e+00
2.050562578203680708e+00
2.048125003814813549e+00
2.048125003814813549e+00
2.031436994537187068e+00
2.046062440870388244e+00
2.046062440870388244e+00
2.114689535203100768e+00
2.114689535203100768e+00
2.066875576036866669e+00
2.023186742759483625e+00
2.023186742759483625e+00
2.063125461592455689e+00
2.063125461592455689e+00
2.065375530259102366e+00
2.071375713370158689e+00
2.071375713370158689e+00
2.114877040925321250e+00
2.114877040925321250e+00
2.116939603869747000e+00
2.088251228370006540e+00
2.088251228370006540e+00
2.048875026703695923e+00
2.046624958037049247e+00
2.046624958037049247e+00
2.047187475203710694e+00
2.047187475203710694e+00
2.013998962370677770e+00
2.062000427259132795e+00
2.062000427259132795e+00
2.046249946592608282e+00
2.046249946592608282e+00
2.028811914426099428e+00
2.023374248481704107e+00
2.023374248481704107e+00
2.060500381481368493e+00
2.060500381481368493e+00
2.127439924314096675e+00
2.167191137424848257e+00
2.167191137424848257e+00
2.087313699758903685e+00
2.083938596758934114e+00
2.083938596758934114e+00
2.015499008148442073e+00
2.015499008148442073e+00
2.050375072481459782e+00
2.053562669759208870e+00
2.053562669759208870e+00
2.016999053926206376e+00
2.016999053926206376e+00
2.026374340037232713e+00
2.043437360759300603e+00
2.043437360759300603e+00
2.101001617481002448e+00
2.101001617481002448e+00
2.061625415814691387e+00
2.070250679036835795e+00
2.070250679036835795e+00
2.091438825647755628e+00
2.142815393536179780e+00
2.142815393536179780e+00
2.117689626758628929e+00
2.117689626758628929e+00
2.105126743369853504e+00
2.037062166203802427e+00
2.037062166203802427e+00
2.039687246314890068e+00
2.039687246314890068e+00
2.057312784203619849e+00
2.066875576036866669e+00
2.066875576036866669e+00
2.014936490981780626e+00
2.014936490981780626e+00
1.980622943815424142e+00
2.011373882259590129e+00
2.011373882259590129e+00
2.012123905148472502e+00
2.012123905148472502e+00
2.132127567369609622e+00
2.139815301980651618e+00
2.139815301980651618e+00
2.077563402203436382e+00
2.051312601092562637e+00
2.051312601092562637e+00
2.016061525315103520e+00
2.016061525315103520e+00
2.069875667592394830e+00
2.027874385814997016e+00
2.027874385814997016e+00
2.070813196203497242e+00
2.070813196203497242e+00
2.130252510147404355e+00
2.092563859981078966e+00
2.092563859981078966e+00
2.114502029480880285e+00
2.114502029480880285e+00
2.060125370036927084e+00
2.084313608203375079e+00
2.084313608203375079e+00
2.086563676870021755e+00
2.086563676870021755e+00
2.100626606036561483e+00
2.061625415814691387e+00
2.061625415814691387e+00
2.035562120426038124e+00
2.035562120426038124e+00
2.033874568926053783e+00
2.060125370036927084e+00
2.060125370036927084e+00
2.025999328592791304e+00
1.988310678426465694e+00
1.988310678426465694e+00
2.040812280648213406e+00
2.040812280648213406e+00
2.098001525925473842e+00
2.092188848536637558e+00
2.092188848536637558e+00
2.092188848536637558e+00
2.092188848536637558e+00
2.051312601092562637e+00
2.027124362926114642e+00
2.027124362926114642e+00
2.071938230536820580e+00
2.071938230536820580e+00
2.061437910092470904e+00
2.003123630481887130e+00
2.003123630481887130e+00
2.015123996704001108e+00
2.000498550370799933e+00
2.000498550370799933e+00
2.046999969481490211e+00
2.046999969481490211e+00
2.059187841425824672e+00
2.039874752037110550e+00
2.039874752037110550e+00
2.063875484481338063e+00
2.063875484481338063e+00
2.090688802758873255e+00
2.085813653981139382e+00
2.085813653981139382e+00
2.097063997314370987e+00
2.097063997314370987e+00
2.101939146092104860e+00
2.093126377147739969e+00
2.093126377147739969e+00
2.071750724814600098e+00
2.038937223426007694e+00
2.038937223426007694e+00
2.065938047425763813e+00
2.065938047425763813e+00
2.054875209814752690e+00
2.022249214148381213e+00
2.022249214148381213e+00
2.010623859370708644e+00
2.010623859370708644e+00
2.056937772759178884e+00
2.090876308481094181e+00
2.090876308481094181e+00
2.096688985869930022e+00
2.096688985869930022e+00
2.075688344981231115e+00
2.054125186925870761e+00
2.054125186925870761e+00
2.088438734092227023e+00
2.088438734092227023e+00
2.088626239814447505e+00
2.062937955870235207e+00
2.062937955870235207e+00
2.048687520981474997e+00
2.053187658314767905e+00
2.053187658314767905e+00
2.052250129703665493e+00
2.052250129703665493e+00
2.040437269203771997e+00
2.043062349314859638e+00
2.043062349314859638e+00
2.047937498092593067e+00
2.047937498092593067e+00
2.096126468703268575e+00
2.110001892147587377e+00
2.110001892147587377e+00
2.148628070925016065e+00
2.148628070925016065e+00
2.138315256202887316e+00
2.100251594592120075e+00
2.100251594592120075e+00
2.098751548814355772e+00
2.049625049592577852e+00
2.049625049592577852e+00
1.976310312204351938e+00
1.976310312204351938e+00
2.007811273537400520e+00
2.002561113315225683e+00
2.002561113315225683e+00
1.939184179204687553e+00
1.939184179204687553e+00
1.964309945982238181e+00
2.012498916592913467e+00
2.012498916592913467e+00
2.055437726981414581e+00
2.055437726981414581e+00
2.086563676870021755e+00
2.099126560258797181e+00
2.099126560258797181e+00
2.110001892147587377e+00
2.110001892147587377e+00
2.123877315591906623e+00
2.103251686147648680e+00
2.103251686147648680e+00
2.074750816370128703e+00
2.051125095370342155e+00
2.051125095370342155e+00
2.075688344981231115e+00
2.075688344981231115e+00
2.075500839259010633e+00
2.039687246314890068e+00
2.039687246314890068e+00
2.029186925870540392e+00
2.029186925870540392e+00
2.031999511703848516e+00
2.063125461592455689e+00
2.063125461592455689e+00
2.052062623981445011e+00
2.052062623981445011e+00
2.070625690481276759e+00
2.066875576036866669e+00
2.066875576036866669e+00
2.096688985869930022e+00
2.096688985869930022e+00
2.071938230536820580e+00
2.055625232703635064e+00
2.055625232703635064e+00
2.049812555314798335e+00
2.049812555314798335e+00
2.031624500259407551e+00
2.064250495925779028e+00
2.064250495925779028e+00
2.048312509537034032e+00
2.053000152592547423e+00
2.053000152592547423e+00
2.068938138981292418e+00
2.068938138981292418e+00
2.059187841425824672e+00
2.056562761314737475e+00
2.056562761314737475e+00
2.088813745536667987e+00
2.088813745536667987e+00
2.078875942258980203e+00
2.068000610370189563e+00
2.068000610370189563e+00
2.086376171147801273e+00
2.086376171147801273e+00
2.090688802758873255e+00
2.043062349314859638e+00
2.043062349314859638e+00
2.050375072481459782e+00
2.050375072481459782e+00
2.042124820703756782e+00
2.008936307870723859e+00
2.008936307870723859e+00
2.018686605426191161e+00
2.046624958037049247e+00
2.046624958037049247e+00
2.084313608203375079e+00
2.084313608203375079e+00
2.089563768425550361e+00
2.075688344981231115e+00
2.075688344981231115e+00
2.102876674703207716e+00
2.102876674703207716e+00
2.085813653981139382e+00
2.059187841425824672e+00
2.059187841425824672e+00
2.034812097537156195e+00
2.034812097537156195e+00
2.034812097537156195e+00
2.039687246314890068e+00
2.039687246314890068e+00
2.063875484481338063e+00
2.065563035981322848e+00
2.065563035981322848e+00
2.071375713370158689e+00
2.071375713370158689e+00
2.053937681203650278e+00
2.039124729148228621e+00
2.039124729148228621e+00
2.059750358592486119e+00
2.059750358592486119e+00
2.070063173314615312e+00
2.074750816370128703e+00
2.074750816370128703e+00
2.086751182592242237e+00
2.086751182592242237e+00
2.080938505203405953e+00
2.069313150425733383e+00
2.069313150425733383e+00
2.056562761314737475e+00
2.033499557481612818e+00
2.033499557481612818e+00
2.057312784203619849e+00
2.057312784203619849e+00
2.074375804925687294e+00
2.063125461592455689e+00
2.063125461592455689e+00
2.066688070314646186e+00
2.066688070314646186e+00
2.044749900814844423e+00
2.018874111148411643e+00
2.018874111148411643e+00
2.061437910092470904e+00
2.101939146092104860e+00
2.101939146092104860e+00
2.074188299203466812e+00
2.074188299203466812e+00
2.072875759147922992e+00
2.049437543870357370e+00
2.049437543870357370e+00
2.038187200537125765e+00
2.038187200537125765e+00
2.065188024536881883e+00
2.052437635425885976e+00
2.052437635425885976e+00
2.020936674092837393e+00
2.020936674092837393e+00
2.043437360759300603e+00
2.053937681203650278e+00
2.053937681203650278e+00
2.050750083925901190e+00
2.050750083925901190e+00
2.051500106814783120e+00
2.083938596758934114e+00
2.083938596758934114e+00
2.073250770592364400e+00
2.068000610370189563e+00
2.068000610370189563e+00
2.043999877925962494e+00
2.043999877925962494e+00
2.066688070314646186e+00
2.120689718314157535e+00
2.120689718314157535e+00
2.077750907925656865e+00
2.077750907925656865e+00
2.096688985869930022e+00
2.080750999481185470e+00
2.080750999481185470e+00
2.054500198370311725e+00
2.054500198370311725e+00
2.049812555314798335e+00
2.032937040314951371e+00
2.032937040314951371e+00
2.027686880092776089e+00
2.027686880092776089e+00
2.045499923703726353e+00
2.059000335703604190e+00
2.059000335703604190e+00
2.062562944425794242e+00
2.062562944425794242e+00
2.065188024536881883e+00
2.061437910092470904e+00
2.061437910092470904e+00
2.058250312814721816e+00
2.062562944425794242e+00
2.062562944425794242e+00
2.068750633259071936e+00
2.068750633259071936e+00
2.061437910092470904e+00
2.051687612537003602e+00
2.051687612537003602e+00
2.077188390758995418e+00
2.077188390758995418e+00
2.091251319925535146e+00
2.064813013092440475e+00
2.064813013092440475e+00
2.061250404370250422e+00
2.061250404370250422e+00
2.076625873592333971e+00
2.067813104647969080e+00
2.067813104647969080e+00
2.074188299203466812e+00
2.057312784203619849e+00
2.057312784203619849e+00
2.038374706259346247e+00
2.038374706259346247e+00
2.045687429425947279e+00
2.046062440870388244e+00
2.046062440870388244e+00
2.056000244148076028e+00
2.056000244148076028e+00
2.034437086092715230e+00
2.048500015259254514e+00
2.048500015259254514e+00
2.070250679036835795e+00
2.070250679036835795e+00
2.078500930814539238e+00
2.092376354258858040e+00
2.092376354258858040e+00
2.099501571703238145e+00
2.099501571703238145e+00
2.092751365703299449e+00
2.060312875759148010e+00
2.060312875759148010e+00
2.065000518814661401e+00
2.071188207647938206e+00
2.071188207647938206e+00
2.077563402203436382e+00
2.077563402203436382e+00
2.080938505203405953e+00
2.054500198370311725e+00
2.054500198370311725e+00
2.049437543870357370e+00
2.049437543870357370e+00
2.040812280648213406e+00
2.023374248481704107e+00
2.023374248481704107e+00
2.045874935148167761e+00
2.069875667592394830e+00
2.069875667592394830e+00
2.073250770592364400e+00
2.073250770592364400e+00
2.069125644703512901e+00
2.063687978759117581e+00
2.063687978759117581e+00
2.086001159703360308e+00
2.086001159703360308e+00
2.067438093203528116e+00
2.051312601092562637e+00
2.051312601092562637e+00
2.051500106814783120e+00
2.051500106814783120e+00
2.056187749870296511e+00
2.063125461592455689e+00
2.063125461592455689e+00
2.068563127536851454e+00
2.068563127536851454e+00
2.059000335703604190e+00
2.057875301370280852e+00
2.057875301370280852e+00
2.047562486648152102e+00
2.059000335703604190e+00
2.059000335703604190e+00
2.061437910092470904e+00
2.061437910092470904e+00
2.074938322092349186e+00
2.081688528092287882e+00
2.081688528092287882e+00
2.067063081759087151e+00
2.067063081759087151e+00
2.079438459425641650e+00
2.086751182592242237e+00
2.086751182592242237e+00
2.051312601092562637e+00
2.051312601092562637e+00
2.081313516647846917e+00
2.078125919370098273e+00
2.078125919370098273e+00
2.053000152592547423e+00
2.057500289925840331e+00
2.057500289925840331e+00
2.063125461592455689e+00
2.063125461592455689e+00
2.060312875759148010e+00
2.033124546037171854e+00
2.033124546037171854e+00
2.031624500259407551e+00
2.031624500259407551e+00
2.073250770592364400e+00
2.101939146092104860e+00
2.101939146092104860e+00
2.087876216925565576e+00
2.087876216925565576e+00
2.062562944425794242e+00
2.010436353648488161e+00
2.010436353648488161e+00
2.012873928037354432e+00
2.012873928037354432e+00
2.045124912259285388e+00
2.057500289925840331e+00
2.057500289925840331e+00
2.057687795648060813e+00
2.064438001647999510e+00
2.064438001647999510e+00
2.047937498092593067e+00
2.047937498092593067e+00
2.064813013092440475e+00
2.091251319925535146e+00
2.091251319925535146e+00
2.065000518814661401e+00
2.065000518814661401e+00
2.052437635425885976e+00
2.054687704092532208e+00
2.054687704092532208e+00
2.072875759147922992e+00
2.072875759147922992e+00
2.065000518814661401e+00
2.073438276314584883e+00
2.073438276314584883e+00
2.083376079592272667e+00
2.083376079592272667e+00
2.060125370036927084e+00
2.048125003814813549e+00
2.048125003814813549e+00
2.058250312814721816e+00
2.058250312814721816e+00
2.056187749870296511e+00
2.072313241981261545e+00
2.072313241981261545e+00
2.058062807092501334e+00
2.052062623981445011e+00
2.052062623981445011e+00
2.071188207647938206e+00
2.071188207647938206e+00
2.071750724814600098e+00
2.079625965147862576e+00
2.079625965147862576e+00
2.056750267036957958e+00
2.056750267036957958e+00
2.045312417981505870e+00
2.068188116092410045e+00
2.068188116092410045e+00
2.062187932981353278e+00
2.062187932981353278e+00
2.069125644703512901e+00
2.060312875759148010e+00
2.060312875759148010e+00
2.034624591814935712e+00
2.034624591814935712e+00
2.034249580370494748e+00
2.031624500259407551e+00
2.031624500259407551e+00
2.047937498092593067e+00
2.074750816370128703e+00
2.074750816370128703e+00
2.083376079592272667e+00
2.083376079592272667e+00
2.096126468703268575e+00
2.063500473036897098e+00
2.063500473036897098e+00
2.067625598925748598e+00
2.067625598925748598e+00
2.077750907925656865e+00
2.069313150425733383e+00
2.069313150425733383e+00
2.058437818536942299e+00
2.058437818536942299e+00
2.055812738425855546e+00
2.068375621814630971e+00
2.068375621814630971e+00
2.082438550981169811e+00
2.074563310647907777e+00
2.065188024536881883e+00
2.065188024536881883e+00
2.065188024536881883e+00
2.065188024536881883e+00
2.060125370036927084e+00
2.052625141148106458e+00
2.052625141148106458e+00
2.083001068147831703e+00
2.083001068147831703e+00
2.073063264870143918e+00
2.054500198370311725e+00
2.054500198370311725e+00
2.076625873592333971e+00
2.076625873592333971e+00
2.083563585314493150e+00
2.062937955870235207e+00
2.062937955870235207e+00
2.040812280648213406e+00
2.060312875759148010e+00
2.060312875759148010e+00
2.075313333536790150e+00
2.075313333536790150e+00
2.057312784203619849e+00
2.040812280648213406e+00
2.040812280648213406e+00
2.057500289925840331e+00
2.057500289925840331e+00
2.043437360759300603e+00
2.028061891537217498e+00
2.028061891537217498e+00
2.039124729148228621e+00
2.054875209814752690e+00
2.054875209814752690e+00
2.053562669759208870e+00
2.053562669759208870e+00
2.050750083925901190e+00
2.009498825037385306e+00
2.009498825037385306e+00
2.013061433759574914e+00
2.013061433759574914e+00
2.061062898648029940e+00
2.097439008758812395e+00
2.097439008758812395e+00
2.106626789147617806e+00
2.106626789147617806e+00
2.120127201147496088e+00
2.093876400036621899e+00
2.093876400036621899e+00
2.066313058870204777e+00
2.070813196203497242e+00
2.070813196203497242e+00
2.066500564592425260e+00
2.066500564592425260e+00
2.071375713370158689e+00
2.086563676870021755e+00
2.086563676870021755e+00
2.066875576036866669e+00
2.043062349314859638e+00
2.043062349314859638e+00
2.051500106814783120e+00
2.051500106814783120e+00
2.053375164036988387e+00
2.057500289925840331e+00
2.057500289925840331e+00
2.050187566759239299e+00
2.050187566759239299e+00
2.069125644703512901e+00
2.065375530259102366e+00
2.065375530259102366e+00
2.042312326425977265e+00
2.039499740592669585e+00
2.039499740592669585e+00
2.067063081759087151e+00
2.067063081759087151e+00
2.076063356425672080e+00
2.063687978759117581e+00
2.063687978759117581e+00
2.034249580370494748e+00
2.034249580370494748e+00
2.046812463759269729e+00
2.069688161870173904e+00
2.069688161870173904e+00
2.066875576036866669e+00
2.066875576036866669e+00
2.067063081759087151e+00
2.074188299203466812e+00
2.074188299203466812e+00
2.072500747703482027e+00
2.058625324259163225e+00
2.058625324259163225e+00
2.045124912259285388e+00
2.045124912259285388e+00
2.057687795648060813e+00
2.043812372203741567e+00
2.043812372203741567e+00
2.018874111148411643e+00
2.018874111148411643e+00
2.034812097537156195e+00
2.062375438703573760e+00
2.062375438703573760e+00
2.076063356425672080e+00
2.072688253425702509e+00
2.072688253425702509e+00
2.097626514481032878e+00
2.097626514481032878e+00
2.084688619647816488e+00
2.079063447981200685e+00
2.079063447981200685e+00
2.067438093203528116e+00
2.067438093203528116e+00
2.044562395092623941e+00
2.052437635425885976e+00
2.052437635425885976e+00
2.053750175481429796e+00
2.053750175481429796e+00
2.069313150425733383e+00
2.083376079592272667e+00
2.083376079592272667e+00
2.075688344981231115e+00
2.075688344981231115e+00
2.077375896481215900e+00
2.057687795648060813e+00
2.057687795648060813e+00
2.052625141148106458e+00
2.052625141148106458e+00
2.068375621814630971e+00
2.064813013092440475e+00
2.064813013092440475e+00
2.050375072481459782e+00
2.032749534592730889e+00
2.032749534592730889e+00
2.052625141148106458e+00
2.052625141148106458e+00
2.080000976592303541e+00
2.065375530259102366e+00
2.065375530259102366e+00
2.047749992370372585e+00
2.047749992370372585e+00
2.055250221259193655e+00
2.079625965147862576e+00
2.079625965147862576e+00
2.063125461592455689e+00
2.063125461592455689e+00
2.031624500259407551e+00
2.050000061037018817e+00
2.050000061037018817e+00
2.065938047425763813e+00
2.057687795648060813e+00
2.057687795648060813e+00
2.065938047425763813e+00
2.065938047425763813e+00
2.048500015259254514e+00
2.047562486648152102e+00
2.047562486648152102e+00
2.078875942258980203e+00
2.078875942258980203e+00
2.076250862147892562e+00
2.087313699758903685e+00
2.087313699758903685e+00
2.103439191869869163e+00
2.103439191869869163e+00
2.046624958037049247e+00
2.038749717703787212e+00
2.038749717703787212e+00
2.059375347148045154e+00
2.046624958037049247e+00
2.046624958037049247e+00
2.045874935148167761e+00
2.045874935148167761e+00
2.037624683370464318e+00
2.047749992370372585e+00
2.047749992370372585e+00
2.052812646870326940e+00
2.052812646870326940e+00
2.052062623981445011e+00
2.057312784203619849e+00
2.057312784203619849e+00
2.046624958037049247e+00
2.046624958037049247e+00
2.044374889370403459e+00
2.054687704092532208e+00
2.054687704092532208e+00
2.074938322092349186e+00
2.074938322092349186e+00
2.053375164036988387e+00
2.048687520981474997e+00
2.048687520981474997e+00
2.082063539536728847e+00
2.067063081759087151e+00
2.067063081759087151e+00
2.060125370036927084e+00
2.060125370036927084e+00
2.046624958037049247e+00
2.018124088259529714e+00
2.018124088259529714e+00
2.100439100314340557e+00
2.100439100314340557e+00
2.086376171147801273e+00
2.087876216925565576e+00
2.087876216925565576e+00
2.086188665425580790e+00
2.086188665425580790e+00
2.065938047425763813e+00
2.061437910092470904e+00
2.061437910092470904e+00
2.076250862147892562e+00
2.061437910092470904e+00
2.061437910092470904e+00
2.036874660481581945e+00
2.036874660481581945e+00
2.062375438703573760e+00
2.042499832148198191e+00
2.042499832148198191e+00
2.055250221259193655e+00
2.053750175481429796e+00
2.053750175481429796e+00
2.038937223426007694e+00
2.038937223426007694e+00
2.048875026703695923e+00
2.059375347148045154e+00
2.059375347148045154e+00
2.052250129703665493e+00
2.052250129703665493e+00
2.034624591814935712e+00
2.034437086092715230e+00
2.034437086092715230e+00
2.079813470870083059e+00
2.079813470870083059e+00
2.082438550981169811e+00
2.096688985869930022e+00
2.096688985869930022e+00
2.105126743369853504e+00
2.105126743369853504e+00
2.061437910092470904e+00
2.070813196203497242e+00
2.070813196203497242e+00
2.067438093203528116e+00
2.067438093203528116e+00
2.024499282815027001e+00
2.032374523148289480e+00
2.032374523148289480e+00
2.035187108981597159e+00
2.029186925870540392e+00
2.029186925870540392e+00
2.055250221259193655e+00
2.055250221259193655e+00
2.073063264870143918e+00
2.059937864314706601e+00
2.059937864314706601e+00
2.030311960203863730e+00
2.030311960203863730e+00
2.037812189092684800e+00
2.037812189092684800e+00
2.037812189092684800e+00
2.054875209814752690e+00
2.054875209814752690e+00
2.084876125370036970e+00
2.077563402203436382e+00
2.077563402203436382e+00
2.046624958037049247e+00
2.046624958037049247e+00
2.055062715536973172e+00
2.076625873592333971e+00
2.076625873592333971e+00
2.074375804925687294e+00
2.046437452314828764e+00
2.046437452314828764e+00
2.046249946592608282e+00
2.046249946592608282e+00
2.068000610370189563e+00
2.072688253425702509e+00
2.072688253425702509e+00
2.066500564592425260e+00
2.066500564592425260e+00
2.045499923703726353e+00
2.077000885036774935e+00
2.077000885036774935e+00
2.100251594592120075e+00
2.100251594592120075e+00
2.087313699758903685e+00
2.065000518814661401e+00
2.065000518814661401e+00
2.064062990203558545e+00
2.075313333536790150e+00
2.075313333536790150e+00
2.039124729148228621e+00
2.039124729148228621e+00
2.006123722037415735e+00
2.008936307870723859e+00
2.008936307870723859e+00
2.041374797814874853e+00
2.041374797814874853e+00
2.077000885036774935e+00
2.043249855037080120e+00
2.043249855037080120e+00
2.036124637592700015e+00
2.036124637592700015e+00
2.070625690481276759e+00
2.097626514481032878e+00
2.097626514481032878e+00
2.120502212591937052e+00
2.078313425092318756e+00
2.078313425092318756e+00
2.043624866481521085e+00
2.043624866481521085e+00
2.067625598925748598e+00
2.086938688314462720e+00
2.086938688314462720e+00
2.097626514481032878e+00
2.097626514481032878e+00
2.076438367870113488e+00
2.042874843592639156e+00
2.042874843592639156e+00
2.080375988036744506e+00
2.080375988036744506e+00
2.061062898648029940e+00
2.012498916592913467e+00
2.012498916592913467e+00
2.009498825037385306e+00
2.009498825037385306e+00
2.019249122592852608e+00
2.042312326425977265e+00
2.042312326425977265e+00
2.045499923703726353e+00
2.045687429425947279e+00
2.045687429425947279e+00
2.085813653981139382e+00
2.085813653981139382e+00
2.098001525925473842e+00
2.086563676870021755e+00
2.086563676870021755e+00
2.086751182592242237e+00
2.086751182592242237e+00
2.104189214758751536e+00
2.076438367870113488e+00
2.076438367870113488e+00
2.050937589648121673e+00
2.050937589648121673e+00
2.054875209814752690e+00
2.037249671926022909e+00
2.037249671926022909e+00
2.054687704092532208e+00
2.054687704092532208e+00
2.052062623981445011e+00
2.041374797814874853e+00
2.041374797814874853e+00
2.024874294259468410e+00
2.050937589648121673e+00
2.050937589648121673e+00
2.063687978759117581e+00
2.063687978759117581e+00
2.043437360759300603e+00
2.032937040314951371e+00
2.032937040314951371e+00
2.044749900814844423e+00
2.044749900814844423e+00
2.065563035981322848e+00
2.061062898648029940e+00
2.061062898648029940e+00
2.082438550981169811e+00
2.082438550981169811e+00
2.101001617481002448e+00
2.097251503036591469e+00
2.097251503036591469e+00
2.089188756981108952e+00
2.089188756981108952e+00
2.050937589648121673e+00
2.048125003814813549e+00
2.048125003814813549e+00
2.084501113925596005e+00
2.084501113925596005e+00
2.087313699758903685e+00
2.056750267036957958e+00
2.056750267036957958e+00
2.041187292092654371e+00
2.057500289925840331e+00
2.057500289925840331e+00
2.070250679036835795e+00
2.070250679036835795e+00
2.056750267036957958e+00
2.047374980925931620e+00
2.047374980925931620e+00
1.998623493148594665e+00
1.998623493148594665e+00
2.027124362926114642e+00
2.058062807092501334e+00
2.058062807092501334e+00
2.098189031647694325e+00
2.098189031647694325e+00
2.064625507370219992e+00
2.059375347148045154e+00
2.059375347148045154e+00
2.061625415814691387e+00
2.061625415814691387e+00
2.088063722647786058e+00
2.064250495925779028e+00
2.064250495925779028e+00
2.021499191259499284e+00
2.033124546037171854e+00
2.033124546037171854e+00
2.022061708426160731e+00
2.022061708426160731e+00
2.113564500869777874e+00
2.126689901425214746e+00
2.118439649647511303e+00
2.118439649647511303e+00
2.063312967314676172e+00
2.063312967314676172e+00
2.057125278481399366e+00
2.043249855037080120e+00
2.043249855037080120e+00
2.076625873592333971e+00
2.076625873592333971e+00
2.084126102481154597e+00
2.040624774925992480e+00
2.040624774925992480e+00
2.026186834315011787e+00
2.028999420148319910e+00
2.028999420148319910e+00
2.035749626148258606e+00
2.035749626148258606e+00
1.987185644093142578e+00
2.029186925870540392e+00
2.029186925870540392e+00
2.081313516647846917e+00
2.081313516647846917e+00
2.080938505203405953e+00
2.074563310647907777e+00
2.074563310647907777e+00
2.043812372203741567e+00
2.043812372203741567e+00
2.026374340037232713e+00
2.039312234870449103e+00
2.039312234870449103e+00
2.092376354258858040e+00
2.122002258369701355e+00
2.122002258369701355e+00
2.087126194036683202e+00
2.087126194036683202e+00
2.068000610370189563e+00
2.044937406537064906e+00
2.044937406537064906e+00
2.044187383648182976e+00
2.044187383648182976e+00
2.043624866481521085e+00
1.997498458815271549e+00
1.997498458815271549e+00
2.008373790704061967e+00
2.008373790704061967e+00
2.087688711203345093e+00
2.102314157536546269e+00
2.102314157536546269e+00
2.078688436536759720e+00
2.096501480147709540e+00
2.096501480147709540e+00
2.059937864314706601e+00
2.075688344981231115e+00
2.075688344981231115e+00
2.095938962981048093e+00
2.095938962981048093e+00
2.034437086092715230e+00
2.030124454481643248e+00
2.030124454481643248e+00
2.026374340037232713e+00
2.026374340037232713e+00
2.096876491592150504e+00
2.093688894314401416e+00
2.093688894314401416e+00
2.080750999481185470e+00
2.061250404370250422e+00
2.061250404370250422e+00
2.063312967314676172e+00
2.063312967314676172e+00
2.039499740592669585e+00
2.051500106814783120e+00
2.051500106814783120e+00
2.071375713370158689e+00
2.071375713370158689e+00
2.091063814203314664e+00
2.071000701925717724e+00
2.071000701925717724e+00
2.074375804925687294e+00
2.074375804925687294e+00
2.093688894314401416e+00
2.081688528092287882e+00
2.081688528092287882e+00
2.051875118259224084e+00
2.039312234870449103e+00
2.039312234870449103e+00
2.032937040314951371e+00
2.032937040314951371e+00
2.043999877925962494e+00
2.092188848536637558e+00
2.092188848536637558e+00
2.099876583147679110e+00
2.099876583147679110e+00
2.071938230536820580e+00
2.065000518814661401e+00
2.065000518814661401e+00
2.057500289925840331e+00
2.057500289925840331e+00
2.007061250648518591e+00
2.049812555314798335e+00
2.049812555314798335e+00
2.036124637592700015e+00
2.078125919370098273e+00
2.078125919370098273e+00
2.103626697592089645e+00
2.103626697592089645e+00
2.098376537369914807e+00
2.083376079592272667e+00
2.083376079592272667e+00
2.092188848536637558e+00
2.092188848536637558e+00
2.099689077425458628e+00
2.083751091036713632e+00
2.083751091036713632e+00
2.015686513870662555e+00
2.015686513870662555e+00
2.018686605426191161e+00
2.070063173314615312e+00
2.070063173314615312e+00
2.062187932981353278e+00
2.050375072481459782e+00
2.050375072481459782e+00
2.065938047425763813e+00
2.065938047425763813e+00
2.078688436536759720e+00
2.062000427259132795e+00
2.062000427259132795e+00
2.100814111758781966e+00
2.100814111758781966e+00
2.092376354258858040e+00
2.056562761314737475e+00
2.056562761314737475e+00
2.017936582537308787e+00
2.071563219092379615e+00
2.071563219092379615e+00
2.053937681203650278e+00
2.053937681203650278e+00
2.016811548203985893e+00
2.031812005981628033e+00
2.031812005981628033e+00
2.063875484481338063e+00
2.063875484481338063e+00
2.040624774925992480e+00
2.093313882869960452e+00
2.093313882869960452e+00
2.124627338480788552e+00
2.124627338480788552e+00
2.103626697592089645e+00
2.097439008758812395e+00
2.097439008758812395e+00
2.057687795648060813e+00
2.057687795648060813e+00
2.055812738425855546e+00
2.053750175481429796e+00
2.053750175481429796e+00
2.030124454481643248e+00
1.992623310037537676e+00
1.992623310037537676e+00
2.030124454481643248e+00
2.030124454481643248e+00
1.996935941648609880e+00
2.015311502426221590e+00
2.015311502426221590e+00
2.002561113315225683e+00
2.002561113315225683e+00
2.075500839259010633e+00
2.089751274147770843e+00
2.089751274147770843e+00
2.092188848536637558e+00
2.128377452925199087e+00
2.128377452925199087e+00
2.127064912869655711e+00
2.127064912869655711e+00
2.102126651814325342e+00
2.087688711203345093e+00
2.087688711203345093e+00
2.030311960203863730e+00
2.030311960203863730e+00
2.053750175481429796e+00
2.087313699758903685e+00
2.087313699758903685e+00
2.095001434369945237e+00
2.095001434369945237e+00
2.092563859981078966e+00
2.070250679036835795e+00
2.070250679036835795e+00
2.030311960203863730e+00
2.030311960203863730e+00
2.059000335703604190e+00
2.034624591814935712e+00
2.034624591814935712e+00
2.066688070314646186e+00
2.075125827814569668e+00
2.075125827814569668e+00
2.084313608203375079e+00
2.084313608203375079e+00
2.079438459425641650e+00
2.070625690481276759e+00
2.070625690481276759e+00
2.052062623981445011e+00
2.052062623981445011e+00
2.034062074648274265e+00
1.995810907315286764e+00
1.995810907315286764e+00
2.003686147648549021e+00
2.003686147648549021e+00
2.067250587481307633e+00
2.088813745536667987e+00
2.088813745536667987e+00
2.093688894314401416e+00
2.093688894314401416e+00
2.068188116092410045e+00
2.088813745536667987e+00
2.088813745536667987e+00
2.091063814203314664e+00
2.146190496536149350e+00
2.146190496536149350e+00
2.084126102481154597e+00
2.084126102481154597e+00
2.006686239204077182e+00
2.034999603259376677e+00
2.034999603259376677e+00
2.010623859370708644e+00
2.010623859370708644e+00
2.006498733481856700e+00
2.082063539536728847e+00
2.082063539536728847e+00
2.111501937925351680e+00
2.111501937925351680e+00
2.044562395092623941e+00
2.106626789147617806e+00
2.106626789147617806e+00
2.126877407147435228e+00
2.126877407147435228e+00
2.091626331369976111e+00
2.073250770592364400e+00
2.073250770592364400e+00
2.065000518814661401e+00
2.065000518814661401e+00
2.042687337870418673e+00
2.081126010925626435e+00
2.081126010925626435e+00
2.052250129703665493e+00
2.062187932981353278e+00
2.062187932981353278e+00
2.093126377147739969e+00
2.093126377147739969e+00
2.161378460036011973e+00
2.115252052369762659e+00
2.115252052369762659e+00
2.095563951536606684e+00
2.095563951536606684e+00
2.096126468703268575e+00
2.023936765648365554e+00
2.023936765648365554e+00
2.006311227759636218e+00
2.006311227759636218e+00
1.983435529648732043e+00
1.957372234260078780e+00
1.957372234260078780e+00
2.012311410870692985e+00
2.012311410870692985e+00
2.050562578203680708e+00
2.105501754814294912e+00
2.105501754814294912e+00
2.124814844203009478e+00
2.077000885036774935e+00
2.077000885036774935e+00
2.062187932981353278e+00
2.062187932981353278e+00
2.063312967314676172e+00
2.062187932981353278e+00
2.062187932981353278e+00
2.075125827814569668e+00
2.075125827814569668e+00
2.112064455092013571e+00
2.137190221869563977e+00
2.137190221869563977e+00
2.095001434369945237e+00
2.095001434369945237e+00
2.050750083925901190e+00
2.008186284981841485e+00
2.008186284981841485e+00
2.031249488814966586e+00
2.031249488814966586e+00
2.076250862147892562e+00
2.119189672536393232e+00
2.119189672536393232e+00
2.046062440870388244e+00
1.999936033204138486e+00
1.999936033204138486e+00
1.983623035370952525e+00
1.983623035370952525e+00
1.976122806482131455e+00
2.089563768425550361e+00
2.089563768425550361e+00
2.113376995147556947e+00
2.113376995147556947e+00
2.037624683370464318e+00
2.045874935148167761e+00
2.045874935148167761e+00
2.081876033814508364e+00
2.093313882869960452e+00
2.093313882869960452e+00
2.069688161870173904e+00
2.069688161870173904e+00
2.109251869258705447e+00
2.176191412091433186e+00
2.176191412091433186e+00
2.162691000091555793e+00
2.162691000091555793e+00
2.056000244148076028e+00
2.066688070314646186e+00
2.066688070314646186e+00
2.145815485091708386e+00
2.145815485091708386e+00
2.122002258369701355e+00
2.057875301370280852e+00
2.057875301370280852e+00
2.028249397259437981e+00
2.028249397259437981e+00
1.944246833704641908e+00
1.974060243537705706e+00
1.974060243537705706e+00
2.059375347148045154e+00
2.059375347148045154e+00
2.040062257759331033e+00
1.954747154148991584e+00
1.954747154148991584e+00
2.003311136204107612e+00
2.092751365703299449e+00
2.092751365703299449e+00
2.161565965758232455e+00
2.161565965758232455e+00
2.178066469313638454e+00
2.085251136814477935e+00
2.085251136814477935e+00
2.047749992370372585e+00
2.140002807702871657e+00
2.140002807702871657e+00
2.125002349925229961e+00
2.125002349925229961e+00
2.137377727591784460e+00
2.145815485091708386e+00
2.145815485091708386e+00
2.005186193426313324e+00
2.005186193426313324e+00
1.955122165593432548e+00
2.003498641926328094e+00
2.003498641926328094e+00
2.055812738425855546e+00
2.055812738425855546e+00
2.020186651203955464e+00
2.011373882259590129e+00
2.011373882259590129e+00
2.136440198980682048e+00
2.136440198980682048e+00
2.168691183202612560e+00
2.086938688314462720e+00
2.086938688314462720e+00
2.010623859370708644e+00
2.010623859370708644e+00
1.970685140537736135e+00
2.034062074648274265e+00
2.034062074648274265e+00
2.078125919370098273e+00
2.001061067537461380e+00
2.001061067537461380e+00
1.856306649983214818e+00
1.856306649983214818e+00
1.983998046815393712e+00
2.157440839869380955e+00
2.157440839869380955e+00
2.170003723258155937e+00
2.170003723258155937e+00
2.029749443037202283e+00
2.148065553758354618e+00
2.148065553758354618e+00
2.180129032258064647e+00
2.180129032258064647e+00
2.185754203924680450e+00
2.175253883480330774e+00
2.175253883480330774e+00
2.061625415814691387e+00
2.061625415814691387e+00
2.014748985259559699e+00
2.020186651203955464e+00
2.020186651203955464e+00
1.972185186315500438e+00
2.013436445204016323e+00
2.013436445204016323e+00
2.065000518814661401e+00
2.065000518814661401e+00
2.041749809259315818e+00
2.002748619037446165e+00
2.002748619037446165e+00
1.999561021759697299e+00
1.999561021759697299e+00
2.068188116092410045e+00
2.077750907925656865e+00
2.077750907925656865e+00
2.064062990203558545e+00
2.064062990203558545e+00
1.982685506759849892e+00
1.903370586260566988e+00
1.903370586260566988e+00
2.080750999481185470e+00
2.209379924924466998e+00
2.209379924924466998e+00
2.237505783257545566e+00
2.237505783257545566e+00
2.100251594592120075e+00
2.125189855647450443e+00
2.125189855647450443e+00
2.114877040925321250e+00
2.114877040925321250e+00
2.204504776146733125e+00
2.136440198980682048e+00
2.136440198980682048e+00
1.994685872981963648e+00
1.994685872981963648e+00
1.968622577593310385e+00
2.021124179815057875e+00
2.021124179815057875e+00
1.917996032593768163e+00
1.917996032593768163e+00
1.892870265816217534e+00
1.998998504593035630e+00
1.998998504593035630e+00
2.065563035981322848e+00
2.149565599536118921e+00
2.149565599536118921e+00
2.105126743369853504e+00
2.105126743369853504e+00
2.089376262703329878e+00
2.077375896481215900e+00
2.077375896481215900e+00
2.084126102481154597e+00
2.084126102481154597e+00
2.016249031037324002e+00
2.039499740592669585e+00
2.039499740592669585e+00
2.070063173314615312e+00
2.070063173314615312e+00
1.923621204260383966e+00
1.898307931760612854e+00
1.898307931760612854e+00
1.902433057649464576e+00
1.892495254371776570e+00
1.892495254371776570e+00
2.037249671926022909e+00
2.037249671926022909e+00
2.311570543534653854e+00
2.239943357646412725e+00
2.239943357646412725e+00
2.081688528092287882e+00
2.081688528092287882e+00
2.102689168980987233e+00
2.155565782647175688e+00
2.155565782647175688e+00
1.986998138370922096e+00
1.986998138370922096e+00
2.162128482924894346e+00
2.258506424146244473e+00
2.258506424146244473e+00
2.152378185369426600e+00
2.152378185369426600e+00
1.972560197759941625e+00
1.995060884426404613e+00
1.995060884426404613e+00
2.006498733481856700e+00
2.006498733481856700e+00
1.967122531815546083e+00
2.116189580980865070e+00
2.116189580980865070e+00
2.285507248146000592e+00
2.148065553758354618e+00
2.148065553758354618e+00
2.087688711203345093e+00
2.087688711203345093e+00
2.204317270424512643e+00
2.056750267036957958e+00
2.056750267036957958e+00
1.884620014038514535e+00
1.884620014038514535e+00
1.769491500595110844e+00
1.921183629871517029e+00
1.921183629871517029e+00
2.142627887813959298e+00
2.142627887813959298e+00
2.312883083590197675e+00
2.089563768425550361e+00
2.089563768425550361e+00
1.960559831537827868e+00
1.854431592761009551e+00
1.854431592761009551e+00
1.860619281594287022e+00
1.860619281594287022e+00
2.054500198370311725e+00
2.051875118259224084e+00
2.051875118259224084e+00
2.001248573259681862e+00
2.001248573259681862e+00
2.177128940702536042e+00
2.101189123203222930e+00
2.101189123203222930e+00
1.876932279427472761e+00
1.876932279427472761e+00
1.992810815759758380e+00
2.153878231147190458e+00
2.153878231147190458e+00
2.101939146092104860e+00
2.101939146092104860e+00
2.046249946592608282e+00
1.939746696371349222e+00
1.939746696371349222e+00
2.084313608203375079e+00
2.149003082369457029e+00
2.149003082369457029e+00
2.302570268868068482e+00
2.302570268868068482e+00
2.184066652424695665e+00
2.062562944425794242e+00
2.062562944425794242e+00
2.211629993591112786e+00
2.211629993591112786e+00
2.106064271980956359e+00
2.023936765648365554e+00
2.023936765648365554e+00
2.126877407147435228e+00
2.126877407147435228e+00
2.165316080202642990e+00
2.061250404370250422e+00
2.061250404370250422e+00
2.037062166203802427e+00
2.037062166203802427e+00
2.059750358592486119e+00
2.013436445204016323e+00
2.013436445204016323e+00
1.869057039094210726e+00
1.788804589983825188e+00
1.788804589983825188e+00
1.936746604815820838e+00
1.936746604815820838e+00
2.151065645313883223e+00
2.012498916592913467e+00
2.012498916592913467e+00
2.019811639759514499e+00
2.019811639759514499e+00
2.024874294259468410e+00
2.031436994537187068e+00
2.031436994537187068e+00
2.284382213812677254e+00
2.114314523758659803e+00
2.114314523758659803e+00
1.873182164983062226e+00
1.873182164983062226e+00
1.878057313760796099e+00
1.989810724204229997e+00
1.989810724204229997e+00
2.162128482924894346e+00
2.162128482924894346e+00
2.085063631092257452e+00
2.111501937925351680e+00
2.111501937925351680e+00
2.221005279702139568e+00
2.221005279702139568e+00
2.155940794091616652e+00
2.126689901425214746e+00
2.126689901425214746e+00
1.922121158482619663e+00
1.758616168706320426e+00
1.758616168706320426e+00
2.083563585314493150e+00
2.083563585314493150e+00
2.373259926145207199e+00
2.125002349925229961e+00
2.125002349925229961e+00
2.122002258369701355e+00
2.122002258369701355e+00
2.176191412091433186e+00
2.054687704092532208e+00
2.054687704092532208e+00
1.984373058259834677e+00
1.984373058259834677e+00
1.900745506149479791e+00
2.113189489425336465e+00
2.113189489425336465e+00
2.056562761314737475e+00
2.056562761314737475e+00
1.929808893093661437e+00
1.993748344370861014e+00
1.993748344370861014e+00
1.996748435926389398e+00
1.812992828150273183e+00
1.812992828150273183e+00
2.050187566759239299e+00
2.050187566759239299e+00
2.276694479201635701e+00
2.327696035645618888e+00
2.327696035645618888e+00
2.156315805536057617e+00
2.156315805536057617e+00
2.146190496536149350e+00
2.179003997924741309e+00
2.179003997924741309e+00
2.101189123203222930e+00
2.101189123203222930e+00
1.958684774315622379e+00
1.965434980315561520e+00
1.965434980315561520e+00
2.019061616870632125e+00
2.116189580980865070e+00
2.116189580980865070e+00
1.927558824427014983e+00
1.927558824427014983e+00
1.901683034760582425e+00
1.846368846705527034e+00
1.846368846705527034e+00
1.826868251594591985e+00
1.826868251594591985e+00
2.037999694814905283e+00
2.273506881923887057e+00
2.273506881923887057e+00
2.002186101870784718e+00
2.002186101870784718e+00
2.101939146092104860e+00
2.135315164647358710e+00
2.135315164647358710e+00
2.193254432813501520e+00
2.193254432813501520e+00
1.937871639149143954e+00
1.874119693594164859e+00
1.874119693594164859e+00
1.855181615649891702e+00
2.141690359202856442e+00
2.141690359202856442e+00
2.129689992980742907e+00
2.129689992980742907e+00
2.076250862147892562e+00
2.000686056093020415e+00
2.000686056093020415e+00
2.131377544480727693e+00
2.131377544480727693e+00
2.317570726645710621e+00
2.339883907589953349e+00
2.339883907589953349e+00
2.145252967925046494e+00
2.145252967925046494e+00
2.034812097537156195e+00
1.905058137760551773e+00
1.905058137760551773e+00
1.939934202093569704e+00
1.939934202093569704e+00
2.212380016479995160e+00
1.988873195593127363e+00
1.988873195593127363e+00
1.939934202093569704e+00
1.939934202093569704e+00
2.214817590868861874e+00
2.313258095034638639e+00
2.313258095034638639e+00
1.966747520371105118e+00
1.658675618762779580e+00
1.658675618762779580e+00
1.866994476149784976e+00
1.866994476149784976e+00
2.095563951536606684e+00
2.323008392590105942e+00
2.323008392590105942e+00
1.955122165593432548e+00
1.955122165593432548e+00
2.009686330759605788e+00
1.983998046815393712e+00
1.983998046815393712e+00
1.868682027649769539e+00
1.868682027649769539e+00
2.137002716147343495e+00
2.142440382091738371e+00
2.142440382091738371e+00
2.033687063203833301e+00
2.050000061037018817e+00
2.050000061037018817e+00
1.978185369426557427e+00
1.978185369426557427e+00
2.115627063814203623e+00
2.120877224036378017e+00
2.120877224036378017e+00
2.184629169591357556e+00
2.184629169591357556e+00
2.238068300424207457e+00
2.151440656758324188e+00
2.151440656758324188e+00
2.176378917813653668e+00
2.176378917813653668e+00
2.284007202368236289e+00
1.992248298593096711e+00
1.992248298593096711e+00
1.875807245094149645e+00
1.875807245094149645e+00
2.171316263313699757e+00
1.971810174871059473e+00
1.971810174871059473e+00
1.852931546983245470e+00
1.953247108371227281e+00
1.953247108371227281e+00
1.989623218482009515e+00
1.989623218482009515e+00
1.930933927426984553e+00
2.074938322092349186e+00
2.074938322092349186e+00
2.204692281868953607e+00
2.204692281868953607e+00
2.235443220313119816e+00
2.088813745536667987e+00
2.088813745536667987e+00
1.888932645649586517e+00
1.888932645649586517e+00
1.850681478316599016e+00
2.094251411481063307e+00
2.094251411481063307e+00
2.146378002258369833e+00
2.146378002258369833e+00
1.878244819483016581e+00
1.793679738761558839e+00
1.793679738761558839e+00
2.004998687704092397e+00
2.068000610370189563e+00
2.068000610370189563e+00
2.165878597369304437e+00
2.165878597369304437e+00
2.251381206701864812e+00
2.355071871089815971e+00
2.355071871089815971e+00
2.290007385479293500e+00
2.290007385479293500e+00
2.333696218756676100e+00
2.209192419202246516e+00
2.209192419202246516e+00
1.903370586260566988e+00
1.903370586260566988e+00
1.567360332041383142e+00
2.018686605426191161e+00
2.018686605426191161e+00
2.293757499923703591e+00
2.109626880703146412e+00
2.109626880703146412e+00
2.095001434369945237e+00
2.095001434369945237e+00
2.091063814203314664e+00
1.931683950315866705e+00
1.931683950315866705e+00
2.118252143925290376e+00
2.118252143925290376e+00
1.901870540482802907e+00
1.775679189428388316e+00
1.775679189428388316e+00
1.686426465651417628e+00
1.686426465651417628e+00
1.582173284096804800e+00
2.114877040925321250e+00
2.114877040925321250e+00
2.665393841364787963e+00
2.665393841364787963e+00
2.510139103366191726e+00
2.377197546311838217e+00
2.377197546311838217e+00
2.193816949980162967e+00
1.798742393261513195e+00
1.798742393261513195e+00
1.676676168095950326e+00
1.676676168095950326e+00
1.904495620593890104e+00
2.157628345591601438e+00
2.157628345591601438e+00
2.136252693258461566e+00
2.136252693258461566e+00
2.031061983092746104e+00
1.930558915982543589e+00
1.930558915982543589e+00
2.082251045258949329e+00
2.082251045258949329e+00
2.196067018646809643e+00
2.088813745536667987e+00
2.088813745536667987e+00
2.024686788537247928e+00
2.024686788537247928e+00
1.896620380260628069e+00
2.010061342204047197e+00
2.010061342204047197e+00
2.231693105868709726e+00
2.210504959257789892e+00
2.210504959257789892e+00
1.869057039094210726e+00
1.869057039094210726e+00
2.015123996704001108e+00
2.111314432203131197e+00
2.111314432203131197e+00
1.890057679982909855e+00
1.890057679982909855e+00
2.149378093813898438e+00
2.333508713034455617e+00
2.333508713034455617e+00
2.154440748313852350e+00
2.154440748313852350e+00
2.092001342814417075e+00
2.055625232703635064e+00
2.055625232703635064e+00
1.939934202093569704e+00
1.944246833704641908e+00
1.947246925260170292e+00
1.947246925260170292e+00
2.036312143314920498e+00
2.096688985869930022e+00
2.096688985869930022e+00
2.135690176091799675e+00
2.135690176091799675e+00
2.056750267036957958e+00
2.257943906979583026e+00
2.257943906979583026e+00
2.161753471480452937e+00
1.870369579149754324e+00
1.870369579149754324e+00
1.923808709982604448e+00
1.923808709982604448e+00
2.049250038148136888e+00
2.189691824091311467e+00
2.189691824091311467e+00
2.137940244758446351e+00
2.137940244758446351e+00
2.222505325479903426e+00
2.013811456648457288e+00
2.013811456648457288e+00
2.046437452314828764e+00
2.047562486648152102e+00
2.028811914426099428e+00
2.028811914426099428e+00
2.073063264870143918e+00
2.126877407147435228e+00
2.126877407147435228e+00
2.008748802148503376e+00
1.860994293038728209e+00
1.860994293038728209e+00
2.037062166203802427e+00
2.037062166203802427e+00
2.238443311868648422e+00
2.133815118869594407e+00
2.133815118869594407e+00
2.095563951536606684e+00
2.095563951536606684e+00
2.043812372203741567e+00
2.033312051759392336e+00
2.033312051759392336e+00
2.015311502426221590e+00
2.015311502426221590e+00
2.043437360759300603e+00
2.135127658925138228e+00
2.135127658925138228e+00
2.051687612537003602e+00
1.874869716483047011e+00
1.874869716483047011e+00
1.941246742149113524e+00
1.941246742149113524e+00
1.929996398815881919e+00
2.163628528702658205e+00
2.168316171758171151e+00
2.168316171758171151e+00
2.005936216315195253e+00
2.005936216315195253e+00
1.964872463148899850e+00
2.027874385814997016e+00
2.027874385814997016e+00
1.934871547593615571e+00
2.076438367870113488e+00
2.076438367870113488e+00
2.371759880367442896e+00
2.371759880367442896e+00
2.112064455092013571e+00
2.146002990813928868e+00
2.146002990813928868e+00
2.027499374370555607e+00
2.027499374370555607e+00
2.109251869258705447e+00
2.090313791314432290e+00
2.090313791314432290e+00
2.082438550981169811e+00
2.082438550981169811e+00
2.020561662648396428e+00
2.117502121036408447e+00
2.117502121036408447e+00
2.265444135868404540e+00
2.142252876369517889e+00
2.142252876369517889e+00
1.932996490371410303e+00
1.932996490371410303e+00
1.957559739982299263e+00
1.931121433149205036e+00
1.931121433149205036e+00
1.961684865871150762e+00
1.961684865871150762e+00
2.176753929258095077e+00
2.160253425702688634e+00
2.160253425702688634e+00
2.048500015259254514e+00
2.048500015259254514e+00
1.978185369426557427e+00
1.948371959593493630e+00
1.948371959593493630e+00
2.145440473647266977e+00
2.145440473647266977e+00
2.030499465926084213e+00
1.928683858760338099e+00
1.928683858760338099e+00
1.971810174871059473e+00
2.117127109591967482e+00
2.117127109591967482e+00
2.125377361369670925e+00
2.125377361369670925e+00
2.101001617481002448e+00
2.146002990813928868e+00
2.146002990813928868e+00
2.000498550370799933e+00
2.000498550370799933e+00
2.097814020203253360e+00
2.022436719870601696e+00
2.022436719870601696e+00
1.968435071871089903e+00
1.968435071871089903e+00
2.086563676870021755e+00
2.199817133091219734e+00
2.199817133091219734e+00
2.186129215369121415e+00
2.006311227759636218e+00
2.006311227759636218e+00
1.993373332926419828e+00
1.993373332926419828e+00
2.123314798425245176e+00
2.141690359202856442e+00
2.141690359202856442e+00
2.102314157536546269e+00
2.102314157536546269e+00
2.102876674703207716e+00
2.129689992980742907e+00
2.129689992980742907e+00
2.094626422925504272e+00
2.109064363536484965e+00
2.109064363536484965e+00
2.155565782647175688e+00
2.155565782647175688e+00
1.921183629871517029e+00
1.886120059816278616e+00
1.886120059816278616e+00
1.969747611926633502e+00
1.969747611926633502e+00
2.036687154759361462e+00
2.094251411481063307e+00
2.094251411481063307e+00
1.998998504593035630e+00
1.947809442426831961e+00
1.947809442426831961e+00
2.033687063203833301e+00
2.033687063203833301e+00
2.115627063814203623e+00
2.093688894314401416e+00
2.093688894314401416e+00
2.034999603259376677e+00
2.034999603259376677e+00
2.113189489425336465e+00
2.117314615314187964e+00
2.154628254036072832e+00
2.001811090426343309e+00
2.001811090426343309e+00
2.141315347758415477e+00
2.141315347758415477e+00
2.028624408703878945e+00
2.005936216315195253e+00
2.005936216315195253e+00
2.046812463759269729e+00
2.046812463759269729e+00
2.016061525315103520e+00
2.077188390758995418e+00
2.077188390758995418e+00
2.119564683980834197e+00
1.956059694204534960e+00
1.956059694204534960e+00
2.053000152592547423e+00
2.053000152592547423e+00
2.173378826258125951e+00
2.258131412701803509e+00
2.258131412701803509e+00
2.255881344035157721e+00
2.255881344035157721e+00
2.029374431592760875e+00
1.954184636982329915e+00
1.954184636982329915e+00
1.978935392315439357e+00
1.978935392315439357e+00
2.063500473036897098e+00
2.055250221259193655e+00
2.055250221259193655e+00
1.993373332926419828e+00
1.993373332926419828e+00
2.046624958037049247e+00
2.143190404980620745e+00
2.143190404980620745e+00
2.080375988036744506e+00
2.080375988036744506e+00
1.959622302926725235e+00
1.968060060426648716e+00
1.990748252815332409e+00
1.990748252815332409e+00
1.997498458815271549e+00
1.997498458815271549e+00
2.107751823480941145e+00
2.193629444257942485e+00
2.193629444257942485e+00
2.055437726981414581e+00
2.055437726981414581e+00
2.040999786370433888e+00
2.087313699758903685e+00
2.087313699758903685e+00
2.179191503646961792e+00
2.179191503646961792e+00
2.174503860591448845e+00
2.073438276314584883e+00
2.073438276314584883e+00
2.025811822870570822e+00
2.025811822870570822e+00
1.996748435926389398e+00
2.012311410870692985e+00
2.012311410870692985e+00
1.882932462538529750e+00
1.943309305093539274e+00
1.943309305093539274e+00
2.079063447981200685e+00
2.079063447981200685e+00
2.258693929868464956e+00
2.232630634479812137e+00
2.232630634479812137e+00
2.132690084536271069e+00
2.132690084536271069e+00
2.058062807092501334e+00
2.020186651203955464e+00
2.020186651203955464e+00
1.938434156315805401e+00
1.938434156315805401e+00
2.069125644703512901e+00
2.122002258369701355e+00
2.122002258369701355e+00
2.110751915036469750e+00
2.110751915036469750e+00
2.065188024536881883e+00
2.055437726981414581e+00
2.055437726981414581e+00
2.052812646870326940e+00
2.051875118259224084e+00
2.051875118259224084e+00
1.977247840815454571e+00
1.977247840815454571e+00
1.960747337260048351e+00
2.050000061037018817e+00
2.050000061037018817e+00
2.185566698202459968e+00
2.185566698202459968e+00
2.121627246925260390e+00
1.986623126926480909e+00
1.986623126926480909e+00
1.984373058259834677e+00
2.001436078981902345e+00
2.001436078981902345e+00
2.078688436536759720e+00
2.078688436536759720e+00
2.130627521591845319e+00
2.098189031647694325e+00
2.098189031647694325e+00
2.098939054536576698e+00
2.138315256202887316e+00
2.138315256202887316e+00
2.074000793481246330e+00
2.074000793481246330e+00
2.073438276314584883e+00
2.078313425092318756e+00
2.078313425092318756e+00
2.019624134037293572e+00
2.019624134037293572e+00
2.047374980925931620e+00
2.037624683370464318e+00
2.037624683370464318e+00
2.049812555314798335e+00
2.049812555314798335e+00
2.075875850703451597e+00
2.070813196203497242e+00
2.070813196203497242e+00
2.050000061037018817e+00
2.036687154759361462e+00
2.036687154759361462e+00
2.015874019592883037e+00
2.015874019592883037e+00
2.024686788537247928e+00
2.082063539536728847e+00
2.082063539536728847e+00
2.050375072481459782e+00
1.982873012482070374e+00
2.161940977202673420e+00
2.161940977202673420e+00
2.103251686147648680e+00
2.103251686147648680e+00
2.075125827814569668e+00
2.136252693258461566e+00
2.136252693258461566e+00
2.182004089480269915e+00
2.182004089480269915e+00
2.123127292703024249e+00
2.018311593981750196e+00
2.018311593981750196e+00
1.940309213538010891e+00
1.972560197759941625e+00
1.972560197759941625e+00
1.983810541093173230e+00
1.983810541093173230e+00
2.044187383648182976e+00
2.092938871425519931e+00
2.092938871425519931e+00
2.099501571703238145e+00
2.099501571703238145e+00
2.169816217535935454e+00
2.087876216925565576e+00
2.087876216925565576e+00
2.085063631092257452e+00
2.085063631092257452e+00
2.043249855037080120e+00
2.008748802148503376e+00
2.008748802148503376e+00
1.992810815759758380e+00
1.992810815759758380e+00
1.954747154148991584e+00
2.062562944425794242e+00
2.062562944425794242e+00
2.101939146092104860e+00
2.118439649647511303e+00
2.118439649647511303e+00
2.094438917203283790e+00
2.083938596758934114e+00
2.083938596758934114e+00
2.083751091036713632e+00
2.083751091036713632e+00
2.116752098147526517e+00
2.129502487258521981e+00
2.129502487258521981e+00
2.146940519425031280e+00
2.146940519425031280e+00
2.130065004425183872e+00
2.078313425092318756e+00
2.078313425092318756e+00
2.042874843592639156e+00
1.915183446760460262e+00
1.915183446760460262e+00
1.974810266426587635e+00
1.974810266426587635e+00
2.043249855037080120e+00
2.012873928037354432e+00
2.012873928037354432e+00
2.053937681203650278e+00
2.053937681203650278e+00
1.970122623371074688e+00
2.007623767815180038e+00
2.007623767815180038e+00
2.134002624591814889e+00
2.134002624591814889e+00
2.101751640369884377e+00
2.048687520981474997e+00
2.048687520981474997e+00
2.075875850703451597e+00
2.075875850703451597e+00
2.067063081759087151e+00
2.071563219092379615e+00
2.071563219092379615e+00
2.058250312814721816e+00
2.058250312814721816e+00
2.070250679036835795e+00
2.116564592425305591e+00
2.116564592425305591e+00
2.071000701925717724e+00
2.054500198370311725e+00
2.054500198370311725e+00
2.121439741203039464e+00
2.121439741203039464e+00
2.116939603869747000e+00
2.053562669759208870e+00
2.053562669759208870e+00
1.979685415204321286e+00
1.979685415204321286e+00
2.019999145481734981e+00
2.035187108981597159e+00
2.035187108981597159e+00
1.994310861537522683e+00
1.994310861537522683e+00
2.052437635425885976e+00
2.087501205481124167e+00
2.087501205481124167e+00
2.130815027314065802e+00
2.103439191869869163e+00
2.103439191869869163e+00
2.105876766258735877e+00
2.105876766258735877e+00
2.056187749870296511e+00
2.110376903592028786e+00
2.110376903592028786e+00
2.125002349925229961e+00
2.148815576647236547e+00
2.162691000091555793e+00
2.105501754814294912e+00
2.105501754814294912e+00
2.082813562425611220e+00
2.082813562425611220e+00
2.068000610370189563e+00
2.003498641926328094e+00
2.003498641926328094e+00
1.983248023926511561e+00
1.983248023926511561e+00
1.959622302926725235e+00
1.965059968871120333e+00
1.965059968871120333e+00
2.025436811426129857e+00
2.047374980925931620e+00
2.047374980925931620e+00
2.055437726981414581e+00
2.055437726981414581e+00
2.035937131870479533e+00
1.983248023926511561e+00
1.983248023926511561e+00
2.060312875759148010e+00
2.060312875759148010e+00
2.110001892147587377e+00
2.088438734092227023e+00
2.025061799981688893e+00
2.039687246314890068e+00
2.039687246314890068e+00
2.068188116092410045e+00
2.113376995147556947e+00
2.113376995147556947e+00
2.083001068147831703e+00
2.083001068147831703e+00
2.041187292092654371e+00
2.041937314981536300e+00
2.041937314981536300e+00
2.094251411481063307e+00
2.094251411481063307e+00
2.098564043092135289e+00
2.070625690481276759e+00
2.070625690481276759e+00
2.130440015869624837e+00
2.130440015869624837e+00
2.102501663258766751e+00
2.074188299203466812e+00
2.074188299203466812e+00
2.059000335703604190e+00
2.031249488814966586e+00
2.031249488814966586e+00
1.985498092593157793e+00
1.985498092593157793e+00
2.007811273537400520e+00
2.014373973815118735e+00
2.014373973815118735e+00
2.084313608203375079e+00
2.054875209814752690e+00
2.054875209814752690e+00
2.056375255592516993e+00
2.048875026703695923e+00
2.048875026703695923e+00
2.048500015259254514e+00
2.048500015259254514e+00
2.075875850703451597e+00
2.079063447981200685e+00
2.079063447981200685e+00
2.066125553147984295e+00
2.102876674703207716e+00
2.102876674703207716e+00
2.114877040925321250e+00
2.069875667592394830e+00
2.069875667592394830e+00
2.053937681203650278e+00
2.053937681203650278e+00
2.081126010925626435e+00
2.063875484481338063e+00
2.063875484481338063e+00
2.061812921536912313e+00
2.061812921536912313e+00
2.082438550981169811e+00
2.085813653981139382e+00
2.085813653981139382e+00
2.031624500259407551e+00
2.031624500259407551e+00
2.012123905148472502e+00
2.064062990203558545e+00
2.064062990203558545e+00
2.102314157536546269e+00
2.107564317758720662e+00
2.107564317758720662e+00
2.093126377147739969e+00
2.093126377147739969e+00
2.079625965147862576e+00
2.060312875759148010e+00
2.060312875759148010e+00
2.023186742759483625e+00
2.023186742759483625e+00
2.017749076815088305e+00
1.994498367259743166e+00
1.994498367259743166e+00
2.053187658314767905e+00
2.053187658314767905e+00
2.065750541703543330e+00
1.904495620593890104e+00
1.904495620593890104e+00
2.071188207647938206e+00
2.071188207647938206e+00
2.067813104647969080e+00
2.068375621814630971e+00
2.068375621814630971e+00
2.076813379314554453e+00
2.076813379314554453e+00
2.051687612537003602e+00
2.050375072481459782e+00
2.050375072481459782e+00
2.070250679036835795e+00
2.066688070314646186e+00
2.066688070314646186e+00
2.041562303537095335e+00
2.041562303537095335e+00
2.081501022370067400e+00
2.095188940092165719e+00
2.095188940092165719e+00
2.070813196203497242e+00
2.070813196203497242e+00
2.072313241981261545e+00
2.061625415814691387e+00
2.061625415814691387e+00
2.055812738425855546e+00
2.055812738425855546e+00
2.064625507370219992e+00
2.045499923703726353e+00
2.045499923703726353e+00
2.025999328592791304e+00
2.046249946592608282e+00
2.046249946592608282e+00
2.069875667592394830e+00
2.075875850703451597e+00
2.075875850703451597e+00
2.079813470870083059e+00
2.079813470870083059e+00
2.063312967314676172e+00
2.034624591814935712e+00
2.034624591814935712e+00
2.023749259926145072e+00
2.023749259926145072e+00
2.035374614703817642e+00
2.051312601092562637e+00
2.051312601092562637e+00
2.062562944425794242e+00
2.062562944425794242e+00
2.072313241981261545e+00
2.060500381481368493e+00
2.060500381481368493e+00
2.074188299203466812e+00
2.074188299203466812e+00
2.089001251258888470e+00
2.060687887203588975e+00
2.060125370036927084e+00
2.089001251258888470e+00
2.089001251258888470e+00
2.097251503036591469e+00
2.078125919370098273e+00
2.078125919370098273e+00
2.065563035981322848e+00
2.065563035981322848e+00
1.982498001037629409e+00
2.034624591814935712e+00
2.034624591814935712e+00
2.069688161870173904e+00
2.085063631092257452e+00
2.085063631092257452e+00
2.057875301370280852e+00
2.057875301370280852e+00
2.050750083925901190e+00
2.052437635425885976e+00
2.052437635425885976e+00
2.042499832148198191e+00
2.042499832148198191e+00
2.058437818536942299e+00
2.065000518814661401e+00
2.065000518814661401e+00
2.086188665425580790e+00
2.086188665425580790e+00
2.056937772759178884e+00
2.059937864314706601e+00
2.059937864314706601e+00
2.075875850703451597e+00
2.100064088869899592e+00
2.100064088869899592e+00
2.065563035981322848e+00
2.065563035981322848e+00
2.042124820703756782e+00
2.056562761314737475e+00
2.056562761314737475e+00
2.021311685537278358e+00
2.021311685537278358e+00
2.000498550370799933e+00
2.036499649037140980e+00
2.036499649037140980e+00
2.054875209814752690e+00
2.060875392925809457e+00
2.060875392925809457e+00
2.075313333536790150e+00
2.075313333536790150e+00
2.066688070314646186e+00
2.081501022370067400e+00
2.081501022370067400e+00
2.073813287759025847e+00
2.073813287759025847e+00
2.045312417981505870e+00
2.052062623981445011e+00
2.052062623981445011e+00
2.043812372203741567e+00
2.043812372203741567e+00
2.059000335703604190e+00
2.054687704092532208e+00
2.054687704092532208e+00
2.044187383648182976e+00
2.044187383648182976e+00
2.061625415814691387e+00
2.075875850703451597e+00
2.075875850703451597e+00
2.063500473036897098e+00
2.042312326425977265e+00
2.042312326425977265e+00
2.053750175481429796e+00
2.053750175481429796e+00
2.050187566759239299e+00
2.066125553147984295e+00
2.066125553147984295e+00
2.066313058870204777e+00
2.066313058870204777e+00
2.062750450148014725e+00
2.055250221259193655e+00
2.055250221259193655e+00
2.053375164036988387e+00
2.053375164036988387e+00
2.079625965147862576e+00
2.077750907925656865e+00
2.077750907925656865e+00
2.053750175481429796e+00
2.053750175481429796e+00
2.066688070314646186e+00
2.075500839259010633e+00
2.075500839259010633e+00
2.092563859981078966e+00
2.113376995147556947e+00
2.113376995147556947e+00
2.068563127536851454e+00
2.068563127536851454e+00
2.042687337870418673e+00
2.015123996704001108e+00
2.015123996704001108e+00
2.029936948759422766e+00
2.029936948759422766e+00
2.066313058870204777e+00
2.047562486648152102e+00
2.047562486648152102e+00
2.063125461592455689e+00
2.063125461592455689e+00
2.053562669759208870e+00
2.060687887203588975e+00
2.060687887203588975e+00
2.058062807092501334e+00
2.058062807092501334e+00
2.035374614703817642e+00
2.044937406537064906e+00
2.044937406537064906e+00
2.068000610370189563e+00
2.061062898648029940e+00
2.061062898648029940e+00
2.058812829981383707e+00
2.058812829981383707e+00
2.051125095370342155e+00
2.051312601092562637e+00
2.051312601092562637e+00
2.050375072481459782e+00
2.050375072481459782e+00
2.046624958037049247e+00
2.081501022370067400e+00
2.081501022370067400e+00
2.090126285592211808e+00
2.073063264870143918e+00
2.073063264870143918e+00
2.046437452314828764e+00
2.046437452314828764e+00
2.037437177648243392e+00
2.044937406537064906e+00
2.044937406537064906e+00
2.046437452314828764e+00
2.046437452314828764e+00
2.075313333536790150e+00
2.075313333536790150e+00
2.070250679036835795e+00
2.081126010925626435e+00
2.081126010925626435e+00
2.101001617481002448e+00
2.101001617481002448e+00
2.080188482314524023e+00
2.050937589648121673e+00
2.050937589648121673e+00
2.046437452314828764e+00
2.046437452314828764e+00
2.055437726981414581e+00
2.049250038148136888e+00
2.049250038148136888e+00
2.056375255592516993e+00
2.056375255592516993e+00
2.065938047425763813e+00
2.072313241981261545e+00
2.072313241981261545e+00
2.046437452314828764e+00
2.046437452314828764e+00
2.064062990203558545e+00
2.061062898648029940e+00
2.061062898648029940e+00
2.050750083925901190e+00
2.050562578203680708e+00
2.050562578203680708e+00
2.050187566759239299e+00
2.050187566759239299e+00
2.058625324259163225e+00
2.075500839259010633e+00
2.075500839259010633e+00
2.086001159703360308e+00
2.086001159703360308e+00
2.084313608203375079e+00
2.061625415814691387e+00
2.061625415814691387e+00
2.040062257759331033e+00
2.040062257759331033e+00
2.024686788537247928e+00
2.042499832148198191e+00
2.072313241981261545e+00
2.072313241981261545e+00
2.071375713370158689e+00
2.071375713370158689e+00
2.065938047425763813e+00
2.074750816370128703e+00
2.074750816370128703e+00
2.056750267036957958e+00
2.056750267036957958e+00
2.037624683370464318e+00
2.038374706259346247e+00
2.038374706259346247e+00
2.044749900814844423e+00
2.044749900814844423e+00
2.056187749870296511e+00
2.056187749870296511e+00
2.056187749870296511e+00
2.052812646870326940e+00
2.052812646870326940e+00
2.071750724814600098e+00
2.065750541703543330e+00
2.065750541703543330e+00
2.066500564592425260e+00
2.067438093203528116e+00
2.067438093203528116e+00
2.036124637592700015e+00
2.036124637592700015e+00
2.063125461592455689e+00
2.059750358592486119e+00
2.059750358592486119e+00
2.054500198370311725e+00
2.054500198370311725e+00
2.053187658314767905e+00
2.090313791314432290e+00
2.090313791314432290e+00
2.062187932981353278e+00
2.062187932981353278e+00
2.064813013092440475e+00
2.058625324259163225e+00
2.058625324259163225e+00
2.121064729758598499e+00
2.121064729758598499e+00
2.059750358592486119e+00
2.072500747703482027e+00
2.072500747703482027e+00
2.073625782036805365e+00
2.073625782036805365e+00
2.051875118259224084e+00
2.066875576036866669e+00
2.066875576036866669e+00
2.054312692648091243e+00
2.047937498092593067e+00
2.047937498092593067e+00
2.040437269203771997e+00
2.040437269203771997e+00
2.040999786370433888e+00
2.046437452314828764e+00
2.046437452314828764e+00
2.067063081759087151e+00
2.067063081759087151e+00
2.062187932981353278e+00
2.061625415814691387e+00
2.061625415814691387e+00
2.075125827814569668e+00
2.075125827814569668e+00
2.057125278481399366e+00
2.038374706259346247e+00
2.051875118259224084e+00
2.051875118259224084e+00
2.059562852870265637e+00
2.059562852870265637e+00
2.066125553147984295e+00
2.068188116092410045e+00
2.068188116092410045e+00
2.057312784203619849e+00
2.057312784203619849e+00
2.041562303537095335e+00
2.047562486648152102e+00
2.047562486648152102e+00
2.076438367870113488e+00
2.076438367870113488e+00
2.076625873592333971e+00
2.072125736259041062e+00
2.072125736259041062e+00
2.061062898648029940e+00
2.056937772759178884e+00
2.056937772759178884e+00
2.065188024536881883e+00
2.065188024536881883e+00
2.060312875759148010e+00
2.056750267036957958e+00
2.056750267036957958e+00
2.053000152592547423e+00
2.059187841425824672e+00
2.041937314981536300e+00
2.041937314981536300e+00
2.052250129703665493e+00
2.052250129703665493e+00
2.071563219092379615e+00
2.069125644703512901e+00
2.069125644703512901e+00
2.064062990203558545e+00
2.064062990203558545e+00
2.076438367870113488e+00
2.058062807092501334e+00
2.058062807092501334e+00
2.059000335703604190e+00
2.059000335703604190e+00
2.066688070314646186e+00
2.050750083925901190e+00
2.050750083925901190e+00
2.053187658314767905e+00
2.053187658314767905e+00
2.061812921536912313e+00
2.058250312814721816e+00
2.058250312814721816e+00
2.064625507370219992e+00
2.064625507370219992e+00
2.067063081759087151e+00
2.075500839259010633e+00
2.075500839259010633e+00
2.070250679036835795e+00
2.070250679036835795e+00
2.062937955870235207e+00
2.048687520981474997e+00
2.048687520981474997e+00
2.051125095370342155e+00
2.051125095370342155e+00
2.053375164036988387e+00
2.064250495925779028e+00
2.064250495925779028e+00
2.063875484481338063e+00
2.064438001647999510e+00
2.064438001647999510e+00
2.075875850703451597e+00
2.075875850703451597e+00
2.061812921536912313e+00
2.058250312814721816e+00
2.058250312814721816e+00
2.053562669759208870e+00
2.053562669759208870e+00
2.046999969481490211e+00
2.054500198370311725e+00
2.054500198370311725e+00
2.074938322092349186e+00
2.074938322092349186e+00
2.055062715536973172e+00
2.052062623981445011e+00
2.052062623981445011e+00
2.058812829981383707e+00
2.076625873592333971e+00
2.076625873592333971e+00
2.082813562425611220e+00
2.082813562425611220e+00
2.071563219092379615e+00
2.071188207647938206e+00
2.071188207647938206e+00
2.066688070314646186e+00
2.066688070314646186e+00
2.054687704092532208e+00
2.052625141148106458e+00
2.052625141148106458e+00
2.047562486648152102e+00
2.047562486648152102e+00
2.057312784203619849e+00
2.054312692648091243e+00
2.054312692648091243e+00
2.055812738425855546e+00
2.055812738425855546e+00
2.055250221259193655e+00
2.048687520981474997e+00
2.048687520981474997e+00
2.054312692648091243e+00
2.054312692648091243e+00
2.059000335703604190e+00
2.054875209814752690e+00
2.054875209814752690e+00
2.052812646870326940e+00
2.057687795648060813e+00
2.057687795648060813e+00
2.063500473036897098e+00
2.063500473036897098e+00
2.069500656147953865e+00
2.060125370036927084e+00
2.060125370036927084e+00
2.059187841425824672e+00
2.059187841425824672e+00
2.066313058870204777e+00
2.068563127536851454e+00
2.068563127536851454e+00
2.062562944425794242e+00
2.062562944425794242e+00
2.062375438703573760e+00
2.061625415814691387e+00
2.061625415814691387e+00
2.043999877925962494e+00
2.043999877925962494e+00
2.037999694814905283e+00
2.042874843592639156e+00
2.042874843592639156e+00
2.072688253425702509e+00
2.061625415814691387e+00
2.061625415814691387e+00
2.057125278481399366e+00
2.057125278481399366e+00
2.084876125370036970e+00
2.079625965147862576e+00
2.079625965147862576e+00
2.058437818536942299e+00
2.055250221259193655e+00
2.055250221259193655e+00
2.061062898648029940e+00
2.061062898648029940e+00
2.050000061037018817e+00
2.042499832148198191e+00
2.042499832148198191e+00
2.071188207647938206e+00
2.071188207647938206e+00
2.064438001647999510e+00
2.048875026703695923e+00
2.048875026703695923e+00
2.060687887203588975e+00
2.060687887203588975e+00
2.071938230536820580e+00
2.050750083925901190e+00
2.050750083925901190e+00
2.034624591814935712e+00
2.055625232703635064e+00
2.055625232703635064e+00
2.046249946592608282e+00
2.049437543870357370e+00
2.049437543870357370e+00
2.037624683370464318e+00
2.045124912259285388e+00
2.045124912259285388e+00
2.054500198370311725e+00
2.054500198370311725e+00
2.046249946592608282e+00
2.056000244148076028e+00
2.056000244148076028e+00
2.061625415814691387e+00
2.061625415814691387e+00
2.050750083925901190e+00
2.066500564592425260e+00
2.066500564592425260e+00
2.061812921536912313e+00
2.061812921536912313e+00
2.068938138981292418e+00
2.061625415814691387e+00
2.061625415814691387e+00
2.066500564592425260e+00
2.066500564592425260e+00
2.057125278481399366e+00
2.069688161870173904e+00
2.069688161870173904e+00
2.073625782036805365e+00
2.054500198370311725e+00
2.054500198370311725e+00
2.040624774925992480e+00
2.040624774925992480e+00
2.055062715536973172e+00
2.065938047425763813e+00
2.065938047425763813e+00
2.075500839259010633e+00
2.075500839259010633e+00
2.063500473036897098e+00
2.058812829981383707e+00
2.058812829981383707e+00
2.059375347148045154e+00
2.067813104647969080e+00
2.067813104647969080e+00
2.063312967314676172e+00
2.063312967314676172e+00
2.052437635425885976e+00
2.024874294259468410e+00
2.024874294259468410e+00
2.037062166203802427e+00
2.037062166203802427e+00
2.046812463759269729e+00
2.052250129703665493e+00
2.052250129703665493e+00
2.053375164036988387e+00
2.053375164036988387e+00
2.040812280648213406e+00
2.045687429425947279e+00
2.045687429425947279e+00
2.048500015259254514e+00
2.048500015259254514e+00
2.053562669759208870e+00
2.062750450148014725e+00
2.062750450148014725e+00
2.062562944425794242e+00
2.062562944425794242e+00
2.064438001647999510e+00
2.063312967314676172e+00
2.063312967314676172e+00
2.064062990203558545e+00
2.075688344981231115e+00
2.075688344981231115e+00
2.064813013092440475e+00
2.064813013092440475e+00
2.069125644703512901e+00
2.085626148258918899e+00
2.085626148258918899e+00
2.044562395092623941e+00
2.044562395092623941e+00
2.044937406537064906e+00
2.048125003814813549e+00
2.048125003814813549e+00
2.039312234870449103e+00
2.039312234870449103e+00
2.039499740592669585e+00
2.034624591814935712e+00
2.034624591814935712e+00
2.072313241981261545e+00
2.072313241981261545e+00
2.088063722647786058e+00
2.101751640369884377e+00
2.101751640369884377e+00
2.087313699758903685e+00
2.052437635425885976e+00
2.052437635425885976e+00
2.056000244148076028e+00
2.056000244148076028e+00
2.048500015259254514e+00
2.025811822870570822e+00
2.025811822870570822e+00
2.040062257759331033e+00
2.040062257759331033e+00
2.063875484481338063e+00
2.073063264870143918e+00
2.073063264870143918e+00
2.071750724814600098e+00
2.071750724814600098e+00
2.057312784203619849e+00
2.036124637592700015e+00
2.025061799981688893e+00
2.021311685537278358e+00
2.021311685537278358e+00
2.047187475203710694e+00
2.047187475203710694e+00
2.055250221259193655e+00
2.099689077425458628e+00
2.099689077425458628e+00
2.102126651814325342e+00
2.087313699758903685e+00
2.087313699758903685e+00
2.085626148258918899e+00
2.085626148258918899e+00
2.057875301370280852e+00
2.057312784203619849e+00
2.057312784203619849e+00
2.032562028870509963e+00
2.032562028870509963e+00
2.016061525315103520e+00
2.015686513870662555e+00
2.015686513870662555e+00
2.035187108981597159e+00
2.035187108981597159e+00
2.058812829981383707e+00
2.068000610370189563e+00
2.069688161870173904e+00
2.076813379314554453e+00
2.076813379314554453e+00
2.068938138981292418e+00
2.068938138981292418e+00
2.037437177648243392e+00
2.029561937314981801e+00
2.029561937314981801e+00
2.023749259926145072e+00
2.036312143314920498e+00
2.036312143314920498e+00
2.054687704092532208e+00
2.054687704092532208e+00
2.074563310647907777e+00
2.077938413647877791e+00
2.077938413647877791e+00
2.085438642536698417e+00
2.085438642536698417e+00
2.056937772759178884e+00
2.059000335703604190e+00
2.059000335703604190e+00
2.076438367870113488e+00
2.076438367870113488e+00
2.066500564592425260e+00
2.058437818536942299e+00
2.058437818536942299e+00
2.072125736259041062e+00
2.072125736259041062e+00
2.071938230536820580e+00
2.070438184759056277e+00
2.070438184759056277e+00
2.033312051759392336e+00
2.033312051759392336e+00
2.023749259926145072e+00
2.055250221259193655e+00
2.055250221259193655e+00
2.095938962981048093e+00
2.069125644703512901e+00
2.069125644703512901e+00
2.041374797814874853e+00
2.041374797814874853e+00
2.043812372203741567e+00
2.043999877925962494e+00
2.043999877925962494e+00
2.043062349314859638e+00
2.074750816370128703e+00
2.074750816370128703e+00
2.072125736259041062e+00
2.072125736259041062e+00
2.064438001647999510e+00
2.067063081759087151e+00
2.067063081759087151e+00
2.057312784203619849e+00
2.057312784203619849e+00
2.045499923703726353e+00
2.019624134037293572e+00
2.019624134037293572e+00
2.027686880092776089e+00
2.027686880092776089e+00
2.018499099703970678e+00
2.076625873592333971e+00
2.076625873592333971e+00
2.090501297036652772e+00
2.090501297036652772e+00
2.089376262703329878e+00
2.088251228370006540e+00
2.088251228370006540e+00
2.070813196203497242e+00
2.080188482314524023e+00
2.080188482314524023e+00
2.034624591814935712e+00
2.034624591814935712e+00
1.998810998870815148e+00
2.047187475203710694e+00
2.047187475203710694e+00
2.056750267036957958e+00
2.056750267036957958e+00
2.062187932981353278e+00
2.047374980925931620e+00
2.047374980925931620e+00
2.068000610370189563e+00
2.068000610370189563e+00
2.078500930814539238e+00
2.064625507370219992e+00
2.064625507370219992e+00
2.041374797814874853e+00
2.041374797814874853e+00
2.057875301370280852e+00
2.048875026703695923e+00
2.048875026703695923e+00
2.043062349314859638e+00
2.043062349314859638e+00
2.043812372203741567e+00
2.036874660481581945e+00
2.036874660481581945e+00
2.013811456648457288e+00
2.013811456648457288e+00
2.070813196203497242e+00
2.095751457258827610e+00
2.095751457258827610e+00
2.073250770592364400e+00
2.092188848536637558e+00
2.092188848536637558e+00
2.104939237647633021e+00
2.104939237647633021e+00
2.058062807092501334e+00
2.050000061037018817e+00
2.050000061037018817e+00
2.040249763481551515e+00
2.036124637592700015e+00
2.033687063203833301e+00
2.036312143314920498e+00
2.036312143314920498e+00
2.047374980925931620e+00
2.047374980925931620e+00
2.072125736259041062e+00
2.048500015259254514e+00
2.048500015259254514e+00
2.024311777092806519e+00
2.057125278481399366e+00
2.057125278481399366e+00
2.033687063203833301e+00
2.033687063203833301e+00
2.029186925870540392e+00
2.028811914426099428e+00
2.028811914426099428e+00
2.075688344981231115e+00
2.075688344981231115e+00
2.101376628925443413e+00
2.093126377147739969e+00
2.093126377147739969e+00
2.083563585314493150e+00
2.083563585314493150e+00
2.062937955870235207e+00
2.062937955870235207e+00
2.057312784203619849e+00
2.055812738425855546e+00
2.055812738425855546e+00
2.057687795648060813e+00
2.057687795648060813e+00
2.031436994537187068e+00
2.021499191259499284e+00
2.021499191259499284e+00
2.052250129703665493e+00
2.052250129703665493e+00
2.073438276314584883e+00
2.059187841425824672e+00
2.059187841425824672e+00
2.026374340037232713e+00
2.026374340037232713e+00
2.029374431592760875e+00
2.062000427259132795e+00
2.062000427259132795e+00
2.080938505203405953e+00
2.080938505203405953e+00
2.119564683980834197e+00
2.058437818536942299e+00
2.058437818536942299e+00
2.042312326425977265e+00
2.043999877925962494e+00
2.043999877925962494e+00
2.051687612537003602e+00
2.051687612537003602e+00
2.060312875759148010e+00
2.027686880092776089e+00
2.032937040314951371e+00
2.032937040314951371e+00
2.026186834315011787e+00
2.026186834315011787e+00
2.070063173314615312e+00
2.084126102481154597e+00
2.084126102481154597e+00
2.086751182592242237e+00
2.086751182592242237e+00
2.085626148258918899e+00
2.063687978759117581e+00
2.063687978759117581e+00
2.023186742759483625e+00
2.050937589648121673e+00
2.050937589648121673e+00
2.050750083925901190e+00
2.050750083925901190e+00
2.040812280648213406e+00
2.037999694814905283e+00
2.037999694814905283e+00
2.078313425092318756e+00
2.078313425092318756e+00
2.084313608203375079e+00
2.041749809259315818e+00
2.041749809259315818e+00
2.055062715536973172e+00
2.055062715536973172e+00
2.061812921536912313e+00
2.071563219092379615e+00
2.071563219092379615e+00
2.049812555314798335e+00
2.049812555314798335e+00
2.053562669759208870e+00
2.050187566759239299e+00
2.050187566759239299e+00
2.045312417981505870e+00
2.045312417981505870e+00
2.029186925870540392e+00
2.033312051759392336e+00
2.033312051759392336e+00
2.020749168370616911e+00
2.067063081759087151e+00
2.067063081759087151e+00
2.077750907925656865e+00
2.077750907925656865e+00
2.040999786370433888e+00
1.981372966704306293e+00
1.981372966704306293e+00
2.104001709036531054e+00
2.104001709036531054e+00
2.095188940092165719e+00
2.106626789147617806e+00
2.106626789147617806e+00
2.065938047425763813e+00
2.059562852870265637e+00
2.059562852870265637e+00
2.054875209814752690e+00
2.054875209814752690e+00
2.068938138981292418e+00
2.066125553147984295e+00
2.066125553147984295e+00
2.063312967314676172e+00
2.063312967314676172e+00
2.068563127536851454e+00
2.041187292092654371e+00
2.041187292092654371e+00
2.017374065370647340e+00
2.017374065370647340e+00
2.060500381481368493e+00
2.090501297036652772e+00
2.090501297036652772e+00
2.078125919370098273e+00
2.078125919370098273e+00
2.070250679036835795e+00
2.064813013092440475e+00
2.080750999481185470e+00
2.080750999481185470e+00
2.046624958037049247e+00
2.043249855037080120e+00
2.043249855037080120e+00
2.074375804925687294e+00
2.074375804925687294e+00
2.059562852870265637e+00
2.054500198370311725e+00
2.054500198370311725e+00
2.040812280648213406e+00
2.029374431592760875e+00
2.029374431592760875e+00
2.014186468092898252e+00
2.014186468092898252e+00
2.016999053926206376e+00
2.027499374370555607e+00
2.027499374370555607e+00
2.058062807092501334e+00
2.058062807092501334e+00
2.096501480147709540e+00
2.098001525925473842e+00
2.098001525925473842e+00
2.062000427259132795e+00
2.062000427259132795e+00
2.083001068147831703e+00
2.083001068147831703e+00
2.058250312814721816e+00
2.058250312814721816e+00
2.066688070314646186e+00
2.050187566759239299e+00
2.050187566759239299e+00
1.982310495315408927e+00
2.108501846369823074e+00
2.108501846369823074e+00
2.072500747703482027e+00
2.072500747703482027e+00
2.034249580370494748e+00
2.016249031037324002e+00
2.016249031037324002e+00
2.053562669759208870e+00
2.053562669759208870e+00
2.072125736259041062e+00
2.052250129703665493e+00
2.052250129703665493e+00
2.053187658314767905e+00
2.077375896481215900e+00
2.077375896481215900e+00
2.076813379314554453e+00
2.076813379314554453e+00
2.034062074648274265e+00
2.035749626148258606e+00
2.035749626148258606e+00
2.049812555314798335e+00
2.049812555314798335e+00
2.068188116092410045e+00
2.079063447981200685e+00
2.079063447981200685e+00
2.086188665425580790e+00
2.086188665425580790e+00
2.036687154759361462e+00
2.039687246314890068e+00
2.039687246314890068e+00
2.077375896481215900e+00
2.086751182592242237e+00
2.086751182592242237e+00
2.091251319925535146e+00
2.085626148258918899e+00
2.085626148258918899e+00
2.085251136814477935e+00
2.085251136814477935e+00
2.067438093203528116e+00
2.049812555314798335e+00
2.049812555314798335e+00
2.039124729148228621e+00
2.039124729148228621e+00
2.024686788537247928e+00
2.015123996704001108e+00
2.015123996704001108e+00
2.026561845759453195e+00
2.077375896481215900e+00
2.077375896481215900e+00
2.090876308481094181e+00
2.090876308481094181e+00
2.080000976592303541e+00
2.087501205481124167e+00
2.087501205481124167e+00
2.074188299203466812e+00
2.074188299203466812e+00
2.040062257759331033e+00
2.050375072481459782e+00
2.050375072481459782e+00
2.023749259926145072e+00
2.023749259926145072e+00
2.015123996704001108e+00
2.089563768425550361e+00
2.089563768425550361e+00
2.125002349925229961e+00
2.126127384258552855e+00
2.126127384258552855e+00
2.107751823480941145e+00
2.107751823480941145e+00
2.084876125370036970e+00
2.076063356425672080e+00
2.076063356425672080e+00
2.056187749870296511e+00
2.056187749870296511e+00
1.998060975981932996e+00
1.982685506759849892e+00
1.982685506759849892e+00
2.025999328592791304e+00
2.025999328592791304e+00
2.051312601092562637e+00
2.058250312814721816e+00
2.058250312814721816e+00
2.071188207647938206e+00
2.071188207647938206e+00
2.059937864314706601e+00
2.046437452314828764e+00
2.046437452314828764e+00
2.035937131870479533e+00
2.035937131870479533e+00
2.032562028870509963e+00
2.057312784203619849e+00
2.057312784203619849e+00
2.073625782036805365e+00
2.073625782036805365e+00
2.053562669759208870e+00
2.079063447981200685e+00
2.079063447981200685e+00
2.075125827814569668e+00
2.065563035981322848e+00
2.065563035981322848e+00
2.078875942258980203e+00
2.074563310647907777e+00
2.074563310647907777e+00
2.081501022370067400e+00
2.081501022370067400e+00
2.041562303537095335e+00
2.082626056703390294e+00
2.082626056703390294e+00
2.106064271980956359e+00
2.106064271980956359e+00
2.089376262703329878e+00
2.087313699758903685e+00
2.087313699758903685e+00
2.097626514481032878e+00
2.054500198370311725e+00
2.054500198370311725e+00
2.042499832148198191e+00
2.042499832148198191e+00
2.016999053926206376e+00
1.997498458815271549e+00
1.997498458815271549e+00
2.042499832148198191e+00
2.042499832148198191e+00
2.092188848536637558e+00
2.073438276314584883e+00
2.062937955870235207e+00
2.030311960203863730e+00
2.030311960203863730e+00
2.062187932981353278e+00
2.071000701925717724e+00
2.071000701925717724e+00
2.074563310647907777e+00
2.074563310647907777e+00
2.081688528092287882e+00
2.071938230536820580e+00
2.071938230536820580e+00
2.089751274147770843e+00
2.089751274147770843e+00
2.072875759147922992e+00
2.062562944425794242e+00
2.062562944425794242e+00
2.093501388592180934e+00
2.093501388592180934e+00
2.052062623981445011e+00
2.034437086092715230e+00
2.034437086092715230e+00
2.029749443037202283e+00
2.029749443037202283e+00
2.018499099703970678e+00
2.083188573870052185e+00
2.083188573870052185e+00
2.067438093203528116e+00
2.067438093203528116e+00
2.111689443647572162e+00
2.096313974425489057e+00
2.096313974425489057e+00
2.040249763481551515e+00
2.038937223426007694e+00
2.038937223426007694e+00
2.090313791314432290e+00
2.090313791314432290e+00
2.032374523148289480e+00
2.022999237037263143e+00
2.022999237037263143e+00
1.987748161259804025e+00
1.987748161259804025e+00
1.998623493148594665e+00
2.013248939481795396e+00
2.013248939481795396e+00
2.123314798425245176e+00
2.185191686758019003e+00
2.185191686758019003e+00
2.186129215369121415e+00
2.186129215369121415e+00
2.123127292703024249e+00
2.014748985259559699e+00
2.014748985259559699e+00
1.979685415204321286e+00
1.979685415204321286e+00
2.044937406537064906e+00
2.043624866481521085e+00
2.043624866481521085e+00
2.024686788537247928e+00
2.024686788537247928e+00
1.976497817926572642e+00
1.980810449537644624e+00
1.980810449537644624e+00
2.057500289925840331e+00
2.080938505203405953e+00
2.080938505203405953e+00
2.051125095370342155e+00
2.051125095370342155e+00
1.998998504593035630e+00
2.046999969481490211e+00
2.046999969481490211e+00
2.142065370647297406e+00
2.142065370647297406e+00
2.196629535813471090e+00
2.113376995147556947e+00
2.113376995147556947e+00
2.062750450148014725e+00
2.062750450148014725e+00
2.056750267036957958e+00
2.072875759147922992e+00
2.072875759147922992e+00
2.048312509537034032e+00
2.048312509537034032e+00
2.137190221869563977e+00
2.101751640369884377e+00
2.101751640369884377e+00
1.991498275704214560e+00
1.991498275704214560e+00
2.048312509537034032e+00
2.054312692648091243e+00
2.054312692648091243e+00
2.067438093203528116e+00
2.052250129703665493e+00
2.052250129703665493e+00
2.051312601092562637e+00
2.051312601092562637e+00
2.046249946592608282e+00
2.045874935148167761e+00
2.045874935148167761e+00
2.119189672536393232e+00
2.119189672536393232e+00
2.083188573870052185e+00
2.059937864314706601e+00
2.059937864314706601e+00
2.024311777092806519e+00
2.024311777092806519e+00
2.052062623981445011e+00
2.070625690481276759e+00
2.070625690481276759e+00
2.093126377147739969e+00
2.092188848536637558e+00
2.090876308481094181e+00
2.037812189092684800e+00
2.037812189092684800e+00
1.905995666371654407e+00
1.948184453871272925e+00
1.948184453871272925e+00
2.034249580370494748e+00
2.034249580370494748e+00
2.139440290536210654e+00
2.141690359202856442e+00
2.141690359202856442e+00
2.096688985869930022e+00
2.096688985869930022e+00
2.065563035981322848e+00
2.121814752647480873e+00
2.121814752647480873e+00
2.080000976592303541e+00
2.080000976592303541e+00
2.101001617481002448e+00
2.125939878536332373e+00
2.125939878536332373e+00
2.094813928647724754e+00
2.094813928647724754e+00
1.994498367259743166e+00
1.994498367259743166e+00
2.098189031647694325e+00
2.097063997314370987e+00
2.097063997314370987e+00
2.076813379314554453e+00
2.076813379314554453e+00
