2.049625049592577852e+00
2.047562486648152102e+00
2.047562486648152102e+00
2.070250679036835795e+00
2.042874843592639156e+00
2.042874843592639156e+00
2.060312875759148010e+00
2.066125553147984295e+00
2.066125553147984295e+00
2.067063081759087151e+00
2.067063081759087151e+00
2.093126377147739969e+00
2.080938505203405953e+00
2.080938505203405953e+00
2.019811639759514499e+00
2.019811639759514499e+00
2.025249305703909375e+00
2.060125370036927084e+00
2.060125370036927084e+00
2.073063264870143918e+00
2.066313058870204777e+00
2.066313058870204777e+00
2.075875850703451597e+00
2.075875850703451597e+00
2.066688070314646186e+00
2.065375530259102366e+00
2.065375530259102366e+00
2.057687795648060813e+00
2.057687795648060813e+00
2.062750450148014725e+00
2.064813013092440475e+00
2.064813013092440475e+00
2.054875209814752690e+00
2.054875209814752690e+00
2.066500564592425260e+00
2.037437177648243392e+00
2.043999877925962494e+00
2.043999877925962494e+00
2.066500564592425260e+00
2.066500564592425260e+00
2.082438550981169811e+00
2.059187841425824672e+00
2.059187841425824672e+00
2.076250862147892562e+00
2.076250862147892562e+00
2.062187932981353278e+00
2.070813196203497242e+00
2.070813196203497242e+00
2.081876033814508364e+00
2.087126194036683202e+00
2.087126194036683202e+00
2.082063539536728847e+00
2.082063539536728847e+00
2.056937772759178884e+00
2.037812189092684800e+00
2.037812189092684800e+00
2.067250587481307633e+00
2.067250587481307633e+00
2.055625232703635064e+00
2.021499191259499284e+00
2.021499191259499284e+00
2.048875026703695923e+00
2.048875026703695923e+00
2.117314615314187964e+00
2.103251686147648680e+00
2.103251686147648680e+00
2.093126377147739969e+00
2.077000885036774935e+00
2.077000885036774935e+00
2.065750541703543330e+00
2.065750541703543330e+00
2.021874202703940249e+00
2.027499374370555607e+00
2.027499374370555607e+00
2.056562761314737475e+00
2.073438276314584883e+00
2.073438276314584883e+00
2.084501113925596005e+00
2.084501113925596005e+00
2.068563127536851454e+00
2.076063356425672080e+00
2.076063356425672080e+00
2.070438184759056277e+00
2.070438184759056277e+00
2.012686422315133949e+00
2.110751915036469750e+00
2.110751915036469750e+00
2.083563585314493150e+00
2.083563585314493150e+00
2.040249763481551515e+00
2.038749717703787212e+00
2.038749717703787212e+00
2.073625782036805365e+00
2.037999694814905283e+00
2.037999694814905283e+00
2.028249397259437981e+00
2.028249397259437981e+00
2.064813013092440475e+00
2.058250312814721816e+00
2.058250312814721816e+00
2.047187475203710694e+00
2.059562852870265637e+00
2.059562852870265637e+00
2.080000976592303541e+00
2.080000976592303541e+00
2.095376445814386202e+00
2.142065370647297406e+00
2.142065370647297406e+00
2.123877315591906623e+00
2.123877315591906623e+00
2.049062532425916405e+00
2.045874935148167761e+00
2.045874935148167761e+00
2.058250312814721816e+00
2.058250312814721816e+00
2.048875026703695923e+00
2.085438642536698417e+00
2.085438642536698417e+00
2.084876125370036970e+00
2.084876125370036970e+00
2.041374797814874853e+00
2.031624500259407551e+00
2.031624500259407551e+00
2.057125278481399366e+00
2.057500289925840331e+00
2.057500289925840331e+00
2.062375438703573760e+00
2.062375438703573760e+00
2.070813196203497242e+00
2.093126377147739969e+00
2.093126377147739969e+00
2.102689168980987233e+00
2.102689168980987233e+00
2.095751457258827610e+00
2.082063539536728847e+00
2.082063539536728847e+00
2.057875301370280852e+00
2.057875301370280852e+00
2.051875118259224084e+00
2.073625782036805365e+00
2.073625782036805365e+00
2.048500015259254514e+00
2.048500015259254514e+00
2.016999053926206376e+00
2.037249671926022909e+00
2.037249671926022909e+00
2.063875484481338063e+00
2.041937314981536300e+00
2.041937314981536300e+00
2.033687063203833301e+00
2.033687063203833301e+00
2.053000152592547423e+00
2.035937131870479533e+00
2.035937131870479533e+00
2.050562578203680708e+00
2.050562578203680708e+00
2.074750816370128703e+00
2.094813928647724754e+00
2.094813928647724754e+00
2.100439100314340557e+00
2.100439100314340557e+00
2.096501480147709540e+00
2.066313058870204777e+00
2.066313058870204777e+00
2.043624866481521085e+00
2.043624866481521085e+00
2.031624500259407551e+00
2.040249763481551515e+00
2.040249763481551515e+00
2.034062074648274265e+00
2.077000885036774935e+00
2.077000885036774935e+00
2.052625141148106458e+00
2.052625141148106458e+00
2.053187658314767905e+00
2.120877224036378017e+00
2.120877224036378017e+00
2.169066194647053525e+00
2.169066194647053525e+00
2.125564867091891408e+00
2.088251228370006540e+00
2.088251228370006540e+00
2.042312326425977265e+00
2.042312326425977265e+00
2.032749534592730889e+00
2.059000335703604190e+00
2.059000335703604190e+00
2.024311777092806519e+00
1.998060975981932996e+00
1.998060975981932996e+00
2.041187292092654371e+00
2.041187292092654371e+00
2.083938596758934114e+00
2.077000885036774935e+00
2.077000885036774935e+00
2.072500747703482027e+00
2.072500747703482027e+00
2.094438917203283790e+00
2.101189123203222930e+00
2.101189123203222930e+00
2.075125827814569668e+00
2.075125827814569668e+00
2.009498825037385306e+00
2.056375255592516993e+00
2.056375255592516993e+00
2.050000061037018817e+00
2.019249122592852608e+00
2.019249122592852608e+00
1.995998413037507468e+00
1.995998413037507468e+00
2.041562303537095335e+00
2.080000976592303541e+00
2.080000976592303541e+00
2.076438367870113488e+00
2.076438367870113488e+00
2.092376354258858040e+00
2.116752098147526517e+00
2.116752098147526517e+00
2.100814111758781966e+00
2.100814111758781966e+00
2.062937955870235207e+00
2.033687063203833301e+00
2.033687063203833301e+00
2.038749717703787212e+00
2.038749717703787212e+00
2.049625049592577852e+00
2.081126010925626435e+00
2.081126010925626435e+00
2.060875392925809457e+00
2.084126102481154597e+00
2.084126102481154597e+00
2.082813562425611220e+00
2.082813562425611220e+00
2.077000885036774935e+00
2.038562211981566730e+00
2.038562211981566730e+00
2.023561754203924590e+00
2.023561754203924590e+00
2.062187932981353278e+00
2.127439924314096675e+00
2.127439924314096675e+00
2.128002441480758122e+00
2.128002441480758122e+00
2.083751091036713632e+00
2.039124729148228621e+00
2.039124729148228621e+00
2.026374340037232713e+00
2.029374431592760875e+00
2.029374431592760875e+00
2.092001342814417075e+00
2.092001342814417075e+00
2.086376171147801273e+00
2.040437269203771997e+00
2.040437269203771997e+00
2.043812372203741567e+00
2.043812372203741567e+00
2.058437818536942299e+00
2.043437360759300603e+00
2.043437360759300603e+00
2.081501022370067400e+00
2.081501022370067400e+00
2.070438184759056277e+00
2.049812555314798335e+00
2.049812555314798335e+00
2.037437177648243392e+00
2.037437177648243392e+00
2.045499923703726353e+00
2.094438917203283790e+00
2.094438917203283790e+00
2.087313699758903685e+00
2.085063631092257452e+00
2.085063631092257452e+00
2.118439649647511303e+00
2.118439649647511303e+00
2.037812189092684800e+00
2.098751548814355772e+00
2.098751548814355772e+00
2.102314157536546269e+00
2.102314157536546269e+00
2.081876033814508364e+00
2.053375164036988387e+00
2.053375164036988387e+00
2.051875118259224084e+00
2.051875118259224084e+00
2.043624866481521085e+00
2.058250312814721816e+00
2.058250312814721816e+00
2.053750175481429796e+00
2.027874385814997016e+00
2.027874385814997016e+00
2.006311227759636218e+00
2.006311227759636218e+00
2.008748802148503376e+00
1.978935392315439357e+00
1.978935392315439357e+00
2.033124546037171854e+00
2.033124546037171854e+00
2.068375621814630971e+00
2.106064271980956359e+00
2.106064271980956359e+00
2.163253517258217240e+00
2.163253517258217240e+00
2.155565782647175688e+00
2.068000610370189563e+00
2.068000610370189563e+00
2.067625598925748598e+00
2.067625598925748598e+00
2.093876400036621899e+00
2.063500473036897098e+00
2.063500473036897098e+00
2.021311685537278358e+00
1.974247749259926188e+00
1.974247749259926188e+00
2.010811365092929126e+00
2.010811365092929126e+00
2.036874660481581945e+00
2.064250495925779028e+00
2.064250495925779028e+00
2.117502121036408447e+00
2.117502121036408447e+00
2.127814935758537640e+00
2.160440931424909561e+00
2.160440931424909561e+00
2.137377727591784460e+00
2.137377727591784460e+00
2.125002349925229961e+00
2.069313150425733383e+00
2.069313150425733383e+00
2.022436719870601696e+00
2.022436719870601696e+00
2.017561571092867823e+00
2.025811822870570822e+00
2.025811822870570822e+00
2.059937864314706601e+00
2.059937864314706601e+00
2.055437726981414581e+00
2.058437818536942299e+00
2.058437818536942299e+00
2.013248939481795396e+00
1.994685872981963648e+00
1.994685872981963648e+00
2.044562395092623941e+00
2.044562395092623941e+00
2.082813562425611220e+00
2.113376995147556947e+00
2.113376995147556947e+00
2.126127384258552855e+00
2.126127384258552855e+00
2.136252693258461566e+00
2.134565141758476781e+00
2.134565141758476781e+00
2.094438917203283790e+00
2.094438917203283790e+00
2.061812921536912313e+00
2.057125278481399366e+00
2.057125278481399366e+00
2.064813013092440475e+00
2.078875942258980203e+00
2.078875942258980203e+00
2.057687795648060813e+00
2.057687795648060813e+00
1.988310678426465694e+00
1.944996856593524059e+00
1.944996856593524059e+00
1.964684957426679368e+00
1.964684957426679368e+00
1.982122989593188223e+00
2.062937955870235207e+00
2.062937955870235207e+00
2.147315530869472244e+00
2.147315530869472244e+00
2.113001983703115982e+00
2.073438276314584883e+00
2.073438276314584883e+00
2.111314432203131197e+00
2.122564775536362802e+00
2.122564775536362802e+00
2.130440015869624837e+00
2.130440015869624837e+00
2.184441663869136629e+00
2.158003357036042402e+00
2.158003357036042402e+00
2.119189672536393232e+00
2.119189672536393232e+00
2.077188390758995418e+00
2.045874935148167761e+00
2.045874935148167761e+00
1.987935666982024729e+00
1.987935666982024729e+00
1.968060060426648716e+00
1.911808343760490692e+00
1.911808343760490692e+00
1.912745872371593547e+00
1.912745872371593547e+00
2.037999694814905283e+00
2.140377819147312621e+00
2.140377819147312621e+00
2.142815393536179780e+00
2.083001068147831703e+00
2.083001068147831703e+00
2.066313058870204777e+00
2.066313058870204777e+00
2.096313974425489057e+00
2.093501388592180934e+00
2.093501388592180934e+00
2.115252052369762659e+00
2.115252052369762659e+00
2.012311410870692985e+00
1.986998138370922096e+00
1.986998138370922096e+00
2.074938322092349186e+00
2.074938322092349186e+00
2.127439924314096675e+00
2.189316812646870059e+00
2.189316812646870059e+00
2.131002533036286284e+00
2.088813745536667987e+00
2.088813745536667987e+00
2.068750633259071936e+00
2.068750633259071936e+00
2.086751182592242237e+00
2.036687154759361462e+00
2.036687154759361462e+00
2.030311960203863730e+00
2.030311960203863730e+00
2.068000610370189563e+00
2.034437086092715230e+00
2.034437086092715230e+00
2.007998779259621003e+00
2.007998779259621003e+00
2.038187200537125765e+00
1.980247932370982955e+00
1.980247932370982955e+00
2.004811181981871915e+00
2.004811181981871915e+00
2.141127842036194995e+00
2.150878139591662741e+00
2.150878139591662741e+00
2.095376445814386202e+00
2.095376445814386202e+00
2.134190130314035372e+00
2.067063081759087151e+00
2.067063081759087151e+00
2.075688344981231115e+00
2.077375896481215900e+00
2.077375896481215900e+00
2.024311777092806519e+00
2.024311777092806519e+00
2.115814569536424106e+00
2.178441480758079862e+00
2.178441480758079862e+00
2.103251686147648680e+00
2.103251686147648680e+00
2.058250312814721816e+00
1.988123172704245212e+00
1.988123172704245212e+00
2.023749259926145072e+00
2.023749259926145072e+00
2.091626331369976111e+00
2.084876125370036970e+00
2.084876125370036970e+00
2.082251045258949329e+00
2.008561296426282894e+00
2.008561296426282894e+00
2.010436353648488161e+00
2.010436353648488161e+00
2.033687063203833301e+00
2.035374614703817642e+00
2.035374614703817642e+00
2.079063447981200685e+00
2.079063447981200685e+00
2.047937498092593067e+00
2.047749992370372585e+00
2.047749992370372585e+00
2.015311502426221590e+00
1.989435712759789032e+00
1.989435712759789032e+00
2.162503494369335311e+00
2.162503494369335311e+00
2.171878780480361648e+00
2.082626056703390294e+00
2.082626056703390294e+00
1.983060518204291078e+00
1.983060518204291078e+00
2.013811456648457288e+00
2.145627979369487459e+00
2.145627979369487459e+00
2.092563859981078966e+00
2.092563859981078966e+00
2.039312234870449103e+00
2.175066377758110736e+00
2.175066377758110736e+00
2.115252052369762659e+00
2.115252052369762659e+00
2.096876491592150504e+00
2.036124637592700015e+00
2.036124637592700015e+00
2.087501205481124167e+00
2.073250770592364400e+00
2.073250770592364400e+00
2.050750083925901190e+00
2.050750083925901190e+00
2.053562669759208870e+00
2.136252693258461566e+00
2.136252693258461566e+00
2.049062532425916405e+00
2.049062532425916405e+00
2.040249763481551515e+00
2.024124271370586037e+00
2.024124271370586037e+00
1.944246833704641908e+00
1.944246833704641908e+00
2.031061983092746104e+00
2.057687795648060813e+00
2.057687795648060813e+00
1.962622394482253396e+00
2.080188482314524023e+00
2.080188482314524023e+00
2.189879329813531950e+00
2.189879329813531950e+00
2.185191686758019003e+00
2.191191869869075770e+00
2.191191869869075770e+00
2.151815668202764709e+00
2.151815668202764709e+00
2.080938505203405953e+00
2.025061799981688893e+00
2.025061799981688893e+00
2.035562120426038124e+00
2.035562120426038124e+00
2.057125278481399366e+00
1.953997131260109432e+00
1.953997131260109432e+00
1.950809533982360344e+00
1.950809533982360344e+00
2.100251594592120075e+00
2.061812921536912313e+00
2.061812921536912313e+00
2.005936216315195253e+00
2.066313058870204777e+00
2.066313058870204777e+00
2.057875301370280852e+00
2.057875301370280852e+00
2.022811731315042216e+00
2.053562669759208870e+00
2.053562669759208870e+00
2.156878322702719064e+00
2.156878322702719064e+00
2.200567155980101663e+00
2.183879146702475182e+00
2.183879146702475182e+00
2.116752098147526517e+00
2.116752098147526517e+00
1.999561021759697299e+00
1.983435529648732043e+00
1.983435529648732043e+00
1.979122898037659839e+00
1.970685140537736135e+00
1.970685140537736135e+00
1.923621204260383966e+00
1.923621204260383966e+00
2.065938047425763813e+00
2.239943357646412725e+00
2.239943357646412725e+00
2.272194341868343237e+00
2.272194341868343237e+00
2.124252327036347587e+00
1.997123447370830363e+00
1.997123447370830363e+00
2.082063539536728847e+00
2.082063539536728847e+00
2.049250038148136888e+00
2.024124271370586037e+00
2.024124271370586037e+00
2.021499191259499284e+00
2.021499191259499284e+00
2.132315073091830104e+00
1.990373241370891666e+00
1.990373241370891666e+00
2.148815576647236547e+00
2.148815576647236547e+00
2.142065370647297406e+00
2.023374248481704107e+00
2.023374248481704107e+00
2.012873928037354432e+00
2.061812921536912313e+00
2.061812921536912313e+00
2.058062807092501334e+00
2.058062807092501334e+00
1.988685689870906881e+00
1.924371227149266117e+00
1.924371227149266117e+00
1.994123355815301979e+00
1.994123355815301979e+00
2.030874477370525177e+00
2.161003448591571008e+00
2.161003448591571008e+00
2.108314340647602592e+00
2.108314340647602592e+00
2.108501846369823074e+00
2.135127658925138228e+00
2.135127658925138228e+00
2.108689352092044000e+00
2.108689352092044000e+00
2.182004089480269915e+00
2.224567888424329176e+00
2.224567888424329176e+00
2.183129123813593253e+00
2.026374340037232713e+00
2.026374340037232713e+00
2.012123905148472502e+00
2.012123905148472502e+00
2.017936582537308787e+00
1.924746238593707082e+00
1.924746238593707082e+00
1.819180516983550655e+00
1.819180516983550655e+00
1.896057863093966622e+00
2.050937589648121673e+00
2.050937589648121673e+00
1.969747611926633502e+00
1.969747611926633502e+00
1.873182164983062226e+00
2.145065462202826012e+00
2.145065462202826012e+00
2.183879146702475182e+00
2.053187658314767905e+00
2.053187658314767905e+00
2.004436170537430950e+00
2.004436170537430950e+00
2.262631550035096417e+00
2.307257911923581428e+00
2.307257911923581428e+00
2.158565874202703849e+00
2.158565874202703849e+00
2.015499008148442073e+00
1.886307565538499098e+00
1.886307565538499098e+00
2.050000061037018817e+00
1.999186010315256334e+00
1.999186010315256334e+00
1.938246650593584919e+00
1.938246650593584919e+00
2.172628803369243577e+00
2.099126560258797181e+00
2.099126560258797181e+00
1.912370860927152361e+00
1.981935483870967740e+00
1.981935483870967740e+00
2.165503585924863472e+00
2.165503585924863472e+00
2.210129947813348927e+00
2.229068025757622085e+00
2.229068025757622085e+00
2.173003814813684542e+00
2.173003814813684542e+00
2.009873836481826270e+00
2.037624683370464318e+00
2.037624683370464318e+00
2.083938596758934114e+00
2.083938596758934114e+00
2.055812738425855546e+00
1.934496536149174606e+00
1.934496536149174606e+00
2.140190313425092139e+00
2.140190313425092139e+00
2.208442396313364142e+00
1.905995666371654407e+00
1.905995666371654407e+00
1.780929349650563154e+00
1.601111362041077957e+00
1.601111362041077957e+00
2.004248664815210468e+00
2.004248664815210468e+00
2.393135532700583212e+00
2.387510361033966966e+00
2.387510361033966966e+00
2.125564867091891408e+00
2.125564867091891408e+00
1.908808252204962308e+00
2.058437818536942299e+00
2.058437818536942299e+00
2.235068208868678852e+00
2.235068208868678852e+00
2.121252235480818982e+00
2.159878414258247670e+00
2.159878414258247670e+00
2.168691183202612560e+00
2.168691183202612560e+00
2.073063264870143918e+00
1.982498001037629409e+00
1.982498001037629409e+00
1.945184362315744542e+00
2.109814386425366894e+00
2.109814386425366894e+00
2.024311777092806519e+00
2.024311777092806519e+00
1.838493606372264777e+00
1.757116122928556123e+00
1.757116122928556123e+00
1.814305368205817004e+00
1.814305368205817004e+00
1.931871456038086965e+00
2.017936582537308787e+00
2.017936582537308787e+00
2.323383404034546906e+00
2.323383404034546906e+00
2.398573198644978088e+00
2.415448713644825496e+00
2.415448713644825496e+00
2.179941526535844165e+00
2.179941526535844165e+00
2.128752464369640052e+00
1.952122074037903943e+00
1.952122074037903943e+00
1.927933835871455948e+00
2.088813745536667987e+00
2.088813745536667987e+00
2.292444959868159771e+00
2.292444959868159771e+00
2.166628620258186366e+00
1.983248023926511561e+00
1.983248023926511561e+00
1.827243263039033172e+00
1.827243263039033172e+00
1.676301156651509139e+00
1.850306466872157829e+00
1.850306466872157829e+00
1.905433149204992960e+00
1.905433149204992960e+00
2.066688070314646186e+00
2.504513931699575480e+00
2.504513931699575480e+00
2.178441480758079862e+00
2.178441480758079862e+00
1.912183355204931878e+00
1.956622211371196629e+00
1.956622211371196629e+00
1.855744132816553149e+00
2.086376171147801273e+00
2.086376171147801273e+00
2.332383678701132279e+00
2.332383678701132279e+00
2.522139469588305261e+00
2.111126926480910715e+00
1.964122440260017699e+00
1.964122440260017699e+00
2.028249397259437981e+00
1.993748344370861014e+00
1.993748344370861014e+00
1.814680379650257747e+00
1.814680379650257747e+00
1.830055848872341073e+00
1.887245094149601732e+00
1.887245094149601732e+00
2.039874752037110550e+00
2.039874752037110550e+00
2.009498825037385306e+00
2.260381481368449741e+00
2.260381481368449741e+00
2.191754387035737217e+00
2.202254707480086449e+00
2.202254707480086449e+00
2.086938688314462720e+00
2.086938688314462720e+00
2.058812829981383707e+00
2.225130405590991067e+00
2.225130405590991067e+00
2.314945646534623425e+00
2.314945646534623425e+00
2.025624317148350340e+00
2.025624317148350340e+00
1.984935575426496124e+00
1.984935575426496124e+00
1.702551957762383106e+00
1.783741935483871055e+00
1.783741935483871055e+00
2.036687154759361462e+00
2.005936216315195253e+00
2.005936216315195253e+00
1.974622760704367153e+00
1.974622760704367153e+00
2.035749626148258606e+00
2.066500564592425260e+00
2.066500564592425260e+00
2.339883907589953349e+00
2.339883907589953349e+00
2.289069856868190644e+00
2.072688253425702509e+00
2.072688253425702509e+00
2.172066286202582130e+00
2.172066286202582130e+00
2.237880794701986531e+00
1.983060518204291078e+00
1.983060518204291078e+00
1.955684682760093995e+00
1.955684682760093995e+00
1.902433057649464576e+00
1.980997955259865106e+00
1.967685048982207752e+00
1.967685048982207752e+00
2.222880336924344391e+00
2.222880336924344391e+00
2.250443678090761956e+00
1.817867976928006835e+00
1.817867976928006835e+00
2.142252876369517889e+00
2.185004181035798521e+00
1.934496536149174606e+00
1.934496536149174606e+00
1.786367015594958252e+00
1.786367015594958252e+00
2.060500381481368493e+00
2.239193334757530351e+00
2.239193334757530351e+00
2.173191320535905025e+00
2.173191320535905025e+00
2.140752830591753586e+00
1.977810357982116241e+00
1.977810357982116241e+00
1.838493606372264777e+00
1.838493606372264777e+00
1.919308572649311984e+00
2.146378002258369833e+00
2.146378002258369833e+00
2.058625324259163225e+00
2.058625324259163225e+00
2.071938230536820580e+00
2.150128116702780368e+00
2.150128116702780368e+00
2.206942350535599839e+00
1.707802117984557722e+00
1.707802117984557722e+00
1.769303994872890362e+00
1.769303994872890362e+00
2.184629169591357556e+00
2.030499465926084213e+00
2.030499465926084213e+00
2.138690267647328280e+00
2.138690267647328280e+00
2.268444227423932702e+00
1.975185277871028822e+00
1.975185277871028822e+00
2.294320017090365038e+00
2.294320017090365038e+00
2.181816583758049433e+00
2.162691000091555793e+00
2.162691000091555793e+00
1.994873378704184130e+00
1.989810724204229997e+00
1.989810724204229997e+00
2.102501663258766751e+00
2.102501663258766751e+00
1.967685048982207752e+00
2.259443952757347329e+00
2.259443952757347329e+00
2.142252876369517889e+00
2.142252876369517889e+00
2.183129123813593253e+00
2.007061250648518591e+00
2.007061250648518591e+00
1.836806054872280214e+00
1.836806054872280214e+00
1.784304452650532724e+00
1.435168797875911784e+00
1.435168797875911784e+00
1.785429486983855618e+00
1.862869350260933254e+00
1.862869350260933254e+00
2.570140934476760286e+00
2.570140934476760286e+00
2.470950407422101591e+00
2.346071596423230599e+00
2.346071596423230599e+00
2.145440473647266977e+00
1.829680837427900109e+00
1.829680837427900109e+00
1.833243446150089939e+00
1.833243446150089939e+00
2.056375255592516993e+00
1.969560106204413019e+00
1.969560106204413019e+00
2.463450178533280521e+00
2.463450178533280521e+00
2.087501205481124167e+00
2.008936307870723859e+00
2.008936307870723859e+00
2.108876857814264483e+00
2.041187292092654371e+00
2.041187292092654371e+00
2.065563035981322848e+00
2.065563035981322848e+00
2.237318277535325084e+00
2.302007751701407035e+00
2.302007751701407035e+00
2.096126468703268575e+00
2.096126468703268575e+00
1.972935209204382367e+00
1.977060335093234089e+00
1.977060335093234089e+00
1.886495071260719580e+00
1.886495071260719580e+00
2.018686605426191161e+00
2.129314981536301499e+00
2.129314981536301499e+00
2.061812921536912313e+00
2.061812921536912313e+00
2.157440839869380955e+00
2.149940610980559885e+00
2.149940610980559885e+00
2.217630176702169997e+00
2.217630176702169997e+00
1.994123355815301979e+00
1.931871456038086965e+00
1.931871456038086965e+00
1.841493697927793161e+00
2.114877040925321250e+00
2.114877040925321250e+00
2.234880703146458369e+00
2.234880703146458369e+00
2.162315988647114828e+00
2.059937864314706601e+00
2.059937864314706601e+00
2.065563035981322848e+00
2.065563035981322848e+00
1.972185186315500438e+00
1.994123355815301979e+00
1.994123355815301979e+00
1.988310678426465694e+00
1.988310678426465694e+00
1.877307290871913947e+00
1.953434614093447763e+00
1.953434614093447763e+00
2.131377544480727693e+00
2.131377544480727693e+00
2.415823725089266905e+00
2.171878780480361648e+00
2.171878780480361648e+00
2.098189031647694325e+00
2.098189031647694325e+00
1.970872646259956840e+00
2.008561296426282894e+00
2.008561296426282894e+00
1.942184270760216158e+00
1.979872920926541990e+00
1.979872920926541990e+00
2.141877864925076924e+00
2.141877864925076924e+00
2.084126102481154597e+00
1.998810998870815148e+00
1.998810998870815148e+00
1.967310037537766565e+00
1.967310037537766565e+00
2.048500015259254514e+00
2.146002990813928868e+00
2.146002990813928868e+00
2.222505325479903426e+00
2.146378002258369833e+00
2.146378002258369833e+00
2.103814203314310571e+00
2.103814203314310571e+00
2.045874935148167761e+00
2.157815851313821920e+00
2.157815851313821920e+00
2.148628070925016065e+00
2.148628070925016065e+00
2.231130588702047834e+00
2.169816217535935454e+00
2.169816217535935454e+00
2.116939603869747000e+00
2.116939603869747000e+00
2.044749900814844423e+00
1.953997131260109432e+00
1.953997131260109432e+00
1.907308206427198227e+00
1.907308206427198227e+00
1.767053926206244130e+00
1.778116763817255253e+00
1.778116763817255253e+00
2.132315073091830104e+00
2.132315073091830104e+00
2.182004089480269915e+00
2.092376354258858040e+00
2.092376354258858040e+00
2.066875576036866669e+00
2.078688436536759720e+00
2.078688436536759720e+00
2.163628528702658205e+00
2.163628528702658205e+00
2.116002075258644588e+00
2.021874202703940249e+00
2.021874202703940249e+00
1.933183996093630785e+00
1.933183996093630785e+00
2.059750358592486119e+00
2.150690633869442259e+00
2.150690633869442259e+00
2.109439374980925930e+00
2.109439374980925930e+00
2.095376445814386202e+00
2.203942258980071234e+00
2.203942258980071234e+00
2.239568346201971760e+00
2.239568346201971760e+00
2.186316721091342341e+00
2.112064455092013571e+00
2.112064455092013571e+00
1.948559465315714112e+00
1.939934202093569704e+00
1.939934202093569704e+00
2.008186284981841485e+00
2.008186284981841485e+00
1.937496627704702989e+00
1.834180974761192573e+00
1.834180974761192573e+00
1.863431867427594923e+00
1.863431867427594923e+00
2.025999328592791304e+00
2.227567979979857782e+00
2.227567979979857782e+00
2.233005645924253102e+00
2.341008941923276243e+00
2.341008941923276243e+00
2.219130222479934300e+00
2.219130222479934300e+00
2.083563585314493150e+00
1.886307565538499098e+00
1.886307565538499098e+00
1.948184453871272925e+00
1.948184453871272925e+00
2.136065187536240639e+00
2.129127475814081016e+00
2.129127475814081016e+00
2.065375530259102366e+00
2.065375530259102366e+00
2.012123905148472502e+00
1.983248023926511561e+00
2.016811548203985893e+00
2.035749626148258606e+00
2.035749626148258606e+00
1.983998046815393712e+00
2.138127750480666833e+00
2.138127750480666833e+00
2.076063356425672080e+00
2.076063356425672080e+00
2.028999420148319910e+00
2.053937681203650278e+00
2.053937681203650278e+00
2.067625598925748598e+00
2.067625598925748598e+00
2.138127750480666833e+00
2.142252876369517889e+00
2.142252876369517889e+00
2.135315164647358710e+00
2.135315164647358710e+00
2.110751915036469750e+00
2.124814844203009478e+00
2.124814844203009478e+00
2.149753105258339403e+00
1.948746971037934594e+00
1.948746971037934594e+00
2.007998779259621003e+00
2.007998779259621003e+00
1.937871639149143954e+00
1.960747337260048351e+00
1.960747337260048351e+00
2.128002441480758122e+00
2.128002441480758122e+00
2.103251686147648680e+00
2.113564500869777874e+00
2.113564500869777874e+00
2.208254890591143660e+00
2.208254890591143660e+00
2.189504318369090985e+00
1.998623493148594665e+00
1.998623493148594665e+00
1.837743583483382848e+00
2.017374065370647340e+00
2.017374065370647340e+00
2.067438093203528116e+00
2.067438093203528116e+00
2.023186742759483625e+00
2.150315622425000850e+00
2.150315622425000850e+00
2.135315164647358710e+00
2.135315164647358710e+00
1.944434339426862390e+00
2.244818506424146598e+00
2.244818506424146598e+00
2.179941526535844165e+00
2.179941526535844165e+00
2.013436445204016323e+00
2.049625049592577852e+00
2.049625049592577852e+00
2.091626331369976111e+00
2.091626331369976111e+00
2.068375621814630971e+00
2.168316171758171151e+00
2.168316171758171151e+00
2.191941892757957699e+00
2.191941892757957699e+00
1.900558000427259309e+00
1.868307016205328575e+00
1.868307016205328575e+00
2.081313516647846917e+00
2.031436994537187068e+00
2.031436994537187068e+00
2.039312234870449103e+00
2.039312234870449103e+00
2.161378460036011973e+00
2.010998870815149164e+00
2.010998870815149164e+00
1.954184636982329915e+00
1.954184636982329915e+00
2.111126926480910715e+00
2.258881435590685438e+00
2.258881435590685438e+00
2.145252967925046494e+00
2.145252967925046494e+00
2.015311502426221590e+00
1.972747703482162107e+00
1.972747703482162107e+00
1.948746971037934594e+00
1.948746971037934594e+00
2.050562578203680708e+00
2.094626422925504272e+00
2.094626422925504272e+00
2.113189489425336465e+00
2.113189489425336465e+00
2.071938230536820580e+00
2.171316263313699757e+00
2.171316263313699757e+00
2.162128482924894346e+00
2.087688711203345093e+00
2.087688711203345093e+00
2.170753746147038310e+00
2.170753746147038310e+00
2.260006469924008776e+00
2.175441389202551257e+00
2.175441389202551257e+00
2.143002899258400262e+00
2.143002899258400262e+00
1.939934202093569704e+00
1.766491409039582683e+00
1.742865688039796135e+00
1.772866603595080637e+00
1.772866603595080637e+00
1.994310861537522683e+00
2.119564683980834197e+00
2.119564683980834197e+00
2.149565599536118921e+00
2.149565599536118921e+00
2.142815393536179780e+00
2.103064180425428198e+00
2.103064180425428198e+00
2.084688619647816488e+00
2.084688619647816488e+00
2.079063447981200685e+00
2.110189397869807859e+00
2.110189397869807859e+00
1.983998046815393712e+00
2.003123630481887130e+00
2.003123630481887130e+00
2.065375530259102366e+00
2.065375530259102366e+00
1.947059419537949809e+00
2.109251869258705447e+00
2.109251869258705447e+00
2.214067567979979945e+00
2.201879696035645484e+00
2.158565874202703849e+00
2.158565874202703849e+00
2.203942258980071234e+00
2.160440931424909561e+00
2.160440931424909561e+00
1.988498184148686176e+00
1.988498184148686176e+00
1.933371501815851268e+00
1.928121341593676652e+00
1.928121341593676652e+00
2.009498825037385306e+00
2.009498825037385306e+00
2.058250312814721816e+00
2.192879421369060555e+00
2.192879421369060555e+00
2.103064180425428198e+00
2.103064180425428198e+00
2.033124546037171854e+00
2.113752006591998356e+00
2.113752006591998356e+00
2.079063447981200685e+00
2.020936674092837393e+00
2.020936674092837393e+00
2.019999145481734981e+00
2.019999145481734981e+00
1.969372600482192537e+00
2.012311410870692985e+00
2.012311410870692985e+00
2.072500747703482027e+00
2.080188482314524023e+00
2.080188482314524023e+00
2.097251503036591469e+00
2.170566240424817828e+00
2.170566240424817828e+00
2.155753288369396170e+00
2.155753288369396170e+00
2.035187108981597159e+00
2.036874660481581945e+00
2.064625507370219992e+00
2.064625507370219992e+00
1.981747978148747258e+00
1.981747978148747258e+00
2.029561937314981801e+00
2.108126834925382109e+00
2.108126834925382109e+00
2.083563585314493150e+00
2.116939603869747000e+00
2.116939603869747000e+00
2.087126194036683202e+00
2.087126194036683202e+00
2.104376720480972018e+00
2.085813653981139382e+00
2.085813653981139382e+00
2.006123722037415735e+00
2.006123722037415735e+00
1.938246650593584919e+00
1.995248390148625317e+00
1.995248390148625317e+00
2.101001617481002448e+00
2.101001617481002448e+00
2.069875667592394830e+00
2.103439191869869163e+00
2.103439191869869163e+00
2.080938505203405953e+00
2.080938505203405953e+00
2.095563951536606684e+00
2.089188756981108952e+00
2.089188756981108952e+00
2.054312692648091243e+00
2.053750175481429796e+00
2.053750175481429796e+00
2.018686605426191161e+00
2.018686605426191161e+00
2.064062990203558545e+00
2.065000518814661401e+00
2.065000518814661401e+00
2.066500564592425260e+00
2.066500564592425260e+00
2.069125644703512901e+00
2.026186834315011787e+00
2.026186834315011787e+00
2.083938596758934114e+00
2.114689535203100768e+00
2.114689535203100768e+00
2.096876491592150504e+00
2.096876491592150504e+00
2.044749900814844423e+00
2.056937772759178884e+00
2.056937772759178884e+00
1.958122257148960932e+00
1.958122257148960932e+00
2.163441022980437278e+00
2.137002716147343495e+00
2.137002716147343495e+00
2.020749168370616911e+00
2.020749168370616911e+00
2.024686788537247928e+00
2.080563493758964988e+00
2.080563493758964988e+00
2.108314340647602592e+00
2.050187566759239299e+00
2.050187566759239299e+00
2.099876583147679110e+00
2.099876583147679110e+00
2.053750175481429796e+00
2.018499099703970678e+00
2.018499099703970678e+00
2.103814203314310571e+00
2.103814203314310571e+00
2.152565691091647082e+00
2.111876949369793088e+00
2.111876949369793088e+00
2.050750083925901190e+00
2.048125003814813549e+00
2.048125003814813549e+00
2.041562303537095335e+00
2.041562303537095335e+00
2.007248756370739073e+00
2.037812189092684800e+00
2.037812189092684800e+00
2.059000335703604190e+00
2.059000335703604190e+00
2.046624958037049247e+00
2.089376262703329878e+00
2.089376262703329878e+00
2.043624866481521085e+00
2.043624866481521085e+00
1.968247566148869199e+00
2.057875301370280852e+00
2.057875301370280852e+00
2.092563859981078966e+00
2.092563859981078966e+00
2.119189672536393232e+00
2.119189672536393232e+00
2.025061799981688893e+00
2.025061799981688893e+00
2.077375896481215900e+00
2.092376354258858040e+00
2.092376354258858040e+00
2.051125095370342155e+00
2.037249671926022909e+00
2.037249671926022909e+00
2.053375164036988387e+00
2.053375164036988387e+00
2.063500473036897098e+00
2.047562486648152102e+00
2.047562486648152102e+00
2.042499832148198191e+00
2.042499832148198191e+00
2.011748893704031538e+00
2.062937955870235207e+00
2.062937955870235207e+00
2.084501113925596005e+00
2.084501113925596005e+00
2.041187292092654371e+00
2.073438276314584883e+00
2.073438276314584883e+00
2.054687704092532208e+00
2.054687704092532208e+00
2.123314798425245176e+00
2.060875392925809457e+00
2.060875392925809457e+00
2.024499282815027001e+00
2.024499282815027001e+00
2.093876400036621899e+00
2.117502121036408447e+00
2.117502121036408447e+00
2.114877040925321250e+00
2.076063356425672080e+00
2.076063356425672080e+00
2.012686422315133949e+00
2.012686422315133949e+00
2.052437635425885976e+00
2.047937498092593067e+00
2.047937498092593067e+00
2.052437635425885976e+00
2.052437635425885976e+00
2.081313516647846917e+00
2.065375530259102366e+00
2.065375530259102366e+00
2.073438276314584883e+00
2.073438276314584883e+00
2.107189306314279698e+00
2.111689443647572162e+00
2.111689443647572162e+00
2.085813653981139382e+00
2.085813653981139382e+00
2.007623767815180038e+00
2.036499649037140980e+00
2.036499649037140980e+00
2.015686513870662555e+00
2.080938505203405953e+00
2.080938505203405953e+00
2.076625873592333971e+00
2.076625873592333971e+00
2.066500564592425260e+00
2.089001251258888470e+00
2.089001251258888470e+00
2.090876308481094181e+00
2.090876308481094181e+00
2.065750541703543330e+00
2.041374797814874853e+00
2.041374797814874853e+00
2.056750267036957958e+00
2.056750267036957958e+00
2.045874935148167761e+00
2.060312875759148010e+00
2.060312875759148010e+00
2.101001617481002448e+00
2.051500106814783120e+00
2.051500106814783120e+00
2.040624774925992480e+00
2.040624774925992480e+00
2.062187932981353278e+00
2.092938871425519931e+00
2.092938871425519931e+00
2.043999877925962494e+00
2.043999877925962494e+00
2.030686971648304695e+00
2.115064546647541732e+00
2.115064546647541732e+00
2.146002990813928868e+00
2.146002990813928868e+00
2.047374980925931620e+00
2.049437543870357370e+00
2.049437543870357370e+00
2.062937955870235207e+00
2.062937955870235207e+00
2.028436902981658463e+00
2.101751640369884377e+00
2.101751640369884377e+00
2.092751365703299449e+00
2.098751548814355772e+00
2.098751548814355772e+00
2.082438550981169811e+00
2.082438550981169811e+00
2.044562395092623941e+00
2.046999969481490211e+00
2.046999969481490211e+00
2.069500656147953865e+00
2.033874568926053783e+00
2.033874568926053783e+00
1.927933835871455948e+00
1.968060060426648716e+00
1.968060060426648716e+00
2.077000885036774935e+00
2.065375530259102366e+00
2.065375530259102366e+00
2.093126377147739969e+00
2.093126377147739969e+00
2.113189489425336465e+00
2.119752189703054679e+00
2.119752189703054679e+00
2.129689992980742907e+00
2.129689992980742907e+00
2.088438734092227023e+00
2.069500656147953865e+00
2.069500656147953865e+00
2.039124729148228621e+00
2.039124729148228621e+00
1.945184362315744542e+00
2.014186468092898252e+00
2.014186468092898252e+00
2.068375621814630971e+00
2.068375621814630971e+00
2.081313516647846917e+00
2.146002990813928868e+00
2.076625873592333971e+00
2.076625873592333971e+00
2.029374431592760875e+00
2.029749443037202283e+00
2.029749443037202283e+00
2.066500564592425260e+00
2.066500564592425260e+00
2.056187749870296511e+00
2.056750267036957958e+00
2.056750267036957958e+00
2.045874935148167761e+00
2.045874935148167761e+00
2.045687429425947279e+00
2.107001800592058771e+00
2.107001800592058771e+00
2.091063814203314664e+00
2.091063814203314664e+00
2.049625049592577852e+00
2.035374614703817642e+00
2.035374614703817642e+00
2.074188299203466812e+00
2.081313516647846917e+00
2.081313516647846917e+00
2.061250404370250422e+00
2.061250404370250422e+00
2.029374431592760875e+00
2.068375621814630971e+00
2.068375621814630971e+00
2.073625782036805365e+00
2.073625782036805365e+00
2.062000427259132795e+00
2.079438459425641650e+00
2.079438459425641650e+00
2.055250221259193655e+00
2.055250221259193655e+00
2.053562669759208870e+00
2.036874660481581945e+00
2.036874660481581945e+00
2.046624958037049247e+00
2.046249946592608282e+00
2.046249946592608282e+00
2.071375713370158689e+00
2.071375713370158689e+00
2.091251319925535146e+00
2.100626606036561483e+00
2.100626606036561483e+00
2.062187932981353278e+00
2.062187932981353278e+00
2.046062440870388244e+00
2.051875118259224084e+00
2.051875118259224084e+00
2.052812646870326940e+00
2.052812646870326940e+00
2.047374980925931620e+00
2.035562120426038124e+00
2.035562120426038124e+00
2.070438184759056277e+00
2.081501022370067400e+00
2.081501022370067400e+00
2.051687612537003602e+00
2.051687612537003602e+00
2.052250129703665493e+00
2.016624042481765411e+00
2.016624042481765411e+00
2.012686422315133949e+00
2.012686422315133949e+00
2.075313333536790150e+00
2.077188390758995418e+00
2.077188390758995418e+00
2.071000701925717724e+00
2.071000701925717724e+00
2.089001251258888470e+00
2.071750724814600098e+00
2.071750724814600098e+00
2.056187749870296511e+00
2.056187749870296511e+00
2.080750999481185470e+00
2.024686788537247928e+00
2.024686788537247928e+00
2.014748985259559699e+00
2.014748985259559699e+00
2.047187475203710694e+00
2.073813287759025847e+00
2.073813287759025847e+00
2.098376537369914807e+00
2.086001159703360308e+00
2.086001159703360308e+00
2.045687429425947279e+00
2.045687429425947279e+00
2.116939603869747000e+00
2.103626697592089645e+00
2.103626697592089645e+00
2.074375804925687294e+00
2.074375804925687294e+00
2.033124546037171854e+00
2.023186742759483625e+00
2.023186742759483625e+00
2.052062623981445011e+00
2.052062623981445011e+00
2.093501388592180934e+00
2.091813837092196593e+00
2.091813837092196593e+00
2.060687887203588975e+00
2.060687887203588975e+00
2.065188024536881883e+00
2.054125186925870761e+00
2.054125186925870761e+00
2.056562761314737475e+00
2.070063173314615312e+00
2.070063173314615312e+00
2.053375164036988387e+00
2.053375164036988387e+00
2.041562303537095335e+00
2.040249763481551515e+00
2.040249763481551515e+00
2.067063081759087151e+00
2.067063081759087151e+00
2.056375255592516993e+00
2.034624591814935712e+00
2.034624591814935712e+00
2.034999603259376677e+00
2.034999603259376677e+00
2.066125553147984295e+00
2.086001159703360308e+00
2.086001159703360308e+00
2.080938505203405953e+00
2.056750267036957958e+00
2.056750267036957958e+00
2.035187108981597159e+00
2.035187108981597159e+00
2.050187566759239299e+00
2.066125553147984295e+00
2.066125553147984295e+00
2.077563402203436382e+00
2.077563402203436382e+00
2.061062898648029940e+00
2.061062898648029940e+00
2.051687612537003602e+00
2.076250862147892562e+00
2.076250862147892562e+00
2.069125644703512901e+00
2.069125644703512901e+00
2.046999969481490211e+00
2.040999786370433888e+00
2.040999786370433888e+00
2.047187475203710694e+00
2.044749900814844423e+00
2.044749900814844423e+00
2.077938413647877791e+00
2.077938413647877791e+00
2.053937681203650278e+00
2.090688802758873255e+00
2.090688802758873255e+00
2.083376079592272667e+00
2.083376079592272667e+00
2.029749443037202283e+00
2.053375164036988387e+00
2.053375164036988387e+00
2.079063447981200685e+00
2.079063447981200685e+00
2.075500839259010633e+00
2.075500839259010633e+00
2.075500839259010633e+00
2.078125919370098273e+00
2.078125919370098273e+00
2.064438001647999510e+00
2.059937864314706601e+00
2.059937864314706601e+00
2.046062440870388244e+00
2.051312601092562637e+00
2.051312601092562637e+00
2.062375438703573760e+00
2.062375438703573760e+00
2.037249671926022909e+00
2.059000335703604190e+00
2.059000335703604190e+00
2.073625782036805365e+00
2.093126377147739969e+00
2.093126377147739969e+00
2.058437818536942299e+00
2.058437818536942299e+00
2.015499008148442073e+00
2.028811914426099428e+00
2.028811914426099428e+00
2.067063081759087151e+00
2.067063081759087151e+00
2.061625415814691387e+00
2.065750541703543330e+00
2.065750541703543330e+00
2.068375621814630971e+00
2.068375621814630971e+00
2.078500930814539238e+00
2.115252052369762659e+00
2.115252052369762659e+00
2.084126102481154597e+00
2.084126102481154597e+00
2.078125919370098273e+00
2.057312784203619849e+00
2.057312784203619849e+00
2.024311777092806519e+00
2.044749900814844423e+00
2.044749900814844423e+00
2.076438367870113488e+00
2.076438367870113488e+00
2.065375530259102366e+00
2.051687612537003602e+00
2.051687612537003602e+00
2.070063173314615312e+00
2.070063173314615312e+00
2.054125186925870761e+00
2.066125553147984295e+00
2.066125553147984295e+00
2.092376354258858040e+00
2.092376354258858040e+00
2.063312967314676172e+00
2.047937498092593067e+00
2.047937498092593067e+00
2.061812921536912313e+00
2.061812921536912313e+00
2.039312234870449103e+00
2.034249580370494748e+00
2.034249580370494748e+00
2.025436811426129857e+00
2.032937040314951371e+00
2.032937040314951371e+00
2.059562852870265637e+00
2.059562852870265637e+00
2.098564043092135289e+00
2.114127018036439321e+00
2.114127018036439321e+00
2.113001983703115982e+00
2.113001983703115982e+00
2.076625873592333971e+00
2.054687704092532208e+00
2.054687704092532208e+00
2.045499923703726353e+00
2.045499923703726353e+00
2.058625324259163225e+00
2.065938047425763813e+00
2.065938047425763813e+00
2.057875301370280852e+00
2.045687429425947279e+00
2.045687429425947279e+00
2.032749534592730889e+00
2.032749534592730889e+00
2.058062807092501334e+00
2.049062532425916405e+00
2.049062532425916405e+00
2.056375255592516993e+00
2.056375255592516993e+00
2.053187658314767905e+00
2.070438184759056277e+00
2.070438184759056277e+00
2.063500473036897098e+00
2.046062440870388244e+00
2.046062440870388244e+00
2.059000335703604190e+00
2.059000335703604190e+00
2.075875850703451597e+00
2.069688161870173904e+00
2.069688161870173904e+00
2.048125003814813549e+00
2.048125003814813549e+00
2.068375621814630971e+00
2.046437452314828764e+00
2.046437452314828764e+00
2.060875392925809457e+00
2.070813196203497242e+00
2.072313241981261545e+00
2.072313241981261545e+00
2.084876125370036970e+00
2.074375804925687294e+00
2.074375804925687294e+00
2.066875576036866669e+00
2.066875576036866669e+00
2.050562578203680708e+00
2.051312601092562637e+00
2.051312601092562637e+00
2.058062807092501334e+00
2.058062807092501334e+00
2.061250404370250422e+00
2.054500198370311725e+00
2.054500198370311725e+00
2.051312601092562637e+00
2.081501022370067400e+00
2.081501022370067400e+00
2.077563402203436382e+00
2.077563402203436382e+00
2.073813287759025847e+00
2.087688711203345093e+00
2.087688711203345093e+00
2.089563768425550361e+00
2.089563768425550361e+00
2.087501205481124167e+00
2.045687429425947279e+00
2.045687429425947279e+00
2.060687887203588975e+00
2.060687887203588975e+00
2.061250404370250422e+00
2.019811639759514499e+00
2.019811639759514499e+00
2.015686513870662555e+00
2.015686513870662555e+00
2.045312417981505870e+00
2.098189031647694325e+00
2.098189031647694325e+00
2.098189031647694325e+00
2.100814111758781966e+00
2.100814111758781966e+00
2.080750999481185470e+00
2.054687704092532208e+00
2.054687704092532208e+00
2.046999969481490211e+00
2.046999969481490211e+00
2.051500106814783120e+00
2.028811914426099428e+00
2.028811914426099428e+00
2.051875118259224084e+00
2.051875118259224084e+00
2.046437452314828764e+00
2.052812646870326940e+00
2.052812646870326940e+00
2.046062440870388244e+00
2.046062440870388244e+00
2.056000244148076028e+00
2.083938596758934114e+00
2.083938596758934114e+00
2.096688985869930022e+00
2.096688985869930022e+00
2.090501297036652772e+00
2.092938871425519931e+00
2.092938871425519931e+00
2.034624591814935712e+00
1.995435895870845799e+00
1.995435895870845799e+00
2.041937314981536300e+00
2.041937314981536300e+00
2.054312692648091243e+00
2.068750633259071936e+00
2.068750633259071936e+00
2.104939237647633021e+00
2.104939237647633021e+00
2.092938871425519931e+00
2.067063081759087151e+00
2.067063081759087151e+00
2.043999877925962494e+00
2.043999877925962494e+00
2.065000518814661401e+00
2.101751640369884377e+00
2.101751640369884377e+00
2.032374523148289480e+00
2.032374523148289480e+00
2.019624134037293572e+00
2.070438184759056277e+00
2.070438184759056277e+00
2.081688528092287882e+00
2.075313333536790150e+00
2.075313333536790150e+00
2.080938505203405953e+00
2.080938505203405953e+00
2.066313058870204777e+00
2.069875667592394830e+00
2.069875667592394830e+00
2.079625965147862576e+00
2.079625965147862576e+00
2.072125736259041062e+00
2.060125370036927084e+00
2.060125370036927084e+00
2.069875667592394830e+00
2.069875667592394830e+00
2.059750358592486119e+00
2.067813104647969080e+00
2.067813104647969080e+00
2.046437452314828764e+00
2.046437452314828764e+00
2.031249488814966586e+00
2.065375530259102366e+00
2.065375530259102366e+00
2.079625965147862576e+00
2.079625965147862576e+00
2.061437910092470904e+00
2.070063173314615312e+00
2.070063173314615312e+00
2.083188573870052185e+00
2.075688344981231115e+00
2.075688344981231115e+00
2.048312509537034032e+00
2.048312509537034032e+00
2.019249122592852608e+00
2.031812005981628033e+00
2.031812005981628033e+00
2.038937223426007694e+00
2.038937223426007694e+00
2.076063356425672080e+00
2.098001525925473842e+00
2.098001525925473842e+00
2.069500656147953865e+00
2.069500656147953865e+00
2.044374889370403459e+00
2.037812189092684800e+00
2.062750450148014725e+00
2.062750450148014725e+00
2.108501846369823074e+00
2.108501846369823074e+00
2.073250770592364400e+00
2.012686422315133949e+00
2.012686422315133949e+00
2.062000427259132795e+00
2.062000427259132795e+00
2.070625690481276759e+00
2.099689077425458628e+00
2.099689077425458628e+00
2.083188573870052185e+00
2.078688436536759720e+00
2.078688436536759720e+00
2.060125370036927084e+00
2.060125370036927084e+00
2.045687429425947279e+00
2.066313058870204777e+00
2.066313058870204777e+00
2.101751640369884377e+00
2.101751640369884377e+00
2.085813653981139382e+00
2.048500015259254514e+00
2.048500015259254514e+00
2.104939237647633021e+00
2.104939237647633021e+00
2.071938230536820580e+00
2.036499649037140980e+00
2.036499649037140980e+00
2.037999694814905283e+00
2.037999694814905283e+00
1.992623310037537676e+00
2.029186925870540392e+00
2.029186925870540392e+00
2.061062898648029940e+00
2.061062898648029940e+00
2.077938413647877791e+00
2.066875576036866669e+00
2.066875576036866669e+00
2.081501022370067400e+00
2.073625782036805365e+00
2.073625782036805365e+00
2.065188024536881883e+00
2.065188024536881883e+00
2.049062532425916405e+00
2.074750816370128703e+00
2.074750816370128703e+00
2.093688894314401416e+00
2.093688894314401416e+00
2.071938230536820580e+00
2.045124912259285388e+00
2.045124912259285388e+00
2.025436811426129857e+00
2.025436811426129857e+00
2.056000244148076028e+00
2.089376262703329878e+00
2.089376262703329878e+00
2.083376079592272667e+00
2.060500381481368493e+00
2.060500381481368493e+00
2.065375530259102366e+00
2.065375530259102366e+00
2.057687795648060813e+00
2.019436628315073090e+00
2.019436628315073090e+00
1.991498275704214560e+00
1.991498275704214560e+00
2.023374248481704107e+00
2.057500289925840331e+00
2.057500289925840331e+00
2.057125278481399366e+00
2.057125278481399366e+00
2.093501388592180934e+00
2.090501297036652772e+00
2.090501297036652772e+00
2.066688070314646186e+00
2.066688070314646186e+00
2.105314249092073986e+00
2.079250953703421168e+00
2.079250953703421168e+00
2.048875026703695923e+00
2.048875026703695923e+00
2.089751274147770843e+00
2.045312417981505870e+00
2.045312417981505870e+00
2.040999786370433888e+00
2.062375438703573760e+00
2.062375438703573760e+00
2.066875576036866669e+00
2.066875576036866669e+00
2.035374614703817642e+00
2.041749809259315818e+00
2.041749809259315818e+00
2.037249671926022909e+00
2.037249671926022909e+00
2.057312784203619849e+00
2.118439649647511303e+00
2.118439649647511303e+00
2.085251136814477935e+00
2.085251136814477935e+00
2.053937681203650278e+00
2.029374431592760875e+00
2.029374431592760875e+00
2.029936948759422766e+00
2.029936948759422766e+00
2.003498641926328094e+00
2.064625507370219992e+00
2.064625507370219992e+00
2.089563768425550361e+00
2.050000061037018817e+00
2.071750724814600098e+00
2.078125919370098273e+00
2.078125919370098273e+00
2.073438276314584883e+00
2.073438276314584883e+00
2.039312234870449103e+00
2.065938047425763813e+00
2.065938047425763813e+00
2.085626148258918899e+00
2.085626148258918899e+00
2.089376262703329878e+00
2.055625232703635064e+00
2.055625232703635064e+00
2.004623676259651432e+00
2.004623676259651432e+00
2.009123813592944341e+00
1.964684957426679368e+00
1.964684957426679368e+00
2.019999145481734981e+00
2.119752189703054679e+00
2.119752189703054679e+00
2.096501480147709540e+00
2.081313516647846917e+00
2.073250770592364400e+00
2.073250770592364400e+00
2.072313241981261545e+00
2.072688253425702509e+00
2.072688253425702509e+00
2.087313699758903685e+00
2.124627338480788552e+00
2.124627338480788552e+00
2.086751182592242237e+00
2.086751182592242237e+00
2.053000152592547423e+00
2.046812463759269729e+00
2.046812463759269729e+00
2.014186468092898252e+00
2.014186468092898252e+00
2.056375255592516993e+00
2.052250129703665493e+00
2.052250129703665493e+00
2.075500839259010633e+00
2.075500839259010633e+00
2.048125003814813549e+00
2.012873928037354432e+00
2.012873928037354432e+00
2.039499740592669585e+00
2.039499740592669585e+00
2.061250404370250422e+00
2.072500747703482027e+00
2.072500747703482027e+00
2.057312784203619849e+00
2.057312784203619849e+00
2.047937498092593067e+00
2.065750541703543330e+00
2.104751731925412539e+00
2.104751731925412539e+00
2.051312601092562637e+00
2.009686330759605788e+00
2.009686330759605788e+00
2.031812005981628033e+00
2.031812005981628033e+00
2.032562028870509963e+00
2.071750724814600098e+00
2.071750724814600098e+00
2.075313333536790150e+00
2.118252143925290376e+00
2.118252143925290376e+00
2.130815027314065802e+00
2.130815027314065802e+00
2.107001800592058771e+00
2.056750267036957958e+00
2.056750267036957958e+00
2.070250679036835795e+00
2.070250679036835795e+00
2.081501022370067400e+00
2.061812921536912313e+00
2.061812921536912313e+00
2.063875484481338063e+00
2.073438276314584883e+00
2.073438276314584883e+00
2.068563127536851454e+00
2.068563127536851454e+00
2.074563310647907777e+00
2.074750816370128703e+00
2.074750816370128703e+00
2.061250404370250422e+00
2.061250404370250422e+00
2.040624774925992480e+00
2.025811822870570822e+00
2.025811822870570822e+00
2.051312601092562637e+00
2.051312601092562637e+00
2.029186925870540392e+00
2.022061708426160731e+00
2.022061708426160731e+00
2.038187200537125765e+00
2.038187200537125765e+00
2.047749992370372585e+00
2.036499649037140980e+00
2.036499649037140980e+00
1.920058595538193913e+00
2.084688619647816488e+00
2.084688619647816488e+00
2.095938962981048093e+00
2.095938962981048093e+00
2.129877498702963390e+00
2.108501846369823074e+00
2.108501846369823074e+00
2.104189214758751536e+00
2.104189214758751536e+00
2.095376445814386202e+00
2.094063905758842381e+00
2.094063905758842381e+00
2.061062898648029940e+00
2.061062898648029940e+00
2.025249305703909375e+00
2.008186284981841485e+00
2.008186284981841485e+00
2.030874477370525177e+00
2.030874477370525177e+00
2.020936674092837393e+00
2.061437910092470904e+00
2.061437910092470904e+00
2.053750175481429796e+00
2.061062898648029940e+00
2.061062898648029940e+00
2.065375530259102366e+00
2.065375530259102366e+00
2.056187749870296511e+00
2.017936582537308787e+00
2.017936582537308787e+00
2.074000793481246330e+00
2.101751640369884377e+00
2.101751640369884377e+00
2.095188940092165719e+00
2.095188940092165719e+00
2.084876125370036970e+00
2.096688985869930022e+00
2.096688985869930022e+00
2.094438917203283790e+00
2.057875301370280852e+00
2.057875301370280852e+00
2.017186559648426858e+00
2.017186559648426858e+00
2.037437177648243392e+00
2.047562486648152102e+00
2.047562486648152102e+00
2.111689443647572162e+00
2.111689443647572162e+00
2.126689901425214746e+00
2.119564683980834197e+00
2.119564683980834197e+00
2.075688344981231115e+00
2.075688344981231115e+00
2.084688619647816488e+00
2.084688619647816488e+00
2.056750267036957958e+00
2.080938505203405953e+00
2.080938505203405953e+00
2.101751640369884377e+00
2.101751640369884377e+00
1.989060701315347846e+00
2.005186193426313324e+00
2.005186193426313324e+00
2.028249397259437981e+00
2.028249397259437981e+00
2.077188390758995418e+00
2.060875392925809457e+00
2.060875392925809457e+00
2.040249763481551515e+00
2.108876857814264483e+00
2.108876857814264483e+00
2.145440473647266977e+00
2.145440473647266977e+00
2.087126194036683202e+00
2.015499008148442073e+00
2.015499008148442073e+00
2.045124912259285388e+00
2.045124912259285388e+00
2.065000518814661401e+00
2.074375804925687294e+00
2.074375804925687294e+00
2.081501022370067400e+00
2.081501022370067400e+00
2.045312417981505870e+00
2.005936216315195253e+00
2.005936216315195253e+00
2.047374980925931620e+00
2.047374980925931620e+00
2.062187932981353278e+00
2.088813745536667987e+00
2.088813745536667987e+00
2.083938596758934114e+00
2.083938596758934114e+00
2.063500473036897098e+00
2.034249580370494748e+00
1.991873287148655747e+00
1.991873287148655747e+00
1.984935575426496124e+00
1.984935575426496124e+00
2.065938047425763813e+00
2.116002075258644588e+00
2.116002075258644588e+00
2.156878322702719064e+00
2.156878322702719064e+00
2.130252510147404355e+00
2.063312967314676172e+00
2.063312967314676172e+00
2.014561479537339217e+00
2.014561479537339217e+00
2.069688161870173904e+00
2.140565324869533104e+00
2.140565324869533104e+00
2.104939237647633021e+00
2.104939237647633021e+00
2.060500381481368493e+00
2.040999786370433888e+00
2.040999786370433888e+00
2.072500747703482027e+00
2.075125827814569668e+00
2.075125827814569668e+00
2.082063539536728847e+00
2.082063539536728847e+00
2.078500930814539238e+00
2.091626331369976111e+00
2.091626331369976111e+00
2.034062074648274265e+00
2.034062074648274265e+00
1.977247840815454571e+00
2.046437452314828764e+00
2.046437452314828764e+00
2.079250953703421168e+00
2.079250953703421168e+00
2.055437726981414581e+00
2.031624500259407551e+00
2.031624500259407551e+00
2.030874477370525177e+00
2.030874477370525177e+00
1.988498184148686176e+00
1.979685415204321286e+00
1.979685415204321286e+00
2.100626606036561483e+00
2.141315347758415477e+00
2.141315347758415477e+00
2.117877132480849411e+00
2.117877132480849411e+00
2.121627246925260390e+00
2.177691457869197489e+00
2.177691457869197489e+00
2.126502395702994264e+00
2.126502395702994264e+00
2.085251136814477935e+00
2.015874019592883037e+00
2.015874019592883037e+00
2.001811090426343309e+00
2.001811090426343309e+00
2.020936674092837393e+00
2.071938230536820580e+00
2.071938230536820580e+00
2.031812005981628033e+00
2.031812005981628033e+00
2.043812372203741567e+00
2.027874385814997016e+00
2.027874385814997016e+00
2.075125827814569668e+00
2.107751823480941145e+00
2.107751823480941145e+00
2.095376445814386202e+00
2.095376445814386202e+00
2.076438367870113488e+00
2.017561571092867823e+00
2.017561571092867823e+00
1.965809991760002484e+00
2.013998962370677770e+00
2.013998962370677770e+00
2.054500198370311725e+00
2.054500198370311725e+00
2.074563310647907777e+00
2.111876949369793088e+00
2.111876949369793088e+00
2.061250404370250422e+00
2.061250404370250422e+00
2.034437086092715230e+00
2.118627155369731785e+00
2.118627155369731785e+00
2.168878688924833043e+00
2.168878688924833043e+00
2.125002349925229961e+00
2.096876491592150504e+00
2.040249763481551515e+00
2.040249763481551515e+00
2.091626331369976111e+00
2.077375896481215900e+00
2.077375896481215900e+00
2.045499923703726353e+00
2.111314432203131197e+00
2.111314432203131197e+00
2.053562669759208870e+00
2.053562669759208870e+00
1.968997589037751350e+00
2.040437269203771997e+00
2.040437269203771997e+00
2.062937955870235207e+00
2.062937955870235207e+00
2.083188573870052185e+00
2.106251777703176842e+00
2.106251777703176842e+00
2.085063631092257452e+00
2.085063631092257452e+00
2.018499099703970678e+00
2.034999603259376677e+00
2.034999603259376677e+00
2.058437818536942299e+00
2.058437818536942299e+00
2.065375530259102366e+00
2.049250038148136888e+00
2.049250038148136888e+00
2.044187383648182976e+00
2.044187383648182976e+00
2.117689626758628929e+00
2.112064455092013571e+00
2.112064455092013571e+00
2.108501846369823074e+00
2.103814203314310571e+00
2.103814203314310571e+00
2.086188665425580790e+00
2.086188665425580790e+00
2.047749992370372585e+00
2.094063905758842381e+00
2.094063905758842381e+00
2.141127842036194995e+00
2.141127842036194995e+00
2.098564043092135289e+00
2.102876674703207716e+00
2.102876674703207716e+00
2.098189031647694325e+00
2.068188116092410045e+00
2.068188116092410045e+00
1.984748069704275641e+00
1.984748069704275641e+00
1.989998229926450479e+00
2.085813653981139382e+00
2.085813653981139382e+00
2.044374889370403459e+00
2.044374889370403459e+00
2.039499740592669585e+00
2.051875118259224084e+00
2.051875118259224084e+00
2.045124912259285388e+00
2.045124912259285388e+00
2.030124454481643248e+00
2.003686147648549021e+00
2.003686147648549021e+00
2.002561113315225683e+00
2.002561113315225683e+00
2.069500656147953865e+00
1.990185735648670962e+00
1.990185735648670962e+00
1.974997772148808339e+00
1.974997772148808339e+00
1.933371501815851268e+00
2.106064271980956359e+00
2.106064271980956359e+00
2.235443220313119816e+00
2.239193334757530351e+00
2.239193334757530351e+00
2.171691274758141166e+00
2.171691274758141166e+00
2.105314249092073986e+00
2.102126651814325342e+00
2.102126651814325342e+00
2.074750816370128703e+00
2.074750816370128703e+00
2.061812921536912313e+00
2.044562395092623941e+00
2.044562395092623941e+00
1.993748344370861014e+00
1.993748344370861014e+00
2.138502761925107798e+00
2.186691732535783306e+00
2.186691732535783306e+00
2.083188573870052185e+00
2.083188573870052185e+00
2.002186101870784718e+00
2.027874385814997016e+00
2.027874385814997016e+00
2.007248756370739073e+00
2.025249305703909375e+00
2.025249305703909375e+00
2.127064912869655711e+00
2.127064912869655711e+00
2.150690633869442259e+00
2.089563768425550361e+00
2.089563768425550361e+00
1.992248298593096711e+00
1.992248298593096711e+00
1.976497817926572642e+00
2.004998687704092397e+00
2.082813562425611220e+00
2.107564317758720662e+00
2.040249763481551515e+00
2.040249763481551515e+00
2.098751548814355772e+00
2.098751548814355772e+00
2.071938230536820580e+00
2.039499740592669585e+00
2.039499740592669585e+00
2.029936948759422766e+00
2.029936948759422766e+00
2.088063722647786058e+00
2.159128391369365740e+00
2.159128391369365740e+00
2.146378002258369833e+00
2.091438825647755628e+00
2.091438825647755628e+00
2.129689992980742907e+00
2.129689992980742907e+00
2.164753563035981099e+00
2.099876583147679110e+00
2.099876583147679110e+00
2.107189306314279698e+00
2.107189306314279698e+00
2.082626056703390294e+00
1.988685689870906881e+00
1.988685689870906881e+00
1.955309671315652809e+00
1.955309671315652809e+00
1.853119052705465952e+00
1.866994476149784976e+00
1.866994476149784976e+00
1.961122348704489093e+00
2.028061891537217498e+00
2.028061891537217498e+00
2.024311777092806519e+00
2.024311777092806519e+00
2.075875850703451597e+00
2.155565782647175688e+00
2.155565782647175688e+00
2.076063356425672080e+00
2.076063356425672080e+00
2.002561113315225683e+00
2.105876766258735877e+00
2.105876766258735877e+00
2.132315073091830104e+00
2.132315073091830104e+00
2.046999969481490211e+00
2.055812738425855546e+00
2.055812738425855546e+00
2.169441206091494490e+00
2.169441206091494490e+00
2.132315073091830104e+00
2.123127292703024249e+00
2.025811822870570822e+00
2.025811822870570822e+00
2.104564226203192501e+00
2.104564226203192501e+00
2.136252693258461566e+00
2.168316171758171151e+00
2.168316171758171151e+00
2.072688253425702509e+00
2.078125919370098273e+00
2.078125919370098273e+00
2.059562852870265637e+00
2.034624591814935712e+00
2.034624591814935712e+00
1.947434430982390996e+00
1.947434430982390996e+00
1.870369579149754324e+00
1.992623310037537676e+00
1.992623310037537676e+00
2.179191503646961792e+00
2.179191503646961792e+00
2.205817316202276945e+00
2.041187292092654371e+00
2.041187292092654371e+00
1.952309579760124647e+00
1.999373516037476817e+00
1.999373516037476817e+00
2.047187475203710694e+00
2.047187475203710694e+00
2.138877773369548763e+00
2.131565050202948175e+00
2.131565050202948175e+00
1.937309121982482507e+00
1.937309121982482507e+00
1.915183446760460262e+00
2.162878505813776275e+00
2.162878505813776275e+00
2.239380840479750834e+00
2.239380840479750834e+00
2.170753746147038310e+00
1.983810541093173230e+00
1.983810541093173230e+00
2.016624042481765411e+00
2.045874935148167761e+00
2.045874935148167761e+00
2.028811914426099428e+00
2.028811914426099428e+00
2.164753563035981099e+00
2.043249855037080120e+00
2.043249855037080120e+00
2.155378276924954761e+00
2.155378276924954761e+00
2.121627246925260390e+00
2.107376812036500180e+00
2.107376812036500180e+00
1.996373424481948211e+00
1.996373424481948211e+00
1.827055757316812690e+00
1.955684682760093995e+00
1.955684682760093995e+00
2.043062349314859638e+00
2.043062349314859638e+00
2.204504776146733125e+00
2.155753288369396170e+00
2.155753288369396170e+00
2.106439283425397324e+00
2.080188482314524023e+00
2.080188482314524023e+00
2.044749900814844423e+00
2.044749900814844423e+00
2.065750541703543330e+00
2.093313882869960452e+00
2.093313882869960452e+00
2.142627887813959298e+00
2.142627887813959298e+00
2.048312509537034032e+00
2.109251869258705447e+00
2.109251869258705447e+00
2.077000885036774935e+00
2.203004730368968822e+00
2.203004730368968822e+00
2.070250679036835795e+00
2.070250679036835795e+00
2.033499557481612818e+00
1.847868892483291114e+00
1.847868892483291114e+00
1.772679097872859932e+00
1.772679097872859932e+00
1.797992370372631044e+00
1.979310403759880321e+00
1.979310403759880321e+00
2.174503860591448845e+00
2.174503860591448845e+00
2.317195715201269657e+00
2.280632099368266719e+00
2.280632099368266719e+00
2.354321848200934042e+00
2.209192419202246516e+00
2.209192419202246516e+00
1.904495620593890104e+00
1.904495620593890104e+00
1.840556169316690527e+00
2.046062440870388244e+00
2.087688711203345093e+00
2.021686696981719766e+00
2.021686696981719766e+00
1.929808893093661437e+00
1.929808893093661437e+00
1.991310769981994078e+00
2.190629352702413879e+00
2.190629352702413879e+00
2.244255989257484707e+00
2.244255989257484707e+00
2.106626789147617806e+00
1.858369212927640568e+00
1.858369212927640568e+00
2.136252693258461566e+00
2.136252693258461566e+00
2.255881344035157721e+00
1.839056123538926224e+00
1.839056123538926224e+00
1.815617908261360380e+00
2.050375072481459782e+00
2.050375072481459782e+00
2.262256538590655452e+00
2.262256538590655452e+00
1.969935117648853984e+00
2.167378643147068740e+00
2.167378643147068740e+00
2.109814386425366894e+00
2.109814386425366894e+00
1.972560197759941625e+00
2.061062898648029940e+00
2.061062898648029940e+00
2.032562028870509963e+00
2.032562028870509963e+00
1.746615802484206670e+00
1.970497634815515653e+00
1.970497634815515653e+00
2.096126468703268575e+00
2.096126468703268575e+00
2.343821527756584366e+00
2.229630542924283532e+00
2.229630542924283532e+00
1.788242072817163741e+00
2.022249214148381213e+00
2.022249214148381213e+00
2.289444868312631609e+00
2.289444868312631609e+00
2.116002075258644588e+00
2.217255165257729033e+00
2.217255165257729033e+00
2.156503311258278099e+00
1.911995849482711396e+00
1.911995849482711396e+00
1.976497817926572642e+00
1.976497817926572642e+00
2.050937589648121673e+00
1.968997589037751350e+00
1.968997589037751350e+00
2.004623676259651432e+00
2.004623676259651432e+00
2.171503769035920239e+00
2.125752372814111890e+00
2.125752372814111890e+00
2.108689352092044000e+00
2.108689352092044000e+00
1.895307840205084471e+00
1.815617908261360380e+00
1.815617908261360380e+00
2.149753105258339403e+00
2.149753105258339403e+00
2.064625507370219992e+00
2.063875484481338063e+00
2.063875484481338063e+00
2.100814111758781966e+00
2.100814111758781966e+00
2.178816492202520827e+00
2.281569627979369130e+00
2.281569627979369130e+00
2.138877773369548763e+00
1.821055574205755700e+00
1.821055574205755700e+00
1.876182256538590609e+00
1.876182256538590609e+00
2.207129856257820322e+00
1.981372966704306293e+00
1.981372966704306293e+00
2.248381115146336207e+00
2.248381115146336207e+00
2.154065736869411385e+00
2.191379375591296252e+00
2.191379375591296252e+00
2.084501113925596005e+00
2.084501113925596005e+00
1.768553971984008211e+00
1.844118778038880579e+00
1.844118778038880579e+00
1.954372142704550397e+00
1.954372142704550397e+00
2.015686513870662555e+00
2.208629902035584625e+00
2.208629902035584625e+00
2.134002624591814889e+00
2.134002624591814889e+00
2.149940610980559885e+00
1.986248115482039944e+00
1.986248115482039944e+00
1.943121799371318792e+00
2.211442487868892304e+00
2.211442487868892304e+00
2.228318002868740155e+00
1.884995025482955278e+00
1.884995025482955278e+00
1.760116214484084729e+00
1.760116214484084729e+00
2.189504318369090985e+00
2.205254799035615054e+00
2.205254799035615054e+00
2.149753105258339403e+00
2.149753105258339403e+00
2.008936307870723859e+00
1.921183629871517029e+00
1.921183629871517029e+00
1.873744682149723673e+00
1.906183172093875111e+00
1.906183172093875111e+00
2.107564317758720662e+00
2.107564317758720662e+00
2.232068117313150690e+00
2.296945097201452679e+00
2.296945097201452679e+00
2.247818597979674760e+00
2.247818597979674760e+00
1.883307473982970714e+00
2.003686147648549021e+00
1.847118869594408963e+00
1.924371227149266117e+00
1.924371227149266117e+00
2.102314157536546269e+00
2.102314157536546269e+00
2.125002349925229961e+00
2.210317453535568966e+00
2.210317453535568966e+00
2.290007385479293500e+00
2.290007385479293500e+00
1.925308755760368751e+00
1.838493606372264777e+00
1.838493606372264777e+00
1.989435712759789032e+00
1.989435712759789032e+00
1.895682851649525658e+00
1.998623493148594665e+00
1.998623493148594665e+00
2.287944822534867306e+00
2.287944822534867306e+00
2.473012970366527341e+00
2.345509079256569152e+00
2.345509079256569152e+00
1.991873287148655747e+00
1.991873287148655747e+00
1.903370586260566988e+00
2.005561204870754288e+00
2.005561204870754288e+00
2.142252876369517889e+00
1.897370403149510221e+00
1.897370403149510221e+00
2.038937223426007694e+00
2.038937223426007694e+00
1.883869991149632384e+00
2.105126743369853504e+00
2.105126743369853504e+00
2.094626422925504272e+00
2.094626422925504272e+00
1.902433057649464576e+00
1.756553605761894454e+00
1.756553605761894454e+00
2.047562486648152102e+00
2.457825006866664719e+00
2.457825006866664719e+00
2.489325968199713301e+00
2.032937040314951371e+00
2.032937040314951371e+00
2.087126194036683202e+00
2.087126194036683202e+00
1.947809442426831961e+00
1.966185003204443671e+00
1.966185003204443671e+00
2.163253517258217240e+00
2.163253517258217240e+00
2.155003265480513797e+00
2.058437818536942299e+00
2.058437818536942299e+00
1.896807885982848552e+00
1.896807885982848552e+00
1.894370311593981837e+00
1.864556901760918040e+00
1.864556901760918040e+00
1.807742667928098568e+00
1.807742667928098568e+00
2.245193517868587563e+00
2.170753746147038310e+00
2.170753746147038310e+00
1.999561021759697299e+00
2.090501297036652772e+00
2.090501297036652772e+00
2.100439100314340557e+00
2.100439100314340557e+00
2.056375255592516993e+00
1.831743400372325858e+00
1.831743400372325858e+00
1.934871547593615571e+00
1.934871547593615571e+00
2.128752464369640052e+00
2.439636951811273491e+00
2.439636951811273491e+00
2.202067201757865966e+00
2.202067201757865966e+00
2.070250679036835795e+00
1.920996124149296547e+00
1.920996124149296547e+00
2.126314889980773337e+00
2.126314889980773337e+00
2.017936582537308787e+00
2.019249122592852608e+00
2.019249122592852608e+00
1.923996215704825152e+00
2.038749717703787212e+00
2.038749717703787212e+00
2.272756859035004684e+00
2.272756859035004684e+00
2.369322305978576182e+00
2.041187292092654371e+00
2.041187292092654371e+00
1.771179052095095630e+00
1.771179052095095630e+00
2.004436170537430950e+00
1.850493972594378533e+00
1.850493972594378533e+00
2.275194433423871843e+00
2.275194433423871843e+00
2.216880153813287624e+00
2.238255806146427940e+00
2.238255806146427940e+00
1.952122074037903943e+00
1.952122074037903943e+00
1.858556718649861272e+00
1.953997131260109432e+00
1.953997131260109432e+00
1.986248115482039944e+00
2.108501846369823074e+00
2.108501846369823074e+00
2.140940336313974068e+00
2.099314065981017663e+00
2.099314065981017663e+00
2.081126010925626435e+00
2.081126010925626435e+00
2.181254066591387542e+00
2.079063447981200685e+00
2.079063447981200685e+00
1.903370586260566988e+00
1.903370586260566988e+00
2.122377269814142320e+00
2.179191503646961792e+00
2.179191503646961792e+00
1.996185918759727951e+00
1.996185918759727951e+00
1.942746787926877827e+00
2.053187658314767905e+00
2.053187658314767905e+00
2.107001800592058771e+00
2.034812097537156195e+00
1.890620197149571302e+00
1.890620197149571302e+00
1.925871272927030420e+00
1.925871272927030420e+00
2.162691000091555793e+00
2.141127842036194995e+00
2.141127842036194995e+00
2.113189489425336465e+00
2.269569261757255596e+00
2.269569261757255596e+00
2.337071321756645670e+00
2.337071321756645670e+00
1.994685872981963648e+00
2.119752189703054679e+00
2.119752189703054679e+00
2.080750999481185470e+00
2.080750999481185470e+00
2.104564226203192501e+00
2.050000061037018817e+00
2.050000061037018817e+00
2.074750816370128703e+00
2.074750816370128703e+00
2.150128116702780368e+00
1.923433698538163483e+00
1.923433698538163483e+00
1.917996032593768163e+00
1.917996032593768163e+00
2.052062623981445011e+00
2.124064821314127105e+00
2.124064821314127105e+00
1.923433698538163483e+00
1.926621295815912349e+00
1.926621295815912349e+00
2.079250953703421168e+00
2.079250953703421168e+00
2.133440107425153442e+00
2.056187749870296511e+00
2.056187749870296511e+00
1.982122989593188223e+00
1.982122989593188223e+00
1.979685415204321286e+00
2.064625507370219992e+00
2.064625507370219992e+00
2.147128025147251762e+00
2.147128025147251762e+00
2.122939786980803767e+00
2.025436811426129857e+00
2.025436811426129857e+00
1.965622486037782002e+00
2.070250679036835795e+00
2.070250679036835795e+00
2.293007477034821662e+00
2.293007477034821662e+00
2.359009491256446989e+00
2.211442487868892304e+00
2.211442487868892304e+00
1.971060151982177322e+00
1.971060151982177322e+00
1.938996673482467070e+00
1.890807702871791562e+00
1.890807702871791562e+00
1.850493972594378533e+00
1.850493972594378533e+00
2.005186193426313324e+00
1.985310586870937088e+00
1.985310586870937088e+00
2.066500564592425260e+00
2.066500564592425260e+00
2.045874935148167761e+00
2.034624591814935712e+00
2.034624591814935712e+00
2.014748985259559699e+00
1.998060975981932996e+00
1.998060975981932996e+00
2.061437910092470904e+00
2.061437910092470904e+00
2.272944364757225166e+00
2.231318094424268317e+00
2.231318094424268317e+00
2.174316354869228363e+00
2.174316354869228363e+00
2.037437177648243392e+00
2.123127292703024249e+00
2.123127292703024249e+00
2.141127842036194995e+00
2.141127842036194995e+00
2.079813470870083059e+00
1.987185644093142578e+00
1.987185644093142578e+00
2.044374889370403459e+00
2.044374889370403459e+00
2.045687429425947279e+00
2.068000610370189563e+00
2.068000610370189563e+00
2.236568254646443155e+00
2.165878597369304437e+00
2.165878597369304437e+00
2.032937040314951371e+00
2.032937040314951371e+00
1.963747428815576734e+00
1.962997405926694583e+00
1.962997405926694583e+00
2.040812280648213406e+00
2.040812280648213406e+00
2.035937131870479533e+00
2.025624317148350340e+00
2.025624317148350340e+00
2.097626514481032878e+00
2.041374797814874853e+00
2.041374797814874853e+00
2.059187841425824672e+00
2.292444959868159771e+00
2.292444959868159771e+00
2.322445875423444495e+00
2.322445875423444495e+00
2.095563951536606684e+00
1.983623035370952525e+00
1.983623035370952525e+00
1.922871181371501814e+00
1.990373241370891666e+00
1.990373241370891666e+00
2.108501846369823074e+00
2.108501846369823074e+00
2.149003082369457029e+00
2.189316812646870059e+00
2.189316812646870059e+00
2.193254432813501520e+00
2.193254432813501520e+00
2.042874843592639156e+00
1.968622577593310385e+00
1.968622577593310385e+00
1.915745963927121709e+00
1.989623218482009515e+00
2.096876491592150504e+00
2.096876491592150504e+00
2.050187566759239299e+00
2.050187566759239299e+00
2.085251136814477935e+00
2.094438917203283790e+00
2.094438917203283790e+00
2.105126743369853504e+00
2.105126743369853504e+00
2.032187017426068998e+00
2.024499282815027001e+00
2.024499282815027001e+00
1.959809808648945717e+00
1.959809808648945717e+00
1.816367931150242532e+00
2.026561845759453195e+00
2.026561845759453195e+00
1.998998504593035630e+00
1.998998504593035630e+00
2.327321024201178368e+00
2.261506515701773079e+00
2.261506515701773079e+00
2.038562211981566730e+00
2.038562211981566730e+00
2.059937864314706601e+00
2.026561845759453195e+00
2.026561845759453195e+00
2.072688253425702509e+00
2.143752922147282192e+00
2.143752922147282192e+00
2.072688253425702509e+00
2.072688253425702509e+00
2.051125095370342155e+00
1.972747703482162107e+00
1.972747703482162107e+00
2.038937223426007694e+00
2.038937223426007694e+00
2.114877040925321250e+00
2.046624958037049247e+00
2.046624958037049247e+00
1.985873104037598758e+00
1.985873104037598758e+00
2.123877315591906623e+00
2.076438367870113488e+00
2.076438367870113488e+00
2.150128116702780368e+00
2.166628620258186366e+00
2.166628620258186366e+00
2.237505783257545566e+00
2.237505783257545566e+00
2.188191778313547164e+00
2.064250495925779028e+00
2.064250495925779028e+00
1.997123447370830363e+00
1.997123447370830363e+00
2.069875667592394830e+00
1.998060975981932996e+00
1.998060975981932996e+00
2.173003814813684542e+00
2.173003814813684542e+00
1.994310861537522683e+00
1.901308023316141238e+00
1.901308023316141238e+00
1.955497177037873513e+00
1.955497177037873513e+00
2.117314615314187964e+00
2.159878414258247670e+00
2.159878414258247670e+00
2.023749259926145072e+00
2.023749259926145072e+00
1.998435987426374183e+00
2.046999969481490211e+00
2.046999969481490211e+00
2.154065736869411385e+00
2.157628345591601438e+00
2.157628345591601438e+00
2.138502761925107798e+00
2.138502761925107798e+00
2.151440656758324188e+00
2.040624774925992480e+00
2.040624774925992480e+00
1.965997497482223189e+00
1.965997497482223189e+00
1.960934842982268833e+00
2.109439374980925930e+00
2.109439374980925930e+00
2.165128574480422063e+00
2.165128574480422063e+00
2.008373790704061967e+00
2.002373607593005200e+00
2.002373607593005200e+00
2.004436170537430950e+00
2.004436170537430950e+00
2.038749717703787212e+00
2.130815027314065802e+00
2.130815027314065802e+00
2.091438825647755628e+00
2.057125278481399366e+00
2.057125278481399366e+00
2.042499832148198191e+00
2.042499832148198191e+00
2.141127842036194995e+00
2.062375438703573760e+00
2.062375438703573760e+00
2.083751091036713632e+00
2.083751091036713632e+00
2.191004364146854844e+00
2.151815668202764709e+00
2.151815668202764709e+00
2.051125095370342155e+00
2.026936857203894160e+00
2.026936857203894160e+00
2.063312967314676172e+00
2.063312967314676172e+00
2.122564775536362802e+00
2.045312417981505870e+00
2.045312417981505870e+00
2.076063356425672080e+00
2.076063356425672080e+00
2.014373973815118735e+00
2.083938596758934114e+00
2.083938596758934114e+00
2.044937406537064906e+00
2.044937406537064906e+00
2.024499282815027001e+00
2.025436811426129857e+00
2.025436811426129857e+00
2.047749992370372585e+00
2.082063539536728847e+00
2.082063539536728847e+00
2.090313791314432290e+00
2.090313791314432290e+00
2.071188207647938206e+00
2.105314249092073986e+00
2.087501205481124167e+00
2.007811273537400520e+00
2.007811273537400520e+00
2.011936399426252020e+00
2.011936399426252020e+00
1.996935941648609880e+00
1.951559556871242496e+00
1.951559556871242496e+00
2.055812738425855546e+00
2.190066835535752432e+00
2.190066835535752432e+00
2.164003540147099169e+00
2.164003540147099169e+00
2.140002807702871657e+00
2.098751548814355772e+00
2.098751548814355772e+00
2.058250312814721816e+00
2.058250312814721816e+00
2.077938413647877791e+00
2.102501663258766751e+00
2.102501663258766751e+00
2.058250312814721816e+00
2.058250312814721816e+00
2.003686147648549021e+00
1.926246284371471162e+00
1.926246284371471162e+00
1.999748527481917781e+00
1.999748527481917781e+00
2.047562486648152102e+00
2.066688070314646186e+00
2.066688070314646186e+00
2.100814111758781966e+00
2.100814111758781966e+00
2.180129032258064647e+00
2.210879970702230857e+00
2.210879970702230857e+00
2.115814569536424106e+00
2.074938322092349186e+00
2.074938322092349186e+00
2.000686056093020415e+00
2.000686056093020415e+00
1.995060884426404613e+00
2.017936582537308787e+00
2.017936582537308787e+00
2.076063356425672080e+00
2.120314706869716570e+00
2.120314706869716570e+00
2.066500564592425260e+00
2.066500564592425260e+00
2.086563676870021755e+00
2.218005188146610962e+00
2.218005188146610962e+00
2.161753471480452937e+00
2.161753471480452937e+00
2.110189397869807859e+00
2.051312601092562637e+00
2.051312601092562637e+00
1.983060518204291078e+00
1.983060518204291078e+00
1.986623126926480909e+00
1.973497726371044036e+00
1.973497726371044036e+00
2.015686513870662555e+00
2.015686513870662555e+00
2.048125003814813549e+00
2.048875026703695923e+00
2.048875026703695923e+00
1.996185918759727951e+00
2.028436902981658463e+00
2.028436902981658463e+00
2.068000610370189563e+00
2.068000610370189563e+00
2.109251869258705447e+00
2.106064271980956359e+00
2.106064271980956359e+00
2.106251777703176842e+00
2.106251777703176842e+00
2.075688344981231115e+00
1.971622669148838769e+00
1.971622669148838769e+00
2.013436445204016323e+00
2.013436445204016323e+00
2.040249763481551515e+00
2.107189306314279698e+00
2.107189306314279698e+00
2.058625324259163225e+00
2.058625324259163225e+00
2.105689260536515395e+00
2.082626056703390294e+00
2.082626056703390294e+00
2.116189580980865070e+00
2.116189580980865070e+00
2.151628162480544670e+00
2.128939970091860534e+00
2.128939970091860534e+00
2.040062257759331033e+00
2.099126560258797181e+00
2.099126560258797181e+00
2.078313425092318756e+00
2.078313425092318756e+00
2.068375621814630971e+00
2.083376079592272667e+00
2.083376079592272667e+00
2.029561937314981801e+00
2.029561937314981801e+00
2.035562120426038124e+00
2.053937681203650278e+00
2.053937681203650278e+00
2.120314706869716570e+00
2.120314706869716570e+00
2.119752189703054679e+00
2.096126468703268575e+00
2.078125919370098273e+00
2.078125919370098273e+00
2.003498641926328094e+00
1.969747611926633502e+00
1.969747611926633502e+00
2.025249305703909375e+00
2.005561204870754288e+00
2.005561204870754288e+00
2.032374523148289480e+00
2.032374523148289480e+00
2.080563493758964988e+00
2.086376171147801273e+00
2.086376171147801273e+00
2.068375621814630971e+00
2.068375621814630971e+00
2.037437177648243392e+00
2.016249031037324002e+00
2.016249031037324002e+00
2.065188024536881883e+00
2.081313516647846917e+00
2.064813013092440475e+00
2.064813013092440475e+00
2.053562669759208870e+00
2.053562669759208870e+00
2.047374980925931620e+00
2.031624500259407551e+00
2.031624500259407551e+00
2.023561754203924590e+00
2.023561754203924590e+00
2.037437177648243392e+00
2.056000244148076028e+00
2.056000244148076028e+00
2.086751182592242237e+00
2.104376720480972018e+00
2.104376720480972018e+00
2.074188299203466812e+00
2.074188299203466812e+00
2.159315897091586223e+00
2.135315164647358710e+00
2.135315164647358710e+00
2.061437910092470904e+00
2.061437910092470904e+00
2.066688070314646186e+00
2.017749076815088305e+00
2.017749076815088305e+00
2.026749351481673678e+00
2.026749351481673678e+00
2.072125736259041062e+00
2.045312417981505870e+00
2.045312417981505870e+00
2.013998962370677770e+00
2.013998962370677770e+00
2.005186193426313324e+00
2.045687429425947279e+00
2.074563310647907777e+00
2.074563310647907777e+00
2.106251777703176842e+00
2.106251777703176842e+00
2.068000610370189563e+00
2.073063264870143918e+00
2.073063264870143918e+00
2.075875850703451597e+00
2.051312601092562637e+00
2.051312601092562637e+00
2.095938962981048093e+00
2.095938962981048093e+00
2.103439191869869163e+00
2.059750358592486119e+00
2.059750358592486119e+00
2.046249946592608282e+00
2.046249946592608282e+00
2.016999053926206376e+00
2.054500198370311725e+00
2.054500198370311725e+00
2.056937772759178884e+00
2.040437269203771997e+00
2.040437269203771997e+00
2.065375530259102366e+00
2.065375530259102366e+00
2.085251136814477935e+00
2.123314798425245176e+00
2.123314798425245176e+00
2.082813562425611220e+00
2.082813562425611220e+00
2.025061799981688893e+00
2.053187658314767905e+00
2.053187658314767905e+00
2.106626789147617806e+00
2.059375347148045154e+00
2.059375347148045154e+00
2.050750083925901190e+00
2.050750083925901190e+00
2.107751823480941145e+00
2.107939329203161627e+00
2.107939329203161627e+00
2.054125186925870761e+00
2.054125186925870761e+00
2.050187566759239299e+00
2.025249305703909375e+00
2.025249305703909375e+00
2.047374980925931620e+00
2.047374980925931620e+00
2.001436078981902345e+00
2.007248756370739073e+00
2.007248756370739073e+00
1.992248298593096711e+00
1.992248298593096711e+00
2.137752739036225869e+00
2.094063905758842381e+00
2.094063905758842381e+00
2.086563676870021755e+00
2.101751640369884377e+00
2.101751640369884377e+00
2.072875759147922992e+00
2.072875759147922992e+00
2.070813196203497242e+00
2.123689809869686140e+00
2.123689809869686140e+00
2.063875484481338063e+00
2.063875484481338063e+00
2.016999053926206376e+00
2.062187932981353278e+00
2.062187932981353278e+00
2.052625141148106458e+00
2.052625141148106458e+00
2.061812921536912313e+00
2.067250587481307633e+00
2.067250587481307633e+00
2.048875026703695923e+00
2.048125003814813549e+00
2.070250679036835795e+00
2.070250679036835795e+00
2.062937955870235207e+00
2.062937955870235207e+00
2.047187475203710694e+00
2.056375255592516993e+00
2.056375255592516993e+00
2.047562486648152102e+00
2.094438917203283790e+00
2.094438917203283790e+00
2.078500930814539238e+00
2.078500930814539238e+00
2.094251411481063307e+00
2.079063447981200685e+00
2.079063447981200685e+00
2.057312784203619849e+00
2.057312784203619849e+00
2.063875484481338063e+00
2.088063722647786058e+00
2.088063722647786058e+00
2.123502304147465658e+00
2.123502304147465658e+00
2.086751182592242237e+00
2.043812372203741567e+00
2.046437452314828764e+00
2.046437452314828764e+00
2.029186925870540392e+00
2.055812738425855546e+00
2.055812738425855546e+00
2.071750724814600098e+00
2.071750724814600098e+00
2.095001434369945237e+00
2.060875392925809457e+00
2.060875392925809457e+00
2.067250587481307633e+00
2.067250587481307633e+00
2.075125827814569668e+00
2.020374156926175946e+00
2.020374156926175946e+00
2.055625232703635064e+00
2.055625232703635064e+00
2.083001068147831703e+00
2.055437726981414581e+00
2.055437726981414581e+00
2.059375347148045154e+00
2.059375347148045154e+00
2.089938779869991325e+00
2.079438459425641650e+00
2.079438459425641650e+00
2.054687704092532208e+00
2.078688436536759720e+00
2.078688436536759720e+00
2.064438001647999510e+00
2.064438001647999510e+00
2.058625324259163225e+00
2.046062440870388244e+00
2.046062440870388244e+00
2.041374797814874853e+00
2.041374797814874853e+00
2.063500473036897098e+00
2.067813104647969080e+00
2.067813104647969080e+00
2.073625782036805365e+00
2.073625782036805365e+00
2.089938779869991325e+00
2.093876400036621899e+00
2.093876400036621899e+00
2.066500564592425260e+00
2.066500564592425260e+00
2.059000335703604190e+00
2.077188390758995418e+00
2.077188390758995418e+00
2.083938596758934114e+00
2.074188299203466812e+00
2.074188299203466812e+00
2.058625324259163225e+00
2.058625324259163225e+00
2.078125919370098273e+00
2.101564134647663895e+00
2.101564134647663895e+00
2.067438093203528116e+00
2.067438093203528116e+00
2.072688253425702509e+00
2.080938505203405953e+00
2.080938505203405953e+00
2.049062532425916405e+00
2.049062532425916405e+00
2.078500930814539238e+00
2.100626606036561483e+00
2.100626606036561483e+00
2.097439008758812395e+00
2.097439008758812395e+00
2.085063631092257452e+00
2.064250495925779028e+00
2.064250495925779028e+00
2.041937314981536300e+00
2.043249855037080120e+00
2.043249855037080120e+00
2.056000244148076028e+00
2.056000244148076028e+00
2.039312234870449103e+00
2.052437635425885976e+00
2.052437635425885976e+00
2.036874660481581945e+00
2.036874660481581945e+00
2.032374523148289480e+00
2.066875576036866669e+00
2.066875576036866669e+00
2.054687704092532208e+00
2.054687704092532208e+00
2.037249671926022909e+00
2.050187566759239299e+00
2.050187566759239299e+00
2.084501113925596005e+00
2.084501113925596005e+00
2.091438825647755628e+00
2.061062898648029940e+00
2.061062898648029940e+00
2.051500106814783120e+00
2.080563493758964988e+00
2.080563493758964988e+00
2.091251319925535146e+00
2.091251319925535146e+00
2.081688528092287882e+00
2.079625965147862576e+00
2.079625965147862576e+00
2.089751274147770843e+00
2.089751274147770843e+00
2.068000610370189563e+00
2.030874477370525177e+00
2.030874477370525177e+00
2.039687246314890068e+00
2.039687246314890068e+00
2.058812829981383707e+00
2.035374614703817642e+00
2.035374614703817642e+00
2.051875118259224084e+00
2.043624866481521085e+00
2.043624866481521085e+00
2.080375988036744506e+00
2.080375988036744506e+00
2.086938688314462720e+00
2.075500839259010633e+00
2.075500839259010633e+00
2.086563676870021755e+00
2.086563676870021755e+00
2.065375530259102366e+00
2.063500473036897098e+00
2.063500473036897098e+00
2.065188024536881883e+00
2.065188024536881883e+00
2.071750724814600098e+00
2.076625873592333971e+00
2.076625873592333971e+00
2.071000701925717724e+00
2.065938047425763813e+00
2.067063081759087151e+00
2.042312326425977265e+00
2.042312326425977265e+00
2.063125461592455689e+00
2.063125461592455689e+00
2.069688161870173904e+00
2.055437726981414581e+00
2.055437726981414581e+00
2.069500656147953865e+00
2.069500656147953865e+00
2.100814111758781966e+00
2.073813287759025847e+00
2.073813287759025847e+00
2.072500747703482027e+00
2.067250587481307633e+00
2.067250587481307633e+00
2.080188482314524023e+00
2.080188482314524023e+00
2.063500473036897098e+00
2.048125003814813549e+00
2.048125003814813549e+00
2.069125644703512901e+00
2.069125644703512901e+00
2.058437818536942299e+00
2.046999969481490211e+00
2.046999969481490211e+00
2.038937223426007694e+00
2.038937223426007694e+00
2.062937955870235207e+00
2.095001434369945237e+00
2.095001434369945237e+00
2.089751274147770843e+00
2.089751274147770843e+00
2.057687795648060813e+00
2.035187108981597159e+00
2.035187108981597159e+00
2.066125553147984295e+00
2.093688894314401416e+00
2.093688894314401416e+00
2.087501205481124167e+00
2.087501205481124167e+00
2.074750816370128703e+00
2.085813653981139382e+00
2.085813653981139382e+00
2.056187749870296511e+00
2.056187749870296511e+00
2.067063081759087151e+00
2.065938047425763813e+00
2.065938047425763813e+00
2.029186925870540392e+00
2.034249580370494748e+00
2.034249580370494748e+00
2.037062166203802427e+00
2.037062166203802427e+00
2.078688436536759720e+00
2.073250770592364400e+00
2.073250770592364400e+00
2.075688344981231115e+00
2.075688344981231115e+00
2.099314065981017663e+00
2.071188207647938206e+00
2.071188207647938206e+00
2.060687887203588975e+00
2.060687887203588975e+00
2.066500564592425260e+00
2.057500289925840331e+00
2.057500289925840331e+00
2.041562303537095335e+00
2.041562303537095335e+00
2.067250587481307633e+00
2.069313150425733383e+00
2.069313150425733383e+00
2.060875392925809457e+00
2.059937864314706601e+00
2.059937864314706601e+00
2.050937589648121673e+00
2.050937589648121673e+00
2.056562761314737475e+00
2.069688161870173904e+00
2.069688161870173904e+00
2.048875026703695923e+00
2.048875026703695923e+00
2.034812097537156195e+00
2.042687337870418673e+00
2.042687337870418673e+00
2.037437177648243392e+00
2.037437177648243392e+00
2.069313150425733383e+00
2.115064546647541732e+00
2.115064546647541732e+00
2.095563951536606684e+00
2.095563951536606684e+00
2.082251045258949329e+00
2.081313516647846917e+00
2.081313516647846917e+00
2.076625873592333971e+00
2.074938322092349186e+00
2.074938322092349186e+00
2.088438734092227023e+00
2.088438734092227023e+00
2.056187749870296511e+00
2.074375804925687294e+00
2.074375804925687294e+00
2.066688070314646186e+00
2.066688070314646186e+00
2.056000244148076028e+00
2.063125461592455689e+00
2.063125461592455689e+00
2.056000244148076028e+00
2.056000244148076028e+00
2.067063081759087151e+00
2.063312967314676172e+00
2.055625232703635064e+00
2.065938047425763813e+00
2.065938047425763813e+00
2.069688161870173904e+00
2.069875667592394830e+00
2.069875667592394830e+00
2.077375896481215900e+00
2.077375896481215900e+00
2.093313882869960452e+00
2.061062898648029940e+00
2.061062898648029940e+00
2.057687795648060813e+00
2.057687795648060813e+00
2.065938047425763813e+00
2.052437635425885976e+00
2.052437635425885976e+00
2.053375164036988387e+00
2.053375164036988387e+00
2.050750083925901190e+00
2.053562669759208870e+00
2.053562669759208870e+00
2.053562669759208870e+00
2.053562669759208870e+00
2.015123996704001108e+00
2.015123996704001108e+00
2.041937314981536300e+00
2.074750816370128703e+00
2.074750816370128703e+00
2.089001251258888470e+00
2.089001251258888470e+00
2.082063539536728847e+00
2.081501022370067400e+00
2.081501022370067400e+00
2.094626422925504272e+00
2.083188573870052185e+00
2.083188573870052185e+00
2.071188207647938206e+00
2.071188207647938206e+00
2.067813104647969080e+00
2.086001159703360308e+00
2.086001159703360308e+00
2.065938047425763813e+00
2.065938047425763813e+00
2.067438093203528116e+00
2.062937955870235207e+00
2.062937955870235207e+00
2.048500015259254514e+00
2.048500015259254514e+00
2.043437360759300603e+00
2.039874752037110550e+00
2.039874752037110550e+00
2.044562395092623941e+00
2.044562395092623941e+00
2.056187749870296511e+00
2.056937772759178884e+00
2.056937772759178884e+00
2.049437543870357370e+00
2.086001159703360308e+00
2.086001159703360308e+00
2.095751457258827610e+00
2.087126194036683202e+00
2.087126194036683202e+00
2.097063997314370987e+00
2.084126102481154597e+00
2.084126102481154597e+00
2.053937681203650278e+00
2.053937681203650278e+00
2.060687887203588975e+00
2.066313058870204777e+00
2.066313058870204777e+00
2.060500381481368493e+00
2.060500381481368493e+00
2.051875118259224084e+00
2.063125461592455689e+00
2.063125461592455689e+00
2.063500473036897098e+00
2.063500473036897098e+00
2.059750358592486119e+00
2.027874385814997016e+00
2.027874385814997016e+00
2.024874294259468410e+00
2.034062074648274265e+00
2.034062074648274265e+00
2.070813196203497242e+00
2.070813196203497242e+00
2.102314157536546269e+00
2.089938779869991325e+00
2.089938779869991325e+00
2.066313058870204777e+00
2.066313058870204777e+00
2.055062715536973172e+00
2.049250038148136888e+00
2.049250038148136888e+00
2.057125278481399366e+00
2.057125278481399366e+00
2.062937955870235207e+00
2.068000610370189563e+00
2.068000610370189563e+00
2.076250862147892562e+00
2.076250862147892562e+00
2.078313425092318756e+00
2.065750541703543330e+00
2.065750541703543330e+00
2.064062990203558545e+00
1.971247657704397804e+00
1.971247657704397804e+00
2.089188756981108952e+00
2.089188756981108952e+00
2.085251136814477935e+00
2.084876125370036970e+00
2.084876125370036970e+00
2.072500747703482027e+00
2.072500747703482027e+00
2.080188482314524023e+00
2.062562944425794242e+00
2.062562944425794242e+00
2.057125278481399366e+00
2.057125278481399366e+00
2.057312784203619849e+00
2.063125461592455689e+00
2.063125461592455689e+00
2.044749900814844423e+00
2.044749900814844423e+00
2.050000061037018817e+00
2.050750083925901190e+00
2.050750083925901190e+00
2.069500656147953865e+00
2.069500656147953865e+00
2.069500656147953865e+00
2.050750083925901190e+00
2.050750083925901190e+00
2.058437818536942299e+00
2.070063173314615312e+00
2.070063173314615312e+00
2.093688894314401416e+00
2.093688894314401416e+00
2.079063447981200685e+00
2.054500198370311725e+00
2.054500198370311725e+00
2.047749992370372585e+00
2.047749992370372585e+00
2.069313150425733383e+00
2.057875301370280852e+00
2.057875301370280852e+00
2.054687704092532208e+00
2.060312875759148010e+00
2.060312875759148010e+00
2.054312692648091243e+00
2.054312692648091243e+00
2.053000152592547423e+00
2.073625782036805365e+00
2.073625782036805365e+00
2.078875942258980203e+00
2.078875942258980203e+00
2.071375713370158689e+00
2.071750724814600098e+00
2.074750816370128703e+00
2.074750816370128703e+00
2.088063722647786058e+00
2.071938230536820580e+00
2.071938230536820580e+00
2.035937131870479533e+00
2.035937131870479533e+00
2.046624958037049247e+00
2.050187566759239299e+00
2.050187566759239299e+00
2.013436445204016323e+00
2.013436445204016323e+00
2.072500747703482027e+00
2.085251136814477935e+00
2.085251136814477935e+00
2.052625141148106458e+00
2.052625141148106458e+00
2.055437726981414581e+00
2.069500656147953865e+00
2.069500656147953865e+00
2.078313425092318756e+00
2.084876125370036970e+00
2.084876125370036970e+00
2.082251045258949329e+00
2.082251045258949329e+00
2.068375621814630971e+00
2.062375438703573760e+00
2.062375438703573760e+00
2.061625415814691387e+00
2.061625415814691387e+00
2.066875576036866669e+00
2.057312784203619849e+00
2.057312784203619849e+00
2.067625598925748598e+00
2.067625598925748598e+00
2.045312417981505870e+00
2.061625415814691387e+00
2.061625415814691387e+00
2.078125919370098273e+00
2.054500198370311725e+00
2.054500198370311725e+00
2.061625415814691387e+00
2.061625415814691387e+00
2.088063722647786058e+00
2.080563493758964988e+00
2.080563493758964988e+00
2.082813562425611220e+00
2.066500564592425260e+00
2.066500564592425260e+00
2.045874935148167761e+00
2.060312875759148010e+00
2.060312875759148010e+00
2.053375164036988387e+00
2.053375164036988387e+00
2.060500381481368493e+00
2.057125278481399366e+00
2.057125278481399366e+00
2.043624866481521085e+00
2.043624866481521085e+00
2.050750083925901190e+00
2.046249946592608282e+00
2.046249946592608282e+00
2.069875667592394830e+00
2.069875667592394830e+00
2.077938413647877791e+00
2.058812829981383707e+00
2.058812829981383707e+00
2.066125553147984295e+00
2.066125553147984295e+00
2.024311777092806519e+00
2.049812555314798335e+00
2.049812555314798335e+00
2.054125186925870761e+00
2.054125186925870761e+00
2.046437452314828764e+00
2.071563219092379615e+00
2.071563219092379615e+00
2.103439191869869163e+00
2.072313241981261545e+00
2.072313241981261545e+00
2.058250312814721816e+00
2.058250312814721816e+00
2.071188207647938206e+00
2.071188207647938206e+00
2.071188207647938206e+00
2.068375621814630971e+00
2.068375621814630971e+00
2.077188390758995418e+00
2.064438001647999510e+00
2.064438001647999510e+00
2.048687520981474997e+00
2.048687520981474997e+00
2.032187017426068998e+00
2.037437177648243392e+00
2.037437177648243392e+00
2.068563127536851454e+00
2.068563127536851454e+00
2.091813837092196593e+00
2.103064180425428198e+00
2.103064180425428198e+00
2.086188665425580790e+00
2.057312784203619849e+00
2.057312784203619849e+00
2.036499649037140980e+00
2.036499649037140980e+00
2.047374980925931620e+00
2.053187658314767905e+00
2.053187658314767905e+00
2.062937955870235207e+00
2.062937955870235207e+00
2.086376171147801273e+00
2.137002716147343495e+00
2.137002716147343495e+00
2.127627430036317158e+00
2.080000976592303541e+00
2.080000976592303541e+00
2.071938230536820580e+00
2.069500656147953865e+00
2.069500656147953865e+00
2.037812189092684800e+00
2.037812189092684800e+00
1.988123172704245212e+00
2.015874019592883037e+00
2.015874019592883037e+00
2.035937131870479533e+00
2.035937131870479533e+00
2.090126285592211808e+00
2.077000885036774935e+00
2.077000885036774935e+00
2.052437635425885976e+00
2.052437635425885976e+00
2.033687063203833301e+00
2.042499832148198191e+00
2.042499832148198191e+00
2.048500015259254514e+00
2.048500015259254514e+00
2.051500106814783120e+00
2.081126010925626435e+00
2.081126010925626435e+00
2.097251503036591469e+00
2.097251503036591469e+00
2.108876857814264483e+00
2.085438642536698417e+00
2.085438642536698417e+00
2.079625965147862576e+00
2.079625965147862576e+00
2.061625415814691387e+00
1.998435987426374183e+00
1.998435987426374183e+00
2.052062623981445011e+00
2.052062623981445011e+00
2.098001525925473842e+00
2.051125095370342155e+00
2.051125095370342155e+00
2.032749534592730889e+00
2.080375988036744506e+00
2.080375988036744506e+00
2.054312692648091243e+00
2.054312692648091243e+00
2.044374889370403459e+00
2.062937955870235207e+00
2.062937955870235207e+00
2.113376995147556947e+00
2.113376995147556947e+00
2.107001800592058771e+00
2.060875392925809457e+00
2.060875392925809457e+00
2.045312417981505870e+00
2.045312417981505870e+00
2.039124729148228621e+00
2.031812005981628033e+00
2.031812005981628033e+00
2.022811731315042216e+00
2.022811731315042216e+00
2.005561204870754288e+00
2.029936948759422766e+00
2.029936948759422766e+00
2.115064546647541732e+00
2.138127750480666833e+00
2.138127750480666833e+00
2.097063997314370987e+00
2.097063997314370987e+00
2.056937772759178884e+00
2.034812097537156195e+00
2.034812097537156195e+00
2.043437360759300603e+00
2.043437360759300603e+00
2.034999603259376677e+00
2.032937040314951371e+00
2.032937040314951371e+00
2.058437818536942299e+00
2.090688802758873255e+00
2.090688802758873255e+00
2.091626331369976111e+00
2.091626331369976111e+00
2.075688344981231115e+00
2.053187658314767905e+00
2.053187658314767905e+00
2.011748893704031538e+00
2.011748893704031538e+00
2.035562120426038124e+00
2.077000885036774935e+00
2.077000885036774935e+00
2.126502395702994264e+00
2.126502395702994264e+00
2.138127750480666833e+00
2.080750999481185470e+00
2.080750999481185470e+00
2.019624134037293572e+00
2.019624134037293572e+00
2.058062807092501334e+00
2.045687429425947279e+00
2.045687429425947279e+00
2.023561754203924590e+00
2.023561754203924590e+00
1.994123355815301979e+00
2.002373607593005200e+00
2.002373607593005200e+00
2.042687337870418673e+00
2.042687337870418673e+00
2.051500106814783120e+00
2.116752098147526517e+00
2.116752098147526517e+00
2.106439283425397324e+00
2.098189031647694325e+00
2.098189031647694325e+00
2.144315439313944083e+00
2.144315439313944083e+00
2.114127018036439321e+00
2.050000061037018817e+00
2.050000061037018817e+00
2.012311410870692985e+00
2.012311410870692985e+00
2.054875209814752690e+00
2.061812921536912313e+00
2.061812921536912313e+00
2.050937589648121673e+00
2.050937589648121673e+00
2.058625324259163225e+00
2.090688802758873255e+00
2.090688802758873255e+00
2.091813837092196593e+00
2.091813837092196593e+00
2.050562578203680708e+00
2.013623950926236805e+00
2.028249397259437981e+00
2.028249397259437981e+00
2.074750816370128703e+00
2.074750816370128703e+00
2.045687429425947279e+00
2.070250679036835795e+00
2.070250679036835795e+00
2.063875484481338063e+00
2.063875484481338063e+00
2.067438093203528116e+00
2.042312326425977265e+00
2.042312326425977265e+00
2.061437910092470904e+00
2.061437910092470904e+00
2.093126377147739969e+00
2.094626422925504272e+00
2.094626422925504272e+00
2.122564775536362802e+00
2.144502945036164565e+00
2.144502945036164565e+00
2.079063447981200685e+00
2.033687063203833301e+00
1.999936033204138486e+00
1.999936033204138486e+00
2.027874385814997016e+00
2.031061983092746104e+00
2.031061983092746104e+00
2.027311868648335125e+00
2.027311868648335125e+00
2.058250312814721816e+00
2.105314249092073986e+00
2.105314249092073986e+00
2.081501022370067400e+00
2.081501022370067400e+00
1.990560747093111926e+00
2.016811548203985893e+00
2.016811548203985893e+00
2.117877132480849411e+00
2.117877132480849411e+00
2.120502212591937052e+00
2.119939695425275605e+00
2.119939695425275605e+00
2.065000518814661401e+00
2.065000518814661401e+00
1.999936033204138486e+00
2.053562669759208870e+00
2.053562669759208870e+00
2.079063447981200685e+00
2.111876949369793088e+00
2.111876949369793088e+00
2.077750907925656865e+00
2.077750907925656865e+00
2.064813013092440475e+00
2.081126010925626435e+00
2.081126010925626435e+00
2.065938047425763813e+00
2.065938047425763813e+00
2.049437543870357370e+00
2.071938230536820580e+00
2.071938230536820580e+00
2.061437910092470904e+00
2.061437910092470904e+00
2.052625141148106458e+00
2.043624866481521085e+00
2.043624866481521085e+00
2.030311960203863730e+00
2.048312509537034032e+00
2.048312509537034032e+00
2.077750907925656865e+00
2.077750907925656865e+00
2.090313791314432290e+00
2.090313791314432290e+00
2.090313791314432290e+00
2.079625965147862576e+00
2.089376262703329878e+00
2.089376262703329878e+00
2.082626056703390294e+00
2.082626056703390294e+00
2.083563585314493150e+00
2.054687704092532208e+00
2.054687704092532208e+00
2.031624500259407551e+00
2.031624500259407551e+00
2.037249671926022909e+00
2.056187749870296511e+00
2.056187749870296511e+00
2.038749717703787212e+00
2.038749717703787212e+00
2.026936857203894160e+00
2.025999328592791304e+00
2.025999328592791304e+00
2.097251503036591469e+00
2.150128116702780368e+00
2.150128116702780368e+00
2.087126194036683202e+00
2.087126194036683202e+00
2.033124546037171854e+00
2.043437360759300603e+00
2.043437360759300603e+00
2.090688802758873255e+00
2.090688802758873255e+00
2.114689535203100768e+00
2.080938505203405953e+00
2.080938505203405953e+00
2.062937955870235207e+00
2.062937955870235207e+00
2.077188390758995418e+00
2.063500473036897098e+00
2.063500473036897098e+00
2.028811914426099428e+00
2.028811914426099428e+00
2.059375347148045154e+00
2.078313425092318756e+00
2.078313425092318756e+00
2.068938138981292418e+00
2.068938138981292418e+00
2.071938230536820580e+00
2.050375072481459782e+00
2.050375072481459782e+00
2.062000427259132795e+00
2.025436811426129857e+00
2.025436811426129857e+00
2.025061799981688893e+00
2.025061799981688893e+00
2.094063905758842381e+00
2.100251594592120075e+00
2.100251594592120075e+00
2.073813287759025847e+00
2.073813287759025847e+00
2.079063447981200685e+00
2.073250770592364400e+00
2.073250770592364400e+00
2.076438367870113488e+00
2.076438367870113488e+00
2.072875759147922992e+00
2.068188116092410045e+00
2.068188116092410045e+00
2.099689077425458628e+00
2.067813104647969080e+00
2.067813104647969080e+00
2.052250129703665493e+00
2.052250129703665493e+00
2.056750267036957958e+00
2.055437726981414581e+00
2.055437726981414581e+00
2.063500473036897098e+00
2.086376171147801273e+00
2.086376171147801273e+00
2.073813287759025847e+00
2.073813287759025847e+00
2.070250679036835795e+00
2.094251411481063307e+00
2.094251411481063307e+00
2.089001251258888470e+00
2.089001251258888470e+00
2.069125644703512901e+00
2.069125644703512901e+00
2.071750724814600098e+00
2.072875759147922992e+00
2.072875759147922992e+00
2.075125827814569668e+00
2.075125827814569668e+00
2.081876033814508364e+00
2.088813745536667987e+00
2.088813745536667987e+00
2.044374889370403459e+00
2.044374889370403459e+00
1.988685689870906881e+00
2.004998687704092397e+00
2.004998687704092397e+00
2.091813837092196593e+00
2.091813837092196593e+00
2.092563859981078966e+00
2.049812555314798335e+00
2.049812555314798335e+00
2.054687704092532208e+00
2.054687704092532208e+00
2.095563951536606684e+00
2.116002075258644588e+00
2.116002075258644588e+00
2.073063264870143918e+00
2.073063264870143918e+00
2.082063539536728847e+00
2.054125186925870761e+00
2.054125186925870761e+00
2.099876583147679110e+00
2.072500747703482027e+00
2.072500747703482027e+00
2.056562761314737475e+00
2.056562761314737475e+00
2.055250221259193655e+00
1.998623493148594665e+00
1.998623493148594665e+00
2.065000518814661401e+00
2.065000518814661401e+00
2.130440015869624837e+00
2.134565141758476781e+00
2.134565141758476781e+00
2.125002349925229961e+00
2.125002349925229961e+00
2.099314065981017663e+00
2.046249946592608282e+00
2.046249946592608282e+00
2.007998779259621003e+00
2.053375164036988387e+00
2.053375164036988387e+00
2.063875484481338063e+00
2.066688070314646186e+00
2.066688070314646186e+00
2.053750175481429796e+00
2.053750175481429796e+00
2.038749717703787212e+00
2.109251869258705447e+00
2.109251869258705447e+00
2.125377361369670925e+00
2.125377361369670925e+00
2.021686696981719766e+00
2.044937406537064906e+00
2.044937406537064906e+00
2.066875576036866669e+00
2.066875576036866669e+00
2.108501846369823074e+00
2.108876857814264483e+00
2.108876857814264483e+00
2.101939146092104860e+00
2.101939146092104860e+00
2.135315164647358710e+00
2.074188299203466812e+00
2.074188299203466812e+00
1.975372783593249304e+00
1.975372783593249304e+00
1.983998046815393712e+00
2.065375530259102366e+00
2.065375530259102366e+00
2.074188299203466812e+00
2.085063631092257452e+00
2.085063631092257452e+00
2.153315713980529011e+00
2.153315713980529011e+00
2.161940977202673420e+00
2.126502395702994264e+00
2.126502395702994264e+00
2.077938413647877791e+00
2.077938413647877791e+00
2.008373790704061967e+00
1.960559831537827868e+00
1.960559831537827868e+00
2.010623859370708644e+00
2.010623859370708644e+00
2.062750450148014725e+00
2.089938779869991325e+00
2.089938779869991325e+00
2.034062074648274265e+00
2.034062074648274265e+00
2.055812738425855546e+00
2.161378460036011973e+00
2.161378460036011973e+00
2.239005829035309869e+00
2.095751457258827610e+00
2.095751457258827610e+00
2.049812555314798335e+00
2.049812555314798335e+00
2.040624774925992480e+00
2.031249488814966586e+00
2.031249488814966586e+00
2.110751915036469750e+00
2.110751915036469750e+00
2.077750907925656865e+00
2.047937498092593067e+00
2.047937498092593067e+00
2.070250679036835795e+00
2.074750816370128703e+00
2.074750816370128703e+00
2.062000427259132795e+00
2.033312051759392336e+00
2.033312051759392336e+00
1.934496536149174606e+00
1.934496536149174606e+00
2.037249671926022909e+00
2.111501937925351680e+00
2.111501937925351680e+00
2.167191137424848257e+00
2.167191137424848257e+00
2.113752006591998356e+00
2.116377086703085553e+00
2.116377086703085553e+00
2.077563402203436382e+00
2.077563402203436382e+00
2.045687429425947279e+00
2.062937955870235207e+00
2.073625782036805365e+00
2.073625782036805365e+00
2.055062715536973172e+00
2.026749351481673678e+00
2.026749351481673678e+00
2.128189947202978605e+00
2.128189947202978605e+00
2.134940153202917745e+00
2.104751731925412539e+00
2.104751731925412539e+00
2.101564134647663895e+00
2.003498641926328094e+00
2.003498641926328094e+00
2.018499099703970678e+00
2.018499099703970678e+00
1.921933652760399180e+00
1.926433790093691867e+00
1.926433790093691867e+00
2.026936857203894160e+00
2.026936857203894160e+00
2.167003631702627775e+00
2.129689992980742907e+00
2.129689992980742907e+00
2.126502395702994264e+00
2.126502395702994264e+00
2.024686788537247928e+00
2.063500473036897098e+00
2.063500473036897098e+00
2.215380108035523765e+00
2.215380108035523765e+00
2.198504593035676358e+00
2.055812738425855546e+00
2.055812738425855546e+00
1.951747062593462978e+00
2.009498825037385306e+00
2.009498825037385306e+00
2.054687704092532208e+00
2.054687704092532208e+00
2.022811731315042216e+00
2.000123538926358524e+00
2.000123538926358524e+00
1.980810449537644624e+00
1.980810449537644624e+00
1.989998229926450479e+00
2.030124454481643248e+00
2.030124454481643248e+00
2.118252143925290376e+00
2.118252143925290376e+00
2.127064912869655711e+00
2.145440473647266977e+00
2.145440473647266977e+00
2.145440473647266977e+00
2.145440473647266977e+00
2.060125370036927084e+00
1.992248298593096711e+00
1.992248298593096711e+00
2.039124729148228621e+00
2.062750450148014725e+00
2.062750450148014725e+00
2.086563676870021755e+00
2.086563676870021755e+00
2.063500473036897098e+00
2.071188207647938206e+00
2.071188207647938206e+00
2.177128940702536042e+00
2.177128940702536042e+00
2.124439832758568070e+00
2.030874477370525177e+00
2.030874477370525177e+00
1.957747245704519745e+00
1.957747245704519745e+00
2.007811273537400520e+00
2.051312601092562637e+00
2.051312601092562637e+00
2.158378368480483367e+00
2.158378368480483367e+00
2.098751548814355772e+00
2.106814294869838289e+00
2.106814294869838289e+00
2.113376995147556947e+00
2.113376995147556947e+00
2.005186193426313324e+00
2.000873561815240897e+00
2.000873561815240897e+00
1.967497543259987047e+00
1.967497543259987047e+00
1.991685781426435042e+00
2.087501205481124167e+00
2.087501205481124167e+00
2.087126194036683202e+00
2.098376537369914807e+00
2.098376537369914807e+00
2.136252693258461566e+00
2.136252693258461566e+00
2.056375255592516993e+00
1.925308755760368751e+00
1.925308755760368751e+00
1.862119327372051103e+00
1.862119327372051103e+00
1.961309854426709798e+00
1.995998413037507468e+00
1.995998413037507468e+00
2.042312326425977265e+00
2.042312326425977265e+00
2.187816766869105756e+00
2.179379009369182274e+00
2.179379009369182274e+00
2.131565050202948175e+00
2.131940061647389140e+00
2.131940061647389140e+00
2.121439741203039464e+00
2.121439741203039464e+00
2.133627613147373925e+00
2.149565599536118921e+00
2.143377910702841227e+00
2.113376995147556947e+00
2.113376995147556947e+00
2.108314340647602592e+00
2.108314340647602592e+00
2.077188390758995418e+00
1.956997222815637594e+00
1.956997222815637594e+00
1.996560930204168693e+00
1.996560930204168693e+00
2.020749168370616911e+00
2.162315988647114828e+00
2.162315988647114828e+00
2.042499832148198191e+00
2.042499832148198191e+00
2.009873836481826270e+00
2.009686330759605788e+00
2.009686330759605788e+00
1.987560655537583543e+00
1.987560655537583543e+00
1.936934110538041542e+00
2.172816309091464060e+00
2.172816309091464060e+00
2.209379924924466998e+00
2.209379924924466998e+00
2.040999786370433888e+00
1.941621753593554489e+00
1.941621753593554489e+00
1.989435712759789032e+00
1.989435712759789032e+00
1.947996948149052443e+00
2.109064363536484965e+00
2.109064363536484965e+00
2.079813470870083059e+00
2.079813470870083059e+00
2.045312417981505870e+00
2.215942625202185212e+00
2.215942625202185212e+00
2.272756859035004684e+00
2.214630085146641392e+00
2.214630085146641392e+00
2.190629352702413879e+00
2.190629352702413879e+00
2.105126743369853504e+00
1.986998138370922096e+00
1.986998138370922096e+00
1.957934751426740450e+00
1.957934751426740450e+00
2.012686422315133949e+00
2.013811456648457288e+00
2.013811456648457288e+00
1.910495803704947093e+00
1.910495803704947093e+00
2.045874935148167761e+00
2.064625507370219992e+00
2.021124179815057875e+00
2.021124179815057875e+00
1.992810815759758380e+00
1.992810815759758380e+00
2.014561479537339217e+00
2.011186376537369647e+00
2.011186376537369647e+00
2.168316171758171151e+00
2.142440382091738371e+00
2.142440382091738371e+00
2.112439466536454535e+00
2.078500930814539238e+00
2.078500930814539238e+00
2.103439191869869163e+00
2.103439191869869163e+00
2.093688894314401416e+00
2.053187658314767905e+00
2.053187658314767905e+00
1.990935758537552891e+00
1.990935758537552891e+00
2.046437452314828764e+00
2.152565691091647082e+00
2.152565691091647082e+00
2.024311777092806519e+00
1.922496169927060850e+00
1.922496169927060850e+00
1.967122531815546083e+00
1.967122531815546083e+00
1.886495071260719580e+00
1.946121890926847176e+00
1.946121890926847176e+00
2.258881435590685438e+00
2.258881435590685438e+00
2.183879146702475182e+00
2.134752647480697263e+00
2.134752647480697263e+00
2.197004547257912055e+00
2.197004547257912055e+00
2.279694570757164307e+00
2.088626239814447505e+00
2.088626239814447505e+00
2.019624134037293572e+00
2.019624134037293572e+00
2.055437726981414581e+00
2.072500747703482027e+00
2.072500747703482027e+00
1.966935026093325822e+00
2.076063356425672080e+00
2.076063356425672080e+00
2.171316263313699757e+00
2.171316263313699757e+00
2.070250679036835795e+00
2.002936124759666647e+00
2.002936124759666647e+00
2.077000885036774935e+00
2.077000885036774935e+00
2.167191137424848257e+00
1.933934018982512937e+00
1.933934018982512937e+00
2.065188024536881883e+00
2.065188024536881883e+00
2.130815027314065802e+00
2.111314432203131197e+00
2.111314432203131197e+00
2.011373882259590129e+00
2.011373882259590129e+00
1.963559923093356252e+00
1.964872463148899850e+00
1.964872463148899850e+00
2.066313058870204777e+00
2.083563585314493150e+00
2.083563585314493150e+00
2.197004547257912055e+00
2.197004547257912055e+00
2.148253059480575100e+00
1.953247108371227281e+00
2.000686056093020415e+00
2.099126560258797181e+00
2.099126560258797181e+00
1.799679921872615829e+00
2.005561204870754288e+00
2.005561204870754288e+00
2.210129947813348927e+00
2.210129947813348927e+00
2.120502212591937052e+00
2.226255439924313961e+00
2.226255439924313961e+00
2.003873653370769503e+00
2.003873653370769503e+00
1.935434064760277240e+00
2.095188940092165719e+00
2.095188940092165719e+00
2.325258461256752618e+00
2.013436445204016323e+00
2.013436445204016323e+00
2.094063905758842381e+00
1.932808984649189599e+00
1.968060060426648716e+00
1.968060060426648716e+00
2.273694387646107540e+00
2.273694387646107540e+00
2.167003631702627775e+00
2.040812280648213406e+00
2.040812280648213406e+00
2.097439008758812395e+00
2.097439008758812395e+00
2.251193700979644330e+00
1.910495803704947093e+00
1.910495803704947093e+00
1.820868068483535218e+00
1.820868068483535218e+00
2.073438276314584883e+00
1.911058320871608762e+00
1.911058320871608762e+00
1.856306649983214818e+00
1.856306649983214818e+00
2.237318277535325084e+00
2.105126743369853504e+00
2.105126743369853504e+00
2.009873836481826270e+00
2.009873836481826270e+00
2.055062715536973172e+00
2.164378551591540134e+00
2.164378551591540134e+00
1.923246192815943001e+00
1.999936033204138486e+00
1.999936033204138486e+00
2.057875301370280852e+00
2.057875301370280852e+00
2.039499740592669585e+00
2.202442213202307375e+00
2.202442213202307375e+00
2.173566331980346433e+00
2.173566331980346433e+00
1.961684865871150762e+00
2.028624408703878945e+00
2.028624408703878945e+00
2.213130039368877089e+00
2.213130039368877089e+00
2.221755302591021497e+00
2.068000610370189563e+00
1.967122531815546083e+00
1.967122531815546083e+00
1.714177312540055675e+00
1.714177312540055675e+00
1.828180791650135806e+00
2.059187841425824672e+00
2.059187841425824672e+00
2.268631733146153184e+00
2.268631733146153184e+00
2.109626880703146412e+00
2.111689443647572162e+00
2.111689443647572162e+00
2.067250587481307633e+00
2.067250587481307633e+00
2.108126834925382109e+00
2.090126285592211808e+00
2.090126285592211808e+00
2.367447248756370914e+00
2.367447248756370914e+00
2.402135807367168141e+00
2.082251045258949329e+00
2.082251045258949329e+00
1.866244453260902825e+00
1.992060792870876229e+00
1.992060792870876229e+00
1.988685689870906881e+00
1.988685689870906881e+00
1.934496536149174606e+00
1.959622302926725235e+00
1.959622302926725235e+00
1.893620288705099686e+00
1.893620288705099686e+00
1.758991180150761391e+00
1.983998046815393712e+00
1.983998046815393712e+00
2.164003540147099169e+00
2.164003540147099169e+00
2.156315805536057617e+00
2.152940702536088047e+00
2.152940702536088047e+00
2.052812646870326940e+00
2.052812646870326940e+00
2.000873561815240897e+00
2.113376995147556947e+00
2.113376995147556947e+00
2.063312967314676172e+00
2.073250770592364400e+00
2.073250770592364400e+00
1.998248481704153479e+00
1.998248481704153479e+00
2.260943998535111632e+00
2.244631000701926116e+00
2.244631000701926116e+00
2.100064088869899592e+00
2.100064088869899592e+00
2.203754753257850751e+00
2.142065370647297406e+00
2.142065370647297406e+00
1.907870723593859896e+00
1.907870723593859896e+00
1.992248298593096711e+00
2.037624683370464318e+00
2.037624683370464318e+00
2.134377636036255854e+00
2.134377636036255854e+00
2.124064821314127105e+00
1.979872920926541990e+00
1.979872920926541990e+00
2.026186834315011787e+00
2.164566057313760616e+00
2.164566057313760616e+00
2.051500106814783120e+00
2.023186742759483625e+00
2.023186742759483625e+00
1.983435529648732043e+00
1.983435529648732043e+00
2.079063447981200685e+00
1.992248298593096711e+00
1.992248298593096711e+00
1.928683858760338099e+00
1.928683858760338099e+00
2.028436902981658463e+00
2.181254066591387542e+00
2.181254066591387542e+00
2.047937498092593067e+00
2.047937498092593067e+00
2.021874202703940249e+00
1.924558732871486599e+00
2.115814569536424106e+00
2.115814569536424106e+00
2.305570360423596643e+00
2.240693380535294654e+00
2.240693380535294654e+00
1.871682119205298145e+00
1.871682119205298145e+00
1.922496169927060850e+00
2.253068758201849597e+00
2.253068758201849597e+00
2.241068391979735619e+00
2.122189764091921838e+00
2.122189764091921838e+00
2.094251411481063307e+00
2.094251411481063307e+00
2.017561571092867823e+00
1.821993102816858334e+00
1.821993102816858334e+00
2.011748893704031538e+00
2.011748893704031538e+00
1.988498184148686176e+00
2.068375621814630971e+00
2.068375621814630971e+00
2.007248756370739073e+00
2.007248756370739073e+00
2.000873561815240897e+00
1.978185369426557427e+00
1.978185369426557427e+00
2.149003082369457029e+00
2.149003082369457029e+00
2.054312692648091243e+00
1.955497177037873513e+00
1.955497177037873513e+00
1.980622943815424142e+00
1.980622943815424142e+00
2.201879696035645484e+00
1.990748252815332409e+00
1.990748252815332409e+00
2.000686056093020415e+00
2.142627887813959298e+00
2.142627887813959298e+00
2.209379924924466998e+00
2.209379924924466998e+00
2.195504501480147752e+00
2.202254707480086449e+00
2.202254707480086449e+00
2.251568712424085295e+00
2.251568712424085295e+00
2.213505050813318054e+00
2.039687246314890068e+00
2.039687246314890068e+00
1.925496261482589233e+00
1.925496261482589233e+00
1.759553697317423060e+00
2.012123905148472502e+00
2.012123905148472502e+00
2.212005005035553751e+00
1.999561021759697299e+00
1.999561021759697299e+00
1.981747978148747258e+00
1.981747978148747258e+00
2.077563402203436382e+00
2.046249946592608282e+00
2.046249946592608282e+00
1.988498184148686176e+00
1.988498184148686176e+00
2.030874477370525177e+00
2.139440290536210654e+00
2.139440290536210654e+00
2.285882259590441556e+00
2.285882259590441556e+00
2.026936857203894160e+00
2.076063356425672080e+00
2.076063356425672080e+00
2.036687154759361462e+00
2.036687154759361462e+00
2.147128025147251762e+00
2.118252143925290376e+00
2.118252143925290376e+00
1.990373241370891666e+00
1.990373241370891666e+00
2.012123905148472502e+00
2.081126010925626435e+00
2.081126010925626435e+00
2.010623859370708644e+00
2.138502761925107798e+00
2.138502761925107798e+00
2.150690633869442259e+00
2.150690633869442259e+00
1.997498458815271549e+00
1.944996856593524059e+00
1.944996856593524059e+00
2.013998962370677770e+00
2.013998962370677770e+00
2.076438367870113488e+00
1.996560930204168693e+00
1.996560930204168693e+00
2.131002533036286284e+00
2.131002533036286284e+00
2.090313791314432290e+00
2.144315439313944083e+00
2.144315439313944083e+00
2.305007843256935196e+00
2.305007843256935196e+00
1.985873104037598758e+00
1.804930082094790444e+00
1.804930082094790444e+00
1.913683400982696181e+00
2.013623950926236805e+00
2.013623950926236805e+00
2.158565874202703849e+00
2.158565874202703849e+00
2.305570360423596643e+00
2.113376995147556947e+00
2.113376995147556947e+00
2.069500656147953865e+00
1.884245002594073348e+00
2.081126010925626435e+00
2.081126010925626435e+00
2.210129947813348927e+00
1.925683767204809937e+00
1.925683767204809937e+00
2.106064271980956359e+00
2.106064271980956359e+00
1.905995666371654407e+00
1.905620654927213442e+00
1.905620654927213442e+00
2.112251960814234053e+00
2.112251960814234053e+00
2.282132145146031021e+00
2.125002349925229961e+00
2.125002349925229961e+00
2.193254432813501520e+00
2.216692648091067142e+00
1.986810632648701391e+00
1.899432966093935971e+00
1.899432966093935971e+00
2.003873653370769503e+00
2.003873653370769503e+00
1.986060609759819240e+00
1.992435804315317194e+00
1.992435804315317194e+00
2.079063447981200685e+00
2.079063447981200685e+00
2.198879604480116878e+00
2.137565233314004942e+00
2.137565233314004942e+00
1.928496353038117617e+00
2.154815759758293314e+00
2.154815759758293314e+00
2.351134250923184954e+00
2.351134250923184954e+00
2.211254982146671821e+00
2.055062715536973172e+00
2.055062715536973172e+00
1.994123355815301979e+00
1.994123355815301979e+00
2.090876308481094181e+00
2.050750083925901190e+00
2.050750083925901190e+00
2.046249946592608282e+00
2.046249946592608282e+00
