2.078500930814539238e+00
2.073063264870143918e+00
2.073063264870143918e+00
2.052625141148106458e+00
2.056187749870296511e+00
2.056187749870296511e+00
2.039874752037110550e+00
2.037437177648243392e+00
2.037437177648243392e+00
2.061812921536912313e+00
2.061812921536912313e+00
2.047562486648152102e+00
2.020186651203955464e+00
2.020186651203955464e+00
2.043999877925962494e+00
2.043999877925962494e+00
2.049625049592577852e+00
2.080563493758964988e+00
2.080563493758964988e+00
2.133627613147373925e+00
2.133627613147373925e+00
2.101564134647663895e+00
2.068938138981292418e+00
2.068938138981292418e+00
2.058812829981383707e+00
2.050937589648121673e+00
2.050937589648121673e+00
2.032562028870509963e+00
2.032562028870509963e+00
2.018311593981750196e+00
2.024311777092806519e+00
2.024311777092806519e+00
2.017936582537308787e+00
2.044562395092623941e+00
2.044562395092623941e+00
2.055437726981414581e+00
2.070250679036835795e+00
2.070250679036835795e+00
2.079250953703421168e+00
2.079250953703421168e+00
2.074750816370128703e+00
2.050937589648121673e+00
2.050937589648121673e+00
2.030686971648304695e+00
2.041374797814874853e+00
2.041374797814874853e+00
2.055625232703635064e+00
2.055625232703635064e+00
2.051500106814783120e+00
2.071375713370158689e+00
2.071375713370158689e+00
2.063312967314676172e+00
2.063312967314676172e+00
2.063687978759117581e+00
2.054500198370311725e+00
2.054500198370311725e+00
2.057125278481399366e+00
2.057125278481399366e+00
2.020936674092837393e+00
2.047749992370372585e+00
2.047749992370372585e+00
2.040062257759331033e+00
2.076250862147892562e+00
2.076250862147892562e+00
2.103814203314310571e+00
2.103814203314310571e+00
2.095376445814386202e+00
2.079063447981200685e+00
2.079063447981200685e+00
2.018311593981750196e+00
2.018311593981750196e+00
2.038562211981566730e+00
2.074375804925687294e+00
2.074375804925687294e+00
2.050562578203680708e+00
2.068375621814630971e+00
2.068375621814630971e+00
2.082063539536728847e+00
2.082063539536728847e+00
2.071375713370158689e+00
2.020186651203955464e+00
2.020186651203955464e+00
2.053937681203650278e+00
2.053937681203650278e+00
2.049625049592577852e+00
2.015123996704001108e+00
2.015123996704001108e+00
1.932246467482528152e+00
2.076438367870113488e+00
2.076438367870113488e+00
2.036124637592700015e+00
2.036124637592700015e+00
2.083938596758934114e+00
2.135877681814020157e+00
2.135877681814020157e+00
2.077000885036774935e+00
2.077000885036774935e+00
2.039687246314890068e+00
2.034062074648274265e+00
2.034062074648274265e+00
2.040249763481551515e+00
2.063687978759117581e+00
2.063687978759117581e+00
2.090313791314432290e+00
2.090313791314432290e+00
2.086188665425580790e+00
2.105314249092073986e+00
2.105314249092073986e+00
2.079438459425641650e+00
2.079438459425641650e+00
2.047562486648152102e+00
2.050375072481459782e+00
2.050375072481459782e+00
2.034624591814935712e+00
2.034624591814935712e+00
2.029749443037202283e+00
2.019249122592852608e+00
2.019249122592852608e+00
2.026186834315011787e+00
2.026186834315011787e+00
2.023374248481704107e+00
2.013061433759574914e+00
2.013061433759574914e+00
2.023561754203924590e+00
2.043062349314859638e+00
2.043062349314859638e+00
2.043249855037080120e+00
2.043249855037080120e+00
2.082251045258949329e+00
2.088251228370006540e+00
2.088251228370006540e+00
2.058812829981383707e+00
2.058812829981383707e+00
2.019999145481734981e+00
2.038187200537125765e+00
2.038187200537125765e+00
2.068563127536851454e+00
2.068563127536851454e+00
2.069313150425733383e+00
2.051500106814783120e+00
2.051500106814783120e+00
2.074000793481246330e+00
2.074000793481246330e+00
2.081501022370067400e+00
2.028061891537217498e+00
2.028061891537217498e+00
2.042874843592639156e+00
2.057500289925840331e+00
2.057500289925840331e+00
2.043437360759300603e+00
2.043437360759300603e+00
2.045874935148167761e+00
2.080000976592303541e+00
2.080000976592303541e+00
2.107001800592058771e+00
2.107001800592058771e+00
2.069688161870173904e+00
2.029186925870540392e+00
2.029186925870540392e+00
2.023749259926145072e+00
2.023749259926145072e+00
1.996185918759727951e+00
2.031436994537187068e+00
2.031436994537187068e+00
2.077375896481215900e+00
2.077375896481215900e+00
2.110376903592028786e+00
2.111876949369793088e+00
2.111876949369793088e+00
2.075688344981231115e+00
2.045124912259285388e+00
2.045124912259285388e+00
2.040437269203771997e+00
2.040437269203771997e+00
2.063125461592455689e+00
2.068750633259071936e+00
2.068750633259071936e+00
2.073625782036805365e+00
2.073625782036805365e+00
2.037249671926022909e+00
1.995060884426404613e+00
1.995060884426404613e+00
2.043812372203741567e+00
2.043812372203741567e+00
2.068563127536851454e+00
2.060687887203588975e+00
2.060687887203588975e+00
2.091438825647755628e+00
2.045124912259285388e+00
2.045124912259285388e+00
2.026936857203894160e+00
2.026936857203894160e+00
2.073813287759025847e+00
2.089001251258888470e+00
2.089001251258888470e+00
2.110189397869807859e+00
2.110189397869807859e+00
2.071375713370158689e+00
2.098001525925473842e+00
2.098001525925473842e+00
2.101189123203222930e+00
2.042124820703756782e+00
2.042124820703756782e+00
2.036124637592700015e+00
2.036124637592700015e+00
2.053000152592547423e+00
2.084501113925596005e+00
2.084501113925596005e+00
2.034624591814935712e+00
2.034624591814935712e+00
2.054875209814752690e+00
2.021874202703940249e+00
2.021874202703940249e+00
1.957559739982299263e+00
1.957559739982299263e+00
1.978747886593218652e+00
2.036124637592700015e+00
2.036124637592700015e+00
2.087876216925565576e+00
2.139065279091769245e+00
2.139065279091769245e+00
2.162128482924894346e+00
2.162128482924894346e+00
2.112064455092013571e+00
2.059000335703604190e+00
2.059000335703604190e+00
2.052437635425885976e+00
2.052437635425885976e+00
2.076063356425672080e+00
2.075500839259010633e+00
2.075500839259010633e+00
2.085063631092257452e+00
2.097439008758812395e+00
2.097439008758812395e+00
2.066688070314646186e+00
2.066688070314646186e+00
2.034999603259376677e+00
2.025436811426129857e+00
2.025436811426129857e+00
2.034249580370494748e+00
2.034249580370494748e+00
2.010811365092929126e+00
1.998623493148594665e+00
1.998623493148594665e+00
1.979872920926541990e+00
1.979872920926541990e+00
1.991123264259773595e+00
2.026749351481673678e+00
2.026749351481673678e+00
2.132315073091830104e+00
2.132315073091830104e+00
2.164003540147099169e+00
2.080563493758964988e+00
2.080563493758964988e+00
2.077375896481215900e+00
2.095188940092165719e+00
2.095188940092165719e+00
2.105876766258735877e+00
2.105876766258735877e+00
2.082626056703390294e+00
2.062562944425794242e+00
2.062562944425794242e+00
2.053187658314767905e+00
2.053187658314767905e+00
2.089001251258888470e+00
2.095188940092165719e+00
2.095188940092165719e+00
1.996748435926389398e+00
1.996748435926389398e+00
1.901870540482802907e+00
1.976872829371013607e+00
1.976872829371013607e+00
2.036687154759361462e+00
2.036687154759361462e+00
2.173003814813684542e+00
2.159315897091586223e+00
2.159315897091586223e+00
2.112251960814234053e+00
2.061812921536912313e+00
2.061812921536912313e+00
2.019811639759514499e+00
2.019811639759514499e+00
2.017749076815088305e+00
2.021874202703940249e+00
2.021874202703940249e+00
2.068188116092410045e+00
2.068188116092410045e+00
2.126502395702994264e+00
2.119189672536393232e+00
2.119189672536393232e+00
2.043999877925962494e+00
2.043999877925962494e+00
2.032937040314951371e+00
2.034437086092715230e+00
2.034437086092715230e+00
2.057312784203619849e+00
2.057312784203619849e+00
2.101751640369884377e+00
2.155753288369396170e+00
2.155753288369396170e+00
2.118439649647511303e+00
2.083563585314493150e+00
2.083563585314493150e+00
1.982310495315408927e+00
1.982310495315408927e+00
1.976122806482131455e+00
1.980060426648762473e+00
1.980060426648762473e+00
2.112439466536454535e+00
2.112439466536454535e+00
2.062750450148014725e+00
2.099876583147679110e+00
2.099876583147679110e+00
2.039312234870449103e+00
2.039312234870449103e+00
2.114314523758659803e+00
2.164941068758201581e+00
2.164941068758201581e+00
2.113752006591998356e+00
2.113752006591998356e+00
2.111314432203131197e+00
2.063875484481338063e+00
2.063875484481338063e+00
1.980247932370982955e+00
1.980247932370982955e+00
1.978185369426557427e+00
2.001998596148564236e+00
2.001998596148564236e+00
2.077563402203436382e+00
2.064625507370219992e+00
2.064625507370219992e+00
2.081876033814508364e+00
2.081876033814508364e+00
2.042687337870418673e+00
2.023936765648365554e+00
2.023936765648365554e+00
2.072500747703482027e+00
2.072500747703482027e+00
2.075313333536790150e+00
2.071375713370158689e+00
2.071375713370158689e+00
2.076438367870113488e+00
2.076438367870113488e+00
2.126689901425214746e+00
2.059000335703604190e+00
2.059000335703604190e+00
1.987373149815363060e+00
1.981560472426526776e+00
1.981560472426526776e+00
2.018499099703970678e+00
2.018499099703970678e+00
2.111314432203131197e+00
2.159878414258247670e+00
2.159878414258247670e+00
2.169066194647053525e+00
2.169066194647053525e+00
2.129127475814081016e+00
2.095188940092165719e+00
2.095188940092165719e+00
2.022249214148381213e+00
2.022249214148381213e+00
2.035562120426038124e+00
2.046437452314828764e+00
2.046437452314828764e+00
2.077000885036774935e+00
2.040999786370433888e+00
2.040999786370433888e+00
2.011748893704031538e+00
2.011748893704031538e+00
2.006498733481856700e+00
2.050937589648121673e+00
2.050937589648121673e+00
2.117689626758628929e+00
2.117689626758628929e+00
2.110939420758690233e+00
2.062562944425794242e+00
2.062562944425794242e+00
2.101376628925443413e+00
2.101376628925443413e+00
2.026186834315011787e+00
2.101564134647663895e+00
2.101564134647663895e+00
1.979122898037659839e+00
1.979122898037659839e+00
2.067813104647969080e+00
2.131940061647389140e+00
2.131940061647389140e+00
2.129689992980742907e+00
2.057312784203619849e+00
2.057312784203619849e+00
2.024311777092806519e+00
2.024311777092806519e+00
2.108689352092044000e+00
2.094438917203283790e+00
2.094438917203283790e+00
2.122564775536362802e+00
2.122564775536362802e+00
2.093126377147739969e+00
2.035374614703817642e+00
2.035374614703817642e+00
1.965434980315561520e+00
1.965434980315561520e+00
1.979310403759880321e+00
1.915745963927121709e+00
1.915745963927121709e+00
1.888370128482924848e+00
1.888370128482924848e+00
2.040812280648213406e+00
2.192879421369060555e+00
2.192879421369060555e+00
2.194754478591265823e+00
2.110564409314249268e+00
2.110564409314249268e+00
2.178066469313638454e+00
2.178066469313638454e+00
2.193441938535722002e+00
2.163066011535996758e+00
2.163066011535996758e+00
2.049250038148136888e+00
2.049250038148136888e+00
2.055625232703635064e+00
2.022249214148381213e+00
2.022249214148381213e+00
1.906745689260536558e+00
1.906745689260536558e+00
1.994685872981963648e+00
2.032187017426068998e+00
2.032187017426068998e+00
2.113189489425336465e+00
2.113189489425336465e+00
2.127627430036317158e+00
2.020374156926175946e+00
2.020374156926175946e+00
1.979872920926541990e+00
2.023561754203924590e+00
2.023561754203924590e+00
2.100626606036561483e+00
2.100626606036561483e+00
2.163253517258217240e+00
1.980435438093203437e+00
1.980435438093203437e+00
2.045312417981505870e+00
2.045312417981505870e+00
2.135127658925138228e+00
2.143752922147282192e+00
2.143752922147282192e+00
1.938059144871364436e+00
1.938059144871364436e+00
2.007998779259621003e+00
2.074938322092349186e+00
2.074938322092349186e+00
2.223067842646564873e+00
2.223067842646564873e+00
2.121064729758598499e+00
2.031061983092746104e+00
2.031061983092746104e+00
2.075313333536790150e+00
2.059000335703604190e+00
2.059000335703604190e+00
1.960559831537827868e+00
1.960559831537827868e+00
1.946871913815729327e+00
2.072313241981261545e+00
2.072313241981261545e+00
2.161190954313791490e+00
2.161190954313791490e+00
2.160815942869350526e+00
2.058062807092501334e+00
2.058062807092501334e+00
1.996560930204168693e+00
1.996560930204168693e+00
2.122564775536362802e+00
2.121064729758598499e+00
2.121064729758598499e+00
2.082626056703390294e+00
2.004436170537430950e+00
2.004436170537430950e+00
1.843931272316659875e+00
1.843931272316659875e+00
1.920621112704855360e+00
2.108126834925382109e+00
2.108126834925382109e+00
2.189879329813531950e+00
2.189879329813531950e+00
2.089751274147770843e+00
2.084876125370036970e+00
2.084876125370036970e+00
2.032937040314951371e+00
2.032937040314951371e+00
2.098751548814355772e+00
2.185941709646900932e+00
2.185941709646900932e+00
2.164753563035981099e+00
2.176941434980315559e+00
2.176941434980315559e+00
2.050562578203680708e+00
2.050562578203680708e+00
1.905620654927213442e+00
1.980060426648762473e+00
1.980060426648762473e+00
1.950622028260139862e+00
1.950622028260139862e+00
2.086563676870021755e+00
2.312133060701315301e+00
2.312133060701315301e+00
2.120689718314157535e+00
2.160815942869350526e+00
2.160815942869350526e+00
2.042687337870418673e+00
2.042687337870418673e+00
1.926058778649250680e+00
2.091063814203314664e+00
2.091063814203314664e+00
1.934121524704733419e+00
1.934121524704733419e+00
1.986810632648701391e+00
2.022999237037263143e+00
2.022999237037263143e+00
2.017749076815088305e+00
2.017749076815088305e+00
2.129689992980742907e+00
2.192316904202398664e+00
2.192316904202398664e+00
2.017936582537308787e+00
2.017936582537308787e+00
2.057500289925840331e+00
2.056187749870296511e+00
2.056187749870296511e+00
1.993373332926419828e+00
1.993373332926419828e+00
1.893057771538438017e+00
2.052250129703665493e+00
2.052250129703665493e+00
2.172253791924802613e+00
2.058062807092501334e+00
2.058062807092501334e+00
1.997310953093050845e+00
1.997310953093050845e+00
1.971622669148838769e+00
2.170753746147038310e+00
2.170753746147038310e+00
1.950622028260139862e+00
1.950622028260139862e+00
2.010623859370708644e+00
2.161753471480452937e+00
2.161753471480452937e+00
2.111689443647572162e+00
2.111689443647572162e+00
2.084501113925596005e+00
2.159690908536027187e+00
2.159690908536027187e+00
2.164378551591540134e+00
2.218942716757713818e+00
2.218942716757713818e+00
2.179003997924741309e+00
2.179003997924741309e+00
2.170566240424817828e+00
2.097814020203253360e+00
2.097814020203253360e+00
2.040999786370433888e+00
2.040999786370433888e+00
1.906745689260536558e+00
1.920058595538193913e+00
1.920058595538193913e+00
1.835681020538956876e+00
1.835681020538956876e+00
1.890995208594012267e+00
1.942184270760216158e+00
1.942184270760216158e+00
1.948746971037934594e+00
1.948746971037934594e+00
2.152753196813867564e+00
2.104939237647633021e+00
2.104939237647633021e+00
2.088063722647786058e+00
2.088063722647786058e+00
2.049437543870357370e+00
2.127252418591876193e+00
2.127252418591876193e+00
2.481825739310891787e+00
2.491576036866359534e+00
2.491576036866359534e+00
1.996185918759727951e+00
1.996185918759727951e+00
1.557047517319254171e+00
1.494795617542039379e+00
1.494795617542039379e+00
1.992623310037537676e+00
1.992623310037537676e+00
2.147315530869472244e+00
2.230005554368724940e+00
2.230005554368724940e+00
2.144690450758385047e+00
2.144690450758385047e+00
2.142815393536179780e+00
2.051312601092562637e+00
2.051312601092562637e+00
2.202629718924527857e+00
2.202629718924527857e+00
2.273131870479445649e+00
2.072875759147922992e+00
2.072875759147922992e+00
1.887057588427381249e+00
2.072500747703482027e+00
2.072500747703482027e+00
2.236568254646443155e+00
2.236568254646443155e+00
2.169628711813714972e+00
1.871307107760856958e+00
1.871307107760856958e+00
1.672926053651539791e+00
1.672926053651539791e+00
1.932808984649189599e+00
2.060500381481368493e+00
2.060500381481368493e+00
2.107751823480941145e+00
2.107751823480941145e+00
2.074188299203466812e+00
1.985873104037598758e+00
1.985873104037598758e+00
2.118064638203069894e+00
2.118064638203069894e+00
2.308945463423566213e+00
2.339883907589953349e+00
2.339883907589953349e+00
2.242193426313058957e+00
2.019811639759514499e+00
2.019811639759514499e+00
1.971622669148838769e+00
1.971622669148838769e+00
1.869619556260872173e+00
1.999936033204138486e+00
1.999936033204138486e+00
2.022811731315042216e+00
2.022811731315042216e+00
1.977997863704336723e+00
2.207504867702261730e+00
2.207504867702261730e+00
2.232443128757591655e+00
2.045874935148167761e+00
2.045874935148167761e+00
2.089188756981108952e+00
2.089188756981108952e+00
2.119002166814172750e+00
1.801929990539262283e+00
1.801929990539262283e+00
1.904308114871669622e+00
1.904308114871669622e+00
2.131940061647389140e+00
2.236193243202001746e+00
2.236193243202001746e+00
2.004811181981871915e+00
2.004811181981871915e+00
1.947246925260170292e+00
1.981935483870967740e+00
1.981935483870967740e+00
2.160628437147130043e+00
2.157253334147160473e+00
2.157253334147160473e+00
2.176378917813653668e+00
2.176378917813653668e+00
2.087313699758903685e+00
2.100439100314340557e+00
2.100439100314340557e+00
2.100626606036561483e+00
2.100626606036561483e+00
2.188941801202429094e+00
2.018499099703970678e+00
2.018499099703970678e+00
1.911995849482711396e+00
1.911995849482711396e+00
1.962809900204474101e+00
2.053750175481429796e+00
2.053750175481429796e+00
1.918371044038209350e+00
1.918371044038209350e+00
1.979122898037659839e+00
1.952122074037903943e+00
1.952122074037903943e+00
2.281194616534928166e+00
2.218567705313272853e+00
2.218567705313272853e+00
1.889120151371806999e+00
1.889120151371806999e+00
1.967497543259987047e+00
1.880494888149662813e+00
1.880494888149662813e+00
1.863619373149815406e+00
1.863619373149815406e+00
2.412636127811517817e+00
2.574078554643390859e+00
2.574078554643390859e+00
2.361634571367534630e+00
2.361634571367534630e+00
2.019624134037293572e+00
1.995810907315286764e+00
1.995810907315286764e+00
2.157628345591601438e+00
2.157628345591601438e+00
1.950247016815698675e+00
1.646112735374004377e+00
1.646112735374004377e+00
1.769116489150669880e+00
1.891370220038453231e+00
1.891370220038453231e+00
2.149003082369457029e+00
2.149003082369457029e+00
2.193254432813501520e+00
2.291882442701498768e+00
2.291882442701498768e+00
2.183504135258034218e+00
2.183504135258034218e+00
2.425574022644734207e+00
2.396135624256111374e+00
2.396135624256111374e+00
1.769679006317331549e+00
1.769679006317331549e+00
1.591548570207831137e+00
1.971997680593279956e+00
1.971997680593279956e+00
2.080000976592303541e+00
2.080000976592303541e+00
1.968247566148869199e+00
2.014936490981780626e+00
2.014936490981780626e+00
2.260943998535111632e+00
2.265256630146183614e+00
2.265256630146183614e+00
2.002186101870784718e+00
2.002186101870784718e+00
1.854994109927671220e+00
2.004998687704092397e+00
2.004998687704092397e+00
2.236755760368663637e+00
2.236755760368663637e+00
2.078875942258980203e+00
1.902995574816126023e+00
1.902995574816126023e+00
2.083188573870052185e+00
2.083188573870052185e+00
2.107564317758720662e+00
2.016061525315103520e+00
2.016061525315103520e+00
2.142440382091738371e+00
2.092188848536637558e+00
2.165128574480422063e+00
2.165128574480422063e+00
1.986623126926480909e+00
1.986623126926480909e+00
1.879182348094118993e+00
1.856494155705435301e+00
1.856494155705435301e+00
2.016624042481765411e+00
2.016624042481765411e+00
2.143377910702841227e+00
2.636517960142826578e+00
2.636517960142826578e+00
2.079813470870083059e+00
2.079813470870083059e+00
1.936371593371379873e+00
1.850493972594378533e+00
1.850493972594378533e+00
2.182566606646931362e+00
2.178441480758079862e+00
2.178441480758079862e+00
1.965434980315561520e+00
1.965434980315561520e+00
2.132315073091830104e+00
2.158565874202703849e+00
2.158565874202703849e+00
1.785429486983855618e+00
1.785429486983855618e+00
2.097439008758812395e+00
1.841681203650013865e+00
1.841681203650013865e+00
1.972185186315500438e+00
1.972185186315500438e+00
2.234505691702016961e+00
2.008373790704061967e+00
2.008373790704061967e+00
2.114689535203100768e+00
2.114689535203100768e+00
2.165316080202642990e+00
2.424823999755851833e+00
2.424823999755851833e+00
2.137190221869563977e+00
2.071188207647938206e+00
2.071188207647938206e+00
2.046999969481490211e+00
2.046999969481490211e+00
1.884620014038514535e+00
2.020749168370616911e+00
2.020749168370616911e+00
1.916683492538224565e+00
1.916683492538224565e+00
2.259631458479567812e+00
2.267881710257271255e+00
2.267881710257271255e+00
2.313445600756859122e+00
1.970310129093295171e+00
1.970310129093295171e+00
1.684926419873653547e+00
1.802492507705923730e+00
1.802492507705923730e+00
2.179566515091402756e+00
2.340633930478835278e+00
2.340633930478835278e+00
2.204129764702292160e+00
2.204129764702292160e+00
1.992810815759758380e+00
1.687176488540299779e+00
1.687176488540299779e+00
1.902058046205023389e+00
1.902058046205023389e+00
2.001623584704122827e+00
2.178628986480300345e+00
2.178628986480300345e+00
2.206192327646717910e+00
2.208629902035584625e+00
2.208629902035584625e+00
2.211817499313333268e+00
2.211817499313333268e+00
1.969935117648853984e+00
2.010061342204047197e+00
2.010061342204047197e+00
1.949872005371257710e+00
1.949872005371257710e+00
2.011748893704031538e+00
2.037624683370464318e+00
2.037624683370464318e+00
2.029374431592760875e+00
2.029374431592760875e+00
2.066125553147984295e+00
2.196254524369030126e+00
2.196254524369030126e+00
2.213505050813318054e+00
2.213505050813318054e+00
2.187629261146885273e+00
1.958684774315622379e+00
1.958684774315622379e+00
1.999936033204138486e+00
2.032562028870509963e+00
2.032562028870509963e+00
1.793867244483779544e+00
1.793867244483779544e+00
1.912933378093814030e+00
2.177128940702536042e+00
2.177128940702536042e+00
2.116752098147526517e+00
2.116752098147526517e+00
2.339696401867732423e+00
2.256068849757378203e+00
2.256068849757378203e+00
1.905995666371654407e+00
1.905995666371654407e+00
2.033687063203833301e+00
2.045312417981505870e+00
2.045312417981505870e+00
2.172441297647023095e+00
2.229818048646504014e+00
2.229818048646504014e+00
1.957372234260078780e+00
1.957372234260078780e+00
1.945559373760185506e+00
1.911995849482711396e+00
1.911995849482711396e+00
1.335415753654591420e+00
1.670488479262672854e+00
1.670488479262672854e+00
2.411886104922635443e+00
2.411886104922635443e+00
2.500763817255165389e+00
2.246881069368571904e+00
2.246881069368571904e+00
2.039124729148228621e+00
2.021686696981719766e+00
2.021686696981719766e+00
2.073250770592364400e+00
2.070625690481276759e+00
2.070625690481276759e+00
2.201692190313425002e+00
2.110001892147587377e+00
2.110001892147587377e+00
2.168691183202612560e+00
2.168691183202612560e+00
1.972560197759941625e+00
2.141690359202856442e+00
2.141690359202856442e+00
2.393135532700583212e+00
2.393135532700583212e+00
2.052625141148106458e+00
1.932058961760307669e+00
1.932058961760307669e+00
1.976122806482131455e+00
1.976122806482131455e+00
2.045124912259285388e+00
1.869057039094210726e+00
1.869057039094210726e+00
2.044562395092623941e+00
2.044562395092623941e+00
2.138127750480666833e+00
2.046249946592608282e+00
2.056750267036957958e+00
1.943684316537980239e+00
1.943684316537980239e+00
1.980247932370982955e+00
2.013811456648457288e+00
2.013811456648457288e+00
2.200004638813440216e+00
2.084126102481154597e+00
2.084126102481154597e+00
2.134002624591814889e+00
2.134002624591814889e+00
2.064813013092440475e+00
1.893620288705099686e+00
1.893620288705099686e+00
2.039499740592669585e+00
2.039499740592669585e+00
2.195879512924588717e+00
2.138690267647328280e+00
2.138690267647328280e+00
2.131940061647389140e+00
2.131940061647389140e+00
2.045312417981505870e+00
2.170191228980376863e+00
2.170191228980376863e+00
2.244068483535264225e+00
2.244068483535264225e+00
2.043624866481521085e+00
1.904308114871669622e+00
1.904308114871669622e+00
1.990373241370891666e+00
1.938059144871364436e+00
1.938059144871364436e+00
1.977810357982116241e+00
1.977810357982116241e+00
2.014561479537339217e+00
1.907308206427198227e+00
1.907308206427198227e+00
1.975372783593249304e+00
1.975372783593249304e+00
2.221755302591021497e+00
2.273131870479445649e+00
2.273131870479445649e+00
2.116939603869747000e+00
2.116939603869747000e+00
1.982873012482070374e+00
2.001061067537461380e+00
2.001061067537461380e+00
2.025624317148350340e+00
1.886307565538499098e+00
1.886307565538499098e+00
1.907495712149418710e+00
1.907495712149418710e+00
2.244818506424146598e+00
2.301070223090304623e+00
2.301070223090304623e+00
2.047937498092593067e+00
2.047937498092593067e+00
2.029186925870540392e+00
1.910495803704947093e+00
1.910495803704947093e+00
1.992623310037537676e+00
1.992623310037537676e+00
2.124252327036347587e+00
2.255693838312936794e+00
2.255693838312936794e+00
2.183691640980254700e+00
2.183691640980254700e+00
2.070438184759056277e+00
1.976497817926572642e+00
1.976497817926572642e+00
2.001998596148564236e+00
2.104939237647633021e+00
2.104939237647633021e+00
2.044187383648182976e+00
2.044187383648182976e+00
2.095376445814386202e+00
2.020561662648396428e+00
2.020561662648396428e+00
2.146190496536149350e+00
2.146190496536149350e+00
2.050187566759239299e+00
2.043062349314859638e+00
2.043062349314859638e+00
2.131377544480727693e+00
2.131377544480727693e+00
2.151440656758324188e+00
2.030499465926084213e+00
2.030499465926084213e+00
1.949121982482375781e+00
1.949121982482375781e+00
1.968997589037751350e+00
1.953059602649006798e+00
1.953059602649006798e+00
1.933746513260292454e+00
2.033124546037171854e+00
2.033124546037171854e+00
2.067438093203528116e+00
2.067438093203528116e+00
2.054500198370311725e+00
2.063125461592455689e+00
2.063125461592455689e+00
2.010061342204047197e+00
2.010061342204047197e+00
1.951934568315683460e+00
1.956997222815637594e+00
1.956997222815637594e+00
2.129689992980742907e+00
2.093876400036621899e+00
2.093876400036621899e+00
2.104751731925412539e+00
2.104751731925412539e+00
2.184066652424695665e+00
2.180129032258064647e+00
2.180129032258064647e+00
2.094626422925504272e+00
2.094626422925504272e+00
2.105501754814294912e+00
1.988310678426465694e+00
1.988310678426465694e+00
2.017936582537308787e+00
2.062750450148014725e+00
2.062750450148014725e+00
2.130440015869624837e+00
2.130440015869624837e+00
2.131940061647389140e+00
1.937121616260262025e+00
1.937121616260262025e+00
1.989060701315347846e+00
1.989060701315347846e+00
2.131002533036286284e+00
2.070063173314615312e+00
2.070063173314615312e+00
2.221755302591021497e+00
2.221755302591021497e+00
2.009686330759605788e+00
2.009686330759605788e+00
1.960747337260048351e+00
2.010061342204047197e+00
2.010061342204047197e+00
2.038374706259346247e+00
2.057500289925840331e+00
2.057500289925840331e+00
1.973497726371044036e+00
1.973497726371044036e+00
2.060125370036927084e+00
2.100064088869899592e+00
2.100064088869899592e+00
2.192316904202398664e+00
2.192316904202398664e+00
2.037062166203802427e+00
2.010061342204047197e+00
2.010061342204047197e+00
2.027311868648335125e+00
2.027311868648335125e+00
1.922871181371501814e+00
2.072500747703482027e+00
2.072500747703482027e+00
2.346446607867672007e+00
2.346446607867672007e+00
2.164003540147099169e+00
1.884245002594073348e+00
1.884245002594073348e+00
1.906370677816095593e+00
1.906370677816095593e+00
2.029186925870540392e+00
2.029936948759422766e+00
2.029936948759422766e+00
2.195879512924588717e+00
2.132690084536271069e+00
2.132690084536271069e+00
2.004248664815210468e+00
2.004248664815210468e+00
2.011936399426252020e+00
2.032749534592730889e+00
2.032749534592730889e+00
2.089001251258888470e+00
2.143940427869502674e+00
2.143940427869502674e+00
2.183691640980254700e+00
2.183691640980254700e+00
2.103064180425428198e+00
2.067438093203528116e+00
2.067438093203528116e+00
2.083938596758934114e+00
2.083938596758934114e+00
2.113939512314218838e+00
2.079438459425641650e+00
2.079438459425641650e+00
1.903558091982787470e+00
1.903558091982787470e+00
1.894745323038422802e+00
1.853869075594348104e+00
1.853869075594348104e+00
2.002186101870784718e+00
2.002186101870784718e+00
1.983435529648732043e+00
1.991685781426435042e+00
1.991685781426435042e+00
2.082626056703390294e+00
2.147690542313913653e+00
2.147690542313913653e+00
2.124064821314127105e+00
2.124064821314127105e+00
2.092376354258858040e+00
2.039874752037110550e+00
2.039874752037110550e+00
2.137190221869563977e+00
2.137190221869563977e+00
2.085063631092257452e+00
1.963372417371135548e+00
1.963372417371135548e+00
2.064062990203558545e+00
2.064062990203558545e+00
2.118439649647511303e+00
2.058625324259163225e+00
2.058625324259163225e+00
2.079063447981200685e+00
2.079063447981200685e+00
2.022811731315042216e+00
1.957934751426740450e+00
1.957934751426740450e+00
1.963559923093356252e+00
1.963559923093356252e+00
2.072875759147922992e+00
2.103064180425428198e+00
2.103064180425428198e+00
2.039312234870449103e+00
1.990373241370891666e+00
1.990373241370891666e+00
2.059187841425824672e+00
2.059187841425824672e+00
2.251193700979644330e+00
2.219692739646595747e+00
2.219692739646595747e+00
2.054875209814752690e+00
2.054875209814752690e+00
2.053000152592547423e+00
2.071750724814600098e+00
2.071750724814600098e+00
2.053187658314767905e+00
2.053187658314767905e+00
2.088251228370006540e+00
2.044374889370403459e+00
2.044374889370403459e+00
1.982310495315408927e+00
1.982310495315408927e+00
2.040249763481551515e+00
2.051687612537003602e+00
2.051687612537003602e+00
2.078500930814539238e+00
2.078500930814539238e+00
2.034624591814935712e+00
2.036312143314920498e+00
2.036312143314920498e+00
2.074938322092349186e+00
2.074938322092349186e+00
2.098564043092135289e+00
2.074000793481246330e+00
2.074000793481246330e+00
2.090688802758873255e+00
2.074750816370128703e+00
2.074750816370128703e+00
2.128564958647419569e+00
2.128564958647419569e+00
2.092563859981078966e+00
2.068000610370189563e+00
2.068000610370189563e+00
2.062000427259132795e+00
2.070625690481276759e+00
2.078688436536759720e+00
2.078688436536759720e+00
2.082251045258949329e+00
2.095751457258827610e+00
2.095751457258827610e+00
2.087126194036683202e+00
2.087126194036683202e+00
1.974810266426587635e+00
1.996185918759727951e+00
1.996185918759727951e+00
2.028249397259437981e+00
2.028249397259437981e+00
2.121064729758598499e+00
2.078125919370098273e+00
2.078125919370098273e+00
2.028249397259437981e+00
2.028249397259437981e+00
2.058437818536942299e+00
2.109064363536484965e+00
2.109064363536484965e+00
2.057875301370280852e+00
2.057875301370280852e+00
2.020936674092837393e+00
2.043437360759300603e+00
2.043437360759300603e+00
2.030686971648304695e+00
2.038562211981566730e+00
2.038562211981566730e+00
2.092563859981078966e+00
2.176003906369212704e+00
2.176003906369212704e+00
2.153690725424969976e+00
2.106814294869838289e+00
2.106814294869838289e+00
2.093876400036621899e+00
2.093876400036621899e+00
2.052812646870326940e+00
2.132127567369609622e+00
2.061062898648029940e+00
2.061062898648029940e+00
1.957184728537858298e+00
1.957184728537858298e+00
2.001998596148564236e+00
2.008373790704061967e+00
2.008373790704061967e+00
2.047374980925931620e+00
2.047374980925931620e+00
2.092376354258858040e+00
2.023374248481704107e+00
2.023374248481704107e+00
2.086563676870021755e+00
2.057875301370280852e+00
2.057875301370280852e+00
1.908808252204962308e+00
1.908808252204962308e+00
1.966185003204443671e+00
2.011186376537369647e+00
2.011186376537369647e+00
2.167003631702627775e+00
2.167003631702627775e+00
2.167191137424848257e+00
2.089751274147770843e+00
2.089751274147770843e+00
2.067063081759087151e+00
2.030311960203863730e+00
2.030311960203863730e+00
2.089376262703329878e+00
2.089376262703329878e+00
2.094063905758842381e+00
2.029749443037202283e+00
2.029749443037202283e+00
1.972560197759941625e+00
1.972560197759941625e+00
2.004811181981871915e+00
2.068938138981292418e+00
2.068938138981292418e+00
1.980810449537644624e+00
1.980810449537644624e+00
2.167191137424848257e+00
2.107939329203161627e+00
2.107939329203161627e+00
2.108126834925382109e+00
2.108126834925382109e+00
2.144877956480605530e+00
2.079250953703421168e+00
2.079250953703421168e+00
1.976310312204351938e+00
1.967685048982207752e+00
1.967685048982207752e+00
2.043437360759300603e+00
2.043437360759300603e+00
2.080938505203405953e+00
2.089188756981108952e+00
2.089188756981108952e+00
2.104376720480972018e+00
2.104376720480972018e+00
1.988873195593127363e+00
1.922121158482619663e+00
1.922121158482619663e+00
2.020374156926175946e+00
2.020374156926175946e+00
2.135127658925138228e+00
2.110376903592028786e+00
2.110376903592028786e+00
2.017561571092867823e+00
2.031061983092746104e+00
2.031061983092746104e+00
2.064250495925779028e+00
2.014748985259559699e+00
2.014748985259559699e+00
2.029936948759422766e+00
2.029936948759422766e+00
2.072688253425702509e+00
2.061812921536912313e+00
2.061812921536912313e+00
2.104564226203192501e+00
2.104564226203192501e+00
2.079063447981200685e+00
2.030311960203863730e+00
2.030311960203863730e+00
2.059750358592486119e+00
2.046812463759269729e+00
2.046812463759269729e+00
2.050937589648121673e+00
2.050937589648121673e+00
2.037812189092684800e+00
2.003123630481887130e+00
2.003123630481887130e+00
2.044562395092623941e+00
2.044562395092623941e+00
2.080000976592303541e+00
2.080000976592303541e+00
2.053750175481429796e+00
2.053750175481429796e+00
2.101564134647663895e+00
2.101564134647663895e+00
2.067250587481307633e+00
1.994685872981963648e+00
1.994685872981963648e+00
2.080188482314524023e+00
2.089376262703329878e+00
2.089376262703329878e+00
1.941059236426893042e+00
1.941059236426893042e+00
2.104564226203192501e+00
2.067063081759087151e+00
2.067063081759087151e+00
2.022249214148381213e+00
2.022249214148381213e+00
2.050187566759239299e+00
2.100626606036561483e+00
2.100626606036561483e+00
2.080938505203405953e+00
2.080938505203405953e+00
2.043437360759300603e+00
2.056187749870296511e+00
2.056187749870296511e+00
2.061437910092470904e+00
2.061437910092470904e+00
2.055062715536973172e+00
2.003311136204107612e+00
2.003311136204107612e+00
2.007248756370739073e+00
2.007248756370739073e+00
2.036312143314920498e+00
2.021124179815057875e+00
2.021124179815057875e+00
1.993373332926419828e+00
2.074188299203466812e+00
2.074188299203466812e+00
2.056750267036957958e+00
2.056750267036957958e+00
2.064062990203558545e+00
2.024311777092806519e+00
2.024311777092806519e+00
2.035374614703817642e+00
2.035374614703817642e+00
2.073250770592364400e+00
2.069875667592394830e+00
2.069875667592394830e+00
2.069500656147953865e+00
2.069500656147953865e+00
2.043624866481521085e+00
2.031999511703848516e+00
2.031999511703848516e+00
2.080375988036744506e+00
2.043437360759300603e+00
2.043437360759300603e+00
2.084501113925596005e+00
2.084501113925596005e+00
2.114127018036439321e+00
2.052812646870326940e+00
2.052812646870326940e+00
2.031436994537187068e+00
2.031436994537187068e+00
2.010061342204047197e+00
2.004248664815210468e+00
2.004248664815210468e+00
2.003123630481887130e+00
2.003123630481887130e+00
2.079063447981200685e+00
2.097251503036591469e+00
2.097251503036591469e+00
2.052250129703665493e+00
2.052250129703665493e+00
2.045124912259285388e+00
2.093688894314401416e+00
2.093688894314401416e+00
2.096501480147709540e+00
2.096501480147709540e+00
2.073250770592364400e+00
2.057687795648060813e+00
2.057687795648060813e+00
2.013998962370677770e+00
2.013248939481795396e+00
2.013248939481795396e+00
2.011373882259590129e+00
2.011373882259590129e+00
1.998623493148594665e+00
2.047749992370372585e+00
2.047749992370372585e+00
2.061250404370250422e+00
2.061250404370250422e+00
2.064625507370219992e+00
2.079625965147862576e+00
2.079625965147862576e+00
2.068000610370189563e+00
2.068000610370189563e+00
2.056937772759178884e+00
2.062375438703573760e+00
2.062375438703573760e+00
2.051312601092562637e+00
2.051312601092562637e+00
2.100251594592120075e+00
2.078875942258980203e+00
2.078875942258980203e+00
2.065750541703543330e+00
2.036874660481581945e+00
2.036874660481581945e+00
2.080750999481185470e+00
2.080750999481185470e+00
2.067438093203528116e+00
2.031061983092746104e+00
2.031061983092746104e+00
2.049062532425916405e+00
2.048500015259254514e+00
2.048500015259254514e+00
2.024124271370586037e+00
2.024124271370586037e+00
1.989998229926450479e+00
2.046062440870388244e+00
2.046062440870388244e+00
2.057687795648060813e+00
2.057687795648060813e+00
2.043812372203741567e+00
2.070625690481276759e+00
2.070625690481276759e+00
2.080188482314524023e+00
2.080188482314524023e+00
2.036499649037140980e+00
2.058625324259163225e+00
2.058625324259163225e+00
2.037062166203802427e+00
2.037062166203802427e+00
2.053000152592547423e+00
2.086001159703360308e+00
2.086001159703360308e+00
2.077188390758995418e+00
2.077188390758995418e+00
2.048875026703695923e+00
2.018499099703970678e+00
2.018499099703970678e+00
2.025061799981688893e+00
2.025061799981688893e+00
2.053937681203650278e+00
2.062562944425794242e+00
2.062562944425794242e+00
2.060687887203588975e+00
2.060687887203588975e+00
2.049625049592577852e+00
2.044562395092623941e+00
2.044562395092623941e+00
2.022249214148381213e+00
2.050750083925901190e+00
2.050750083925901190e+00
2.031436994537187068e+00
2.031436994537187068e+00
2.068000610370189563e+00
2.098751548814355772e+00
2.098751548814355772e+00
2.098001525925473842e+00
2.098001525925473842e+00
2.065000518814661401e+00
2.052625141148106458e+00
2.052625141148106458e+00
2.047937498092593067e+00
2.047937498092593067e+00
2.046812463759269729e+00
2.055250221259193655e+00
2.055250221259193655e+00
2.039687246314890068e+00
2.039687246314890068e+00
2.034437086092715230e+00
2.037249671926022909e+00
2.037249671926022909e+00
2.034249580370494748e+00
2.057687795648060813e+00
2.057687795648060813e+00
2.068188116092410045e+00
2.068188116092410045e+00
2.071938230536820580e+00
2.094438917203283790e+00
2.094438917203283790e+00
2.088251228370006540e+00
2.088251228370006540e+00
2.095188940092165719e+00
2.051312601092562637e+00
2.051312601092562637e+00
2.002936124759666647e+00
2.003873653370769503e+00
2.003873653370769503e+00
2.016249031037324002e+00
2.016249031037324002e+00
2.035937131870479533e+00
2.071188207647938206e+00
2.071188207647938206e+00
2.087876216925565576e+00
2.087876216925565576e+00
2.058625324259163225e+00
2.061437910092470904e+00
2.061437910092470904e+00
2.080188482314524023e+00
2.080188482314524023e+00
2.063875484481338063e+00
2.057500289925840331e+00
2.057500289925840331e+00
2.058250312814721816e+00
2.058250312814721816e+00
2.055437726981414581e+00
2.036499649037140980e+00
2.036499649037140980e+00
2.019624134037293572e+00
2.019624134037293572e+00
2.066875576036866669e+00
2.120127201147496088e+00
2.120127201147496088e+00
2.101376628925443413e+00
2.044937406537064906e+00
2.044937406537064906e+00
2.042499832148198191e+00
2.042499832148198191e+00
2.047562486648152102e+00
2.070625690481276759e+00
2.070625690481276759e+00
2.085063631092257452e+00
2.085063631092257452e+00
2.078875942258980203e+00
2.062375438703573760e+00
2.062375438703573760e+00
2.047374980925931620e+00
2.047374980925931620e+00
2.067438093203528116e+00
2.048687520981474997e+00
2.048687520981474997e+00
2.019811639759514499e+00
2.026749351481673678e+00
2.026749351481673678e+00
2.049437543870357370e+00
2.049437543870357370e+00
2.058625324259163225e+00
2.068750633259071936e+00
2.068750633259071936e+00
2.051312601092562637e+00
2.055812738425855546e+00
2.050375072481459782e+00
2.075875850703451597e+00
2.075875850703451597e+00
2.031436994537187068e+00
2.031436994537187068e+00
2.051500106814783120e+00
2.053187658314767905e+00
2.053187658314767905e+00
2.043062349314859638e+00
2.043062349314859638e+00
2.029186925870540392e+00
2.067250587481307633e+00
2.067250587481307633e+00
2.091438825647755628e+00
2.091438825647755628e+00
2.071750724814600098e+00
2.039499740592669585e+00
2.039499740592669585e+00
2.053375164036988387e+00
2.053375164036988387e+00
2.042499832148198191e+00
2.060687887203588975e+00
2.060687887203588975e+00
2.079250953703421168e+00
2.065000518814661401e+00
2.069313150425733383e+00
2.069313150425733383e+00
2.073813287759025847e+00
2.041937314981536300e+00
2.041937314981536300e+00
2.039312234870449103e+00
2.039312234870449103e+00
2.072500747703482027e+00
2.061625415814691387e+00
2.061625415814691387e+00
2.068563127536851454e+00
2.068563127536851454e+00
2.074375804925687294e+00
2.071938230536820580e+00
2.071938230536820580e+00
2.037624683370464318e+00
2.037624683370464318e+00
2.025249305703909375e+00
2.040624774925992480e+00
2.040624774925992480e+00
2.045312417981505870e+00
2.045312417981505870e+00
2.068938138981292418e+00
2.079438459425641650e+00
2.079438459425641650e+00
2.058625324259163225e+00
2.049437543870357370e+00
2.049437543870357370e+00
2.046437452314828764e+00
2.046437452314828764e+00
2.058625324259163225e+00
2.050937589648121673e+00
2.050937589648121673e+00
2.083188573870052185e+00
2.083188573870052185e+00
2.093876400036621899e+00
2.084501113925596005e+00
2.084501113925596005e+00
2.071188207647938206e+00
2.052812646870326940e+00
2.052812646870326940e+00
2.049062532425916405e+00
2.049062532425916405e+00
2.070438184759056277e+00
2.071938230536820580e+00
2.071938230536820580e+00
2.046624958037049247e+00
2.050937589648121673e+00
2.050937589648121673e+00
2.068000610370189563e+00
2.068000610370189563e+00
2.088438734092227023e+00
2.082438550981169811e+00
2.082438550981169811e+00
2.053750175481429796e+00
2.053750175481429796e+00
2.053375164036988387e+00
2.027499374370555607e+00
2.027499374370555607e+00
2.003686147648549021e+00
2.003686147648549021e+00
2.028624408703878945e+00
2.075125827814569668e+00
2.075125827814569668e+00
2.090313791314432290e+00
2.090313791314432290e+00
2.084313608203375079e+00
2.081688528092287882e+00
2.081688528092287882e+00
2.071750724814600098e+00
2.074938322092349186e+00
2.074938322092349186e+00
2.086563676870021755e+00
2.086563676870021755e+00
2.056562761314737475e+00
2.057500289925840331e+00
2.057500289925840331e+00
2.069313150425733383e+00
2.069313150425733383e+00
2.082251045258949329e+00
2.066875576036866669e+00
2.066875576036866669e+00
2.058062807092501334e+00
2.058062807092501334e+00
2.047562486648152102e+00
2.058625324259163225e+00
2.058625324259163225e+00
2.083751091036713632e+00
2.083751091036713632e+00
2.052437635425885976e+00
2.042124820703756782e+00
2.042124820703756782e+00
2.040249763481551515e+00
2.040249763481551515e+00
2.058062807092501334e+00
2.077938413647877791e+00
2.077938413647877791e+00
2.049812555314798335e+00
2.035562120426038124e+00
2.035562120426038124e+00
2.025811822870570822e+00
2.025811822870570822e+00
2.038187200537125765e+00
2.054125186925870761e+00
2.054125186925870761e+00
2.077750907925656865e+00
2.077750907925656865e+00
2.107376812036500180e+00
2.116939603869747000e+00
2.116939603869747000e+00
2.079250953703421168e+00
2.053187658314767905e+00
2.053187658314767905e+00
2.072125736259041062e+00
2.072125736259041062e+00
2.055250221259193655e+00
2.055437726981414581e+00
2.055437726981414581e+00
2.056750267036957958e+00
2.048312509537034032e+00
2.048312509537034032e+00
2.038187200537125765e+00
2.038187200537125765e+00
2.047749992370372585e+00
2.054312692648091243e+00
2.054312692648091243e+00
2.063312967314676172e+00
2.063312967314676172e+00
2.081876033814508364e+00
2.079813470870083059e+00
2.079813470870083059e+00
2.074563310647907777e+00
2.074563310647907777e+00
2.063875484481338063e+00
2.063875484481338063e+00
2.065188024536881883e+00
2.065188024536881883e+00
2.067250587481307633e+00
2.064062990203558545e+00
2.064062990203558545e+00
2.058437818536942299e+00
2.070813196203497242e+00
2.070813196203497242e+00
2.041562303537095335e+00
2.041562303537095335e+00
2.065938047425763813e+00
2.092188848536637558e+00
2.092188848536637558e+00
2.068375621814630971e+00
2.068375621814630971e+00
2.039124729148228621e+00
2.036687154759361462e+00
2.036687154759361462e+00
2.065563035981322848e+00
2.065563035981322848e+00
2.056750267036957958e+00
2.065563035981322848e+00
2.065563035981322848e+00
2.090688802758873255e+00
2.077000885036774935e+00
2.077000885036774935e+00
2.062750450148014725e+00
2.062750450148014725e+00
2.060875392925809457e+00
2.086938688314462720e+00
2.086938688314462720e+00
2.059562852870265637e+00
2.059562852870265637e+00
2.025999328592791304e+00
2.051500106814783120e+00
2.051500106814783120e+00
2.079438459425641650e+00
2.079438459425641650e+00
2.087688711203345093e+00
2.076625873592333971e+00
2.081126010925626435e+00
2.081126010925626435e+00
2.059562852870265637e+00
2.059562852870265637e+00
2.064062990203558545e+00
2.070625690481276759e+00
2.070625690481276759e+00
2.070813196203497242e+00
2.070813196203497242e+00
2.067813104647969080e+00
2.088813745536667987e+00
2.088813745536667987e+00
2.065000518814661401e+00
2.065000518814661401e+00
2.044562395092623941e+00
2.038562211981566730e+00
2.038562211981566730e+00
2.055812738425855546e+00
2.055812738425855546e+00
2.004998687704092397e+00
2.020936674092837393e+00
2.020936674092837393e+00
2.041937314981536300e+00
2.058250312814721816e+00
2.058250312814721816e+00
2.066500564592425260e+00
2.066500564592425260e+00
2.115814569536424106e+00
2.118439649647511303e+00
2.118439649647511303e+00
2.079813470870083059e+00
2.079813470870083059e+00
2.083188573870052185e+00
2.072688253425702509e+00
2.072688253425702509e+00
2.068750633259071936e+00
2.068750633259071936e+00
2.055812738425855546e+00
2.046437452314828764e+00
2.046437452314828764e+00
2.053187658314767905e+00
2.053187658314767905e+00
2.065375530259102366e+00
2.053000152592547423e+00
2.053000152592547423e+00
2.074938322092349186e+00
2.074938322092349186e+00
2.056750267036957958e+00
2.056750267036957958e+00
2.056750267036957958e+00
2.061812921536912313e+00
2.051312601092562637e+00
2.051312601092562637e+00
2.048500015259254514e+00
2.048500015259254514e+00
2.076438367870113488e+00
2.052250129703665493e+00
2.052250129703665493e+00
2.022811731315042216e+00
2.022811731315042216e+00
2.029749443037202283e+00
2.056187749870296511e+00
2.056187749870296511e+00
2.085813653981139382e+00
2.085813653981139382e+00
2.103626697592089645e+00
2.101939146092104860e+00
2.074563310647907777e+00
2.074563310647907777e+00
2.045687429425947279e+00
2.045687429425947279e+00
2.048687520981474997e+00
2.046812463759269729e+00
2.046812463759269729e+00
2.067813104647969080e+00
2.067813104647969080e+00
2.072875759147922992e+00
2.027874385814997016e+00
2.027874385814997016e+00
2.024311777092806519e+00
2.024311777092806519e+00
2.047749992370372585e+00
2.114502029480880285e+00
2.114502029480880285e+00
2.143377910702841227e+00
2.119002166814172750e+00
2.119002166814172750e+00
2.092563859981078966e+00
2.092563859981078966e+00
2.048500015259254514e+00
2.010248847926267679e+00
2.010248847926267679e+00
2.031249488814966586e+00
2.088813745536667987e+00
2.088813745536667987e+00
2.088438734092227023e+00
2.083001068147831703e+00
2.083001068147831703e+00
2.080375988036744506e+00
2.080375988036744506e+00
2.062000427259132795e+00
2.037249671926022909e+00
2.037249671926022909e+00
1.989435712759789032e+00
1.989435712759789032e+00
2.003686147648549021e+00
2.083001068147831703e+00
2.083001068147831703e+00
2.121627246925260390e+00
2.084501113925596005e+00
2.084501113925596005e+00
2.045499923703726353e+00
2.045499923703726353e+00
2.034062074648274265e+00
2.052250129703665493e+00
2.052250129703665493e+00
2.052437635425885976e+00
2.052437635425885976e+00
2.073625782036805365e+00
2.074000793481246330e+00
2.074000793481246330e+00
2.119939695425275605e+00
2.119939695425275605e+00
2.079063447981200685e+00
2.018874111148411643e+00
2.018874111148411643e+00
2.003686147648549021e+00
2.003686147648549021e+00
1.994310861537522683e+00
2.052625141148106458e+00
2.052625141148106458e+00
2.106439283425397324e+00
2.106439283425397324e+00
2.149565599536118921e+00
2.113564500869777874e+00
2.113564500869777874e+00
2.068938138981292418e+00
2.057125278481399366e+00
2.057125278481399366e+00
2.008186284981841485e+00
2.008186284981841485e+00
2.022999237037263143e+00
2.062000427259132795e+00
2.062000427259132795e+00
2.093126377147739969e+00
2.093126377147739969e+00
2.150315622425000850e+00
2.090126285592211808e+00
2.090126285592211808e+00
2.071375713370158689e+00
2.071375713370158689e+00
2.044187383648182976e+00
2.042687337870418673e+00
2.042687337870418673e+00
2.032937040314951371e+00
2.054875209814752690e+00
2.054875209814752690e+00
2.053750175481429796e+00
2.053750175481429796e+00
2.050562578203680708e+00
2.031249488814966586e+00
2.031249488814966586e+00
2.010811365092929126e+00
2.010811365092929126e+00
2.033124546037171854e+00
2.031624500259407551e+00
2.031624500259407551e+00
2.032749534592730889e+00
2.032749534592730889e+00
2.061062898648029940e+00
2.070250679036835795e+00
2.070250679036835795e+00
2.100626606036561483e+00
2.100626606036561483e+00
2.119564683980834197e+00
2.079250953703421168e+00
2.079250953703421168e+00
2.076063356425672080e+00
2.076063356425672080e+00
2.065750541703543330e+00
2.085438642536698417e+00
2.085438642536698417e+00
2.063125461592455689e+00
2.049250038148136888e+00
2.049250038148136888e+00
2.059000335703604190e+00
2.059000335703604190e+00
2.085438642536698417e+00
2.043999877925962494e+00
2.043999877925962494e+00
2.014373973815118735e+00
2.014373973815118735e+00
2.027874385814997016e+00
2.020749168370616911e+00
2.020749168370616911e+00
2.011373882259590129e+00
2.011373882259590129e+00
2.086938688314462720e+00
2.142252876369517889e+00
2.142252876369517889e+00
2.132877590258491995e+00
2.129314981536301499e+00
2.078125919370098273e+00
2.059937864314706601e+00
2.059937864314706601e+00
2.065375530259102366e+00
2.065375530259102366e+00
2.053750175481429796e+00
2.052250129703665493e+00
2.052250129703665493e+00
2.073813287759025847e+00
2.073813287759025847e+00
2.056000244148076028e+00
2.046812463759269729e+00
2.046812463759269729e+00
2.045499923703726353e+00
2.045499923703726353e+00
2.042312326425977265e+00
2.001061067537461380e+00
2.001061067537461380e+00
2.064813013092440475e+00
2.059000335703604190e+00
2.059000335703604190e+00
2.114314523758659803e+00
2.114314523758659803e+00
2.087876216925565576e+00
2.087876216925565576e+00
1.982122989593188223e+00
1.912183355204931878e+00
1.912183355204931878e+00
1.986998138370922096e+00
2.028249397259437981e+00
2.028249397259437981e+00
2.100251594592120075e+00
2.100251594592120075e+00
2.121439741203039464e+00
2.168128666035950669e+00
2.168128666035950669e+00
2.121064729758598499e+00
2.121064729758598499e+00
2.085251136814477935e+00
2.034812097537156195e+00
2.034812097537156195e+00
2.050937589648121673e+00
2.050937589648121673e+00
2.044562395092623941e+00
2.079438459425641650e+00
2.079438459425641650e+00
2.093126377147739969e+00
2.050000061037018817e+00
2.050000061037018817e+00
2.064062990203558545e+00
2.064062990203558545e+00
2.069500656147953865e+00
2.052250129703665493e+00
2.052250129703665493e+00
2.004811181981871915e+00
1.983248023926511561e+00
1.983248023926511561e+00
1.990560747093111926e+00
2.078313425092318756e+00
2.078313425092318756e+00
2.064438001647999510e+00
2.064438001647999510e+00
2.080375988036744506e+00
2.065188024536881883e+00
2.065188024536881883e+00
2.095001434369945237e+00
2.109439374980925930e+00
2.109439374980925930e+00
2.109064363536484965e+00
2.058062807092501334e+00
2.058062807092501334e+00
2.101376628925443413e+00
2.101376628925443413e+00
2.098001525925473842e+00
2.083188573870052185e+00
2.083188573870052185e+00
2.066688070314646186e+00
2.066688070314646186e+00
2.034437086092715230e+00
2.029936948759422766e+00
2.029936948759422766e+00
2.048312509537034032e+00
2.048312509537034032e+00
1.999373516037476817e+00
1.985498092593157793e+00
1.985498092593157793e+00
1.997873470259712514e+00
2.030124454481643248e+00
2.030124454481643248e+00
2.046437452314828764e+00
2.046437452314828764e+00
2.086563676870021755e+00
2.061625415814691387e+00
2.061625415814691387e+00
2.067813104647969080e+00
2.067813104647969080e+00
2.089751274147770843e+00
2.080375988036744506e+00
2.080375988036744506e+00
2.064062990203558545e+00
2.064062990203558545e+00
2.078313425092318756e+00
1.976685323648793124e+00
1.976685323648793124e+00
2.114127018036439321e+00
2.033312051759392336e+00
2.033312051759392336e+00
2.058625324259163225e+00
2.058625324259163225e+00
2.093688894314401416e+00
2.118064638203069894e+00
2.118064638203069894e+00
2.094063905758842381e+00
2.094063905758842381e+00
2.069500656147953865e+00
2.080563493758964988e+00
2.080563493758964988e+00
2.059750358592486119e+00
2.050000061037018817e+00
2.050000061037018817e+00
2.071750724814600098e+00
2.071750724814600098e+00
2.104751731925412539e+00
2.082626056703390294e+00
2.082626056703390294e+00
2.016436536759544484e+00
2.016436536759544484e+00
1.970310129093295171e+00
2.020374156926175946e+00
2.020374156926175946e+00
2.107564317758720662e+00
2.064625507370219992e+00
2.064625507370219992e+00
2.082813562425611220e+00
2.082813562425611220e+00
2.105876766258735877e+00
2.076625873592333971e+00
2.076625873592333971e+00
2.047749992370372585e+00
2.047749992370372585e+00
2.077563402203436382e+00
2.105501754814294912e+00
2.105501754814294912e+00
2.111126926480910715e+00
2.111126926480910715e+00
2.062000427259132795e+00
2.028436902981658463e+00
2.028436902981658463e+00
1.988498184148686176e+00
1.998810998870815148e+00
1.998810998870815148e+00
2.018686605426191161e+00
2.018686605426191161e+00
2.089563768425550361e+00
2.173753837702566916e+00
2.173753837702566916e+00
2.149753105258339403e+00
2.089188756981108952e+00
2.078500930814539238e+00
2.078500930814539238e+00
2.086001159703360308e+00
2.086001159703360308e+00
2.082251045258949329e+00
2.060125370036927084e+00
2.060125370036927084e+00
1.908808252204962308e+00
2.037999694814905283e+00
2.037999694814905283e+00
2.058437818536942299e+00
2.058437818536942299e+00
2.078500930814539238e+00
2.082438550981169811e+00
2.082438550981169811e+00
2.106064271980956359e+00
2.106064271980956359e+00
2.086563676870021755e+00
2.075500839259010633e+00
2.075500839259010633e+00
2.027686880092776089e+00
2.027686880092776089e+00
2.014748985259559699e+00
2.056562761314737475e+00
2.056562761314737475e+00
2.085438642536698417e+00
2.085438642536698417e+00
2.086563676870021755e+00
2.095188940092165719e+00
2.095188940092165719e+00
2.130440015869624837e+00
2.079063447981200685e+00
2.079063447981200685e+00
2.071188207647938206e+00
2.071188207647938206e+00
2.085063631092257452e+00
2.005186193426313324e+00
2.005186193426313324e+00
2.048125003814813549e+00
2.096688985869930022e+00
2.096688985869930022e+00
2.087688711203345093e+00
2.087688711203345093e+00
2.122939786980803767e+00
2.076625873592333971e+00
2.076625873592333971e+00
2.008186284981841485e+00
2.008186284981841485e+00
2.082063539536728847e+00
2.097626514481032878e+00
2.097626514481032878e+00
2.041374797814874853e+00
2.059937864314706601e+00
2.059937864314706601e+00
2.049625049592577852e+00
2.049625049592577852e+00
2.016624042481765411e+00
2.069688161870173904e+00
2.069688161870173904e+00
2.055812738425855546e+00
2.055812738425855546e+00
1.967122531815546083e+00
1.959997314371166199e+00
1.959997314371166199e+00
2.077375896481215900e+00
2.077375896481215900e+00
2.212567522202215642e+00
2.189504318369090985e+00
2.189504318369090985e+00
2.107939329203161627e+00
2.107939329203161627e+00
2.089563768425550361e+00
2.084313608203375079e+00
2.084313608203375079e+00
2.057500289925840331e+00
2.057500289925840331e+00
2.142252876369517889e+00
2.122002258369701355e+00
2.122002258369701355e+00
2.050937589648121673e+00
1.984748069704275641e+00
1.984748069704275641e+00
1.974997772148808339e+00
1.974997772148808339e+00
2.003311136204107612e+00
2.036687154759361462e+00
2.036687154759361462e+00
2.128939970091860534e+00
2.128939970091860534e+00
2.112626972258675018e+00
2.092751365703299449e+00
2.092751365703299449e+00
2.109439374980925930e+00
2.109439374980925930e+00
2.075125827814569668e+00
1.996185918759727951e+00
1.996185918759727951e+00
1.997685964537492032e+00
2.020749168370616911e+00
2.020749168370616911e+00
2.109439374980925930e+00
2.109439374980925930e+00
2.083938596758934114e+00
2.059562852870265637e+00
2.059562852870265637e+00
2.040249763481551515e+00
2.040249763481551515e+00
2.089563768425550361e+00
2.063125461592455689e+00
2.063125461592455689e+00
2.067438093203528116e+00
2.087126194036683202e+00
2.087126194036683202e+00
2.092563859981078966e+00
2.092563859981078966e+00
2.203004730368968822e+00
2.191941892757957699e+00
2.191941892757957699e+00
2.082626056703390294e+00
2.082626056703390294e+00
2.027124362926114642e+00
2.054125186925870761e+00
2.054125186925870761e+00
2.054125186925870761e+00
2.019811639759514499e+00
2.019811639759514499e+00
2.075688344981231115e+00
2.075688344981231115e+00
2.085813653981139382e+00
2.000686056093020415e+00
2.000686056093020415e+00
1.938996673482467070e+00
2.016436536759544484e+00
2.089938779869991325e+00
2.089938779869991325e+00
2.013998962370677770e+00
2.013998962370677770e+00
2.077563402203436382e+00
2.162315988647114828e+00
2.162315988647114828e+00
2.123877315591906623e+00
2.123877315591906623e+00
2.100439100314340557e+00
2.067250587481307633e+00
2.067250587481307633e+00
2.060125370036927084e+00
2.060125370036927084e+00
2.091626331369976111e+00
2.141127842036194995e+00
2.141127842036194995e+00
2.121439741203039464e+00
2.095001434369945237e+00
2.095001434369945237e+00
2.061250404370250422e+00
2.061250404370250422e+00
2.008748802148503376e+00
2.040812280648213406e+00
2.040812280648213406e+00
2.059187841425824672e+00
2.059187841425824672e+00
2.022999237037263143e+00
2.034812097537156195e+00
2.034812097537156195e+00
2.090876308481094181e+00
2.090876308481094181e+00
2.102314157536546269e+00
2.112439466536454535e+00
2.112439466536454535e+00
2.094438917203283790e+00
2.094438917203283790e+00
2.160440931424909561e+00
2.106814294869838289e+00
2.106814294869838289e+00
2.119939695425275605e+00
2.176941434980315559e+00
2.176941434980315559e+00
2.092376354258858040e+00
2.092376354258858040e+00
2.086938688314462720e+00
2.008186284981841485e+00
2.008186284981841485e+00
1.974060243537705706e+00
1.974060243537705706e+00
2.062187932981353278e+00
2.134752647480697263e+00
2.134752647480697263e+00
2.129877498702963390e+00
2.129877498702963390e+00
2.010811365092929126e+00
2.043062349314859638e+00
2.043062349314859638e+00
2.087501205481124167e+00
2.087501205481124167e+00
2.037999694814905283e+00
2.028249397259437981e+00
2.028249397259437981e+00
1.969372600482192537e+00
1.967685048982207752e+00
1.967685048982207752e+00
2.041562303537095335e+00
2.041562303537095335e+00
2.052812646870326940e+00
2.095751457258827610e+00
2.095751457258827610e+00
2.179566515091402756e+00
2.179566515091402756e+00
2.164378551591540134e+00
2.038937223426007694e+00
2.038937223426007694e+00
2.077188390758995418e+00
2.077188390758995418e+00
1.965059968871120333e+00
2.007436262092959556e+00
2.007436262092959556e+00
1.968060060426648716e+00
1.968060060426648716e+00
1.968622577593310385e+00
2.027124362926114642e+00
2.027124362926114642e+00
2.103814203314310571e+00
2.104376720480972018e+00
2.104376720480972018e+00
2.182754112369151844e+00
2.182754112369151844e+00
2.137190221869563977e+00
2.047187475203710694e+00
2.047187475203710694e+00
2.050750083925901190e+00
2.050750083925901190e+00
2.061812921536912313e+00
2.060687887203588975e+00
2.060687887203588975e+00
2.166441114535965884e+00
2.166441114535965884e+00
2.109814386425366894e+00
1.985123081148716606e+00
1.985123081148716606e+00
2.052812646870326940e+00
2.052812646870326940e+00
2.070625690481276759e+00
2.090313791314432290e+00
2.067250587481307633e+00
2.161940977202673420e+00
2.068188116092410045e+00
2.068188116092410045e+00
1.975747795037690491e+00
1.975747795037690491e+00
2.103626697592089645e+00
2.257568895535142062e+00
2.257568895535142062e+00
2.254943815424054865e+00
2.200379650257881181e+00
2.200379650257881181e+00
2.046624958037049247e+00
2.046624958037049247e+00
2.035187108981597159e+00
1.974247749259926188e+00
1.974247749259926188e+00
2.010248847926267679e+00
2.010248847926267679e+00
1.967497543259987047e+00
1.941246742149113524e+00
1.941246742149113524e+00
1.913120883816034512e+00
2.100626606036561483e+00
2.108689352092044000e+00
1.866619464705344011e+00
1.866619464705344011e+00
1.878057313760796099e+00
1.878057313760796099e+00
2.211067476424451339e+00
2.404198370311593891e+00
2.404198370311593891e+00
2.100626606036561483e+00
2.036312143314920498e+00
2.036312143314920498e+00
2.059937864314706601e+00
2.059937864314706601e+00
2.008936307870723859e+00
2.150690633869442259e+00
2.150690633869442259e+00
2.141690359202856442e+00
2.141690359202856442e+00
2.077000885036774935e+00
1.956809717093417111e+00
1.956809717093417111e+00
1.947621936704611478e+00
1.947621936704611478e+00
2.179191503646961792e+00
2.082438550981169811e+00
2.082438550981169811e+00
1.990748252815332409e+00
2.023374248481704107e+00
2.023374248481704107e+00
1.911245826593829245e+00
1.907495712149418710e+00
1.907495712149418710e+00
2.076625873592333971e+00
2.260006469924008776e+00
2.260006469924008776e+00
2.212567522202215642e+00
2.212567522202215642e+00
2.174128849147007880e+00
2.026374340037232713e+00
2.026374340037232713e+00
2.143002899258400262e+00
1.945746879482405989e+00
1.945746879482405989e+00
1.965997497482223189e+00
2.106814294869838289e+00
2.106814294869838289e+00
2.002561113315225683e+00
2.002561113315225683e+00
1.908433240760521121e+00
2.168316171758171151e+00
2.168316171758171151e+00
2.200004638813440216e+00
2.200004638813440216e+00
2.177128940702536042e+00
2.098939054536576698e+00
2.098939054536576698e+00
2.100251594592120075e+00
2.100251594592120075e+00
1.972185186315500438e+00
1.891370220038453231e+00
1.891370220038453231e+00
1.921933652760399180e+00
1.921933652760399180e+00
2.131190038758506766e+00
2.093501388592180934e+00
2.093501388592180934e+00
2.245381023590808045e+00
2.313633106479079604e+00
2.313633106479079604e+00
2.046812463759269729e+00
2.046812463759269729e+00
1.981560472426526776e+00
1.923058687093722297e+00
1.923058687093722297e+00
1.899432966093935971e+00
1.899432966093935971e+00
2.061625415814691387e+00
2.136440198980682048e+00
2.136440198980682048e+00
2.152003173924985191e+00
2.152003173924985191e+00
2.035187108981597159e+00
1.992435804315317194e+00
1.992435804315317194e+00
2.066500564592425260e+00
2.116564592425305591e+00
2.116564592425305591e+00
2.011186376537369647e+00
2.011186376537369647e+00
2.137002716147343495e+00
2.006311227759636218e+00
2.006311227759636218e+00
2.119002166814172750e+00
2.119002166814172750e+00
2.071188207647938206e+00
2.272381847590563719e+00
2.272381847590563719e+00
2.079625965147862576e+00
2.079625965147862576e+00
2.116939603869747000e+00
2.240318369090853690e+00
2.240318369090853690e+00
1.924371227149266117e+00
2.048875026703695923e+00
2.048875026703695923e+00
2.106439283425397324e+00
2.106439283425397324e+00
1.942746787926877827e+00
1.935246559038056535e+00
1.935246559038056535e+00
1.885182531205175982e+00
2.062187932981353278e+00
2.062187932981353278e+00
2.182004089480269915e+00
2.182004089480269915e+00
2.056375255592516993e+00
2.114502029480880285e+00
2.114502029480880285e+00
2.146002990813928868e+00
2.146002990813928868e+00
2.116939603869747000e+00
2.082813562425611220e+00
2.082813562425611220e+00
1.830243354594561778e+00
1.830243354594561778e+00
1.637112460707419226e+00
2.119377178258613714e+00
2.119377178258613714e+00
2.261881527146214044e+00
2.228880520035401602e+00
2.228880520035401602e+00
2.313445600756859122e+00
1.930933927426984553e+00
2.270506790368358452e+00
2.270506790368358452e+00
2.049437543870357370e+00
2.152003173924985191e+00
2.152003173924985191e+00
1.758053651539658757e+00
1.758053651539658757e+00
2.034437086092715230e+00
2.116752098147526517e+00
2.116752098147526517e+00
2.068563127536851454e+00
2.068563127536851454e+00
1.831743400372325858e+00
2.122564775536362802e+00
2.122564775536362802e+00
2.138502761925107798e+00
2.138502761925107798e+00
1.969372600482192537e+00
1.989248207037568328e+00
1.989248207037568328e+00
2.178066469313638454e+00
2.178066469313638454e+00
2.332196172978911797e+00
2.267131687368389326e+00
2.267131687368389326e+00
2.191566881313516735e+00
2.118252143925290376e+00
2.118252143925290376e+00
2.073250770592364400e+00
2.073250770592364400e+00
1.828368297372356288e+00
1.620424451429792301e+00
1.620424451429792301e+00
1.930558915982543589e+00
1.930558915982543589e+00
2.193441938535722002e+00
2.031999511703848516e+00
2.031999511703848516e+00
2.071750724814600098e+00
2.071750724814600098e+00
1.967310037537766565e+00
2.288319833979308715e+00
2.288319833979308715e+00
2.299382671590319838e+00
2.259818964201788294e+00
2.259818964201788294e+00
2.196067018646809643e+00
2.196067018646809643e+00
2.084501113925596005e+00
2.051125095370342155e+00
2.051125095370342155e+00
1.889870174260689151e+00
1.867181981872005458e+00
1.867181981872005458e+00
1.902620563371684836e+00
1.902620563371684836e+00
2.101376628925443413e+00
2.043437360759300603e+00
2.043437360759300603e+00
2.229068025757622085e+00
2.229068025757622085e+00
2.071000701925717724e+00
2.002561113315225683e+00
2.002561113315225683e+00
1.588923490096743718e+00
1.588923490096743718e+00
1.651737907040620179e+00
2.193066927091281038e+00
2.193066927091281038e+00
2.503763908810693550e+00
2.503763908810693550e+00
2.760834253975036123e+00
2.552327890865810023e+00
2.552327890865810023e+00
1.985123081148716606e+00
1.683051362651448057e+00
1.683051362651448057e+00
2.175066377758110736e+00
2.175066377758110736e+00
2.217067659535508550e+00
1.790679647206030678e+00
1.790679647206030678e+00
1.809242713705862649e+00
1.809242713705862649e+00
2.226442945646534444e+00
2.080563493758964988e+00
2.080563493758964988e+00
1.910120792260505906e+00
1.910120792260505906e+00
1.878994842371898732e+00
2.036124637592700015e+00
2.036124637592700015e+00
2.294132511368144556e+00
2.294132511368144556e+00
2.041749809259315818e+00
2.056750267036957958e+00
2.056750267036957958e+00
2.258131412701803509e+00
2.258131412701803509e+00
2.143940427869502674e+00
1.912183355204931878e+00
1.912183355204931878e+00
2.041187292092654371e+00
1.873182164983062226e+00
1.873182164983062226e+00
1.974997772148808339e+00
1.974997772148808339e+00
1.832868434705648975e+00
1.955497177037873513e+00
1.955497177037873513e+00
2.274069399090548504e+00
1.986810632648701391e+00
1.986810632648701391e+00
1.884057496871852866e+00
1.884057496871852866e+00
2.158003357036042402e+00
2.146002990813928868e+00
2.146002990813928868e+00
2.530014709921567295e+00
2.349071687978759204e+00
2.349071687978759204e+00
1.976310312204351938e+00
1.976310312204351938e+00
1.997498458815271549e+00
2.038562211981566730e+00
2.038562211981566730e+00
2.140752830591753586e+00
2.140752830591753586e+00
2.082251045258949329e+00
2.037062166203802427e+00
2.037062166203802427e+00
1.778116763817255253e+00
1.778116763817255253e+00
2.073625782036805365e+00
2.073625782036805365e+00
1.973872737815485001e+00
1.973872737815485001e+00
2.143002899258400262e+00
1.963372417371135548e+00
1.963372417371135548e+00
2.028999420148319910e+00
2.028999420148319910e+00
2.110751915036469750e+00
2.043999877925962494e+00
2.043999877925962494e+00
2.056562761314737475e+00
1.791054658650471643e+00
1.791054658650471643e+00
1.989810724204229997e+00
1.989810724204229997e+00
2.148253059480575100e+00
2.344384044923245813e+00
2.344384044923245813e+00
2.301445234534745587e+00
2.301445234534745587e+00
2.178066469313638454e+00
2.344759056367687222e+00
2.344759056367687222e+00
2.136627704702902530e+00
2.136627704702902530e+00
2.024124271370586037e+00
1.930371410260322884e+00
1.930371410260322884e+00
2.132315073091830104e+00
1.833430951872310644e+00
1.833430951872310644e+00
1.820680562761314736e+00
1.820680562761314736e+00
2.020186651203955464e+00
2.164191045869319652e+00
2.164191045869319652e+00
2.069125644703512901e+00
2.069125644703512901e+00
1.569047883541367705e+00
2.171128757591479275e+00
2.171128757591479275e+00
2.198504593035676358e+00
1.834555986205633760e+00
1.834555986205633760e+00
1.865869441816461860e+00
2.320945829645680192e+00
2.320945829645680192e+00
2.456512466811120898e+00
2.456512466811120898e+00
2.253068758201849597e+00
2.028249397259437981e+00
2.028249397259437981e+00
2.371197363200781449e+00
2.371197363200781449e+00
2.294882534257026929e+00
1.988498184148686176e+00
1.988498184148686176e+00
1.905808160649433924e+00
1.830618366039002742e+00
1.830618366039002742e+00
2.004248664815210468e+00
2.004248664815210468e+00
2.096876491592150504e+00
1.965622486037782002e+00
1.965622486037782002e+00
1.799492416150395346e+00
1.799492416150395346e+00
1.906558183538316076e+00
2.093126377147739969e+00
2.093126377147739969e+00
2.271069307535019899e+00
2.271069307535019899e+00
2.139815301980651618e+00
2.063875484481338063e+00
2.063875484481338063e+00
1.937684133426923250e+00
1.937684133426923250e+00
1.956434705648976147e+00
2.031436994537187068e+00
2.031436994537187068e+00
2.200567155980101663e+00
2.333696218756676100e+00
2.333696218756676100e+00
2.261694021423993561e+00
2.261694021423993561e+00
2.040812280648213406e+00
2.079250953703421168e+00
2.079250953703421168e+00
2.226067934202093479e+00
2.226067934202093479e+00
2.001436078981902345e+00
2.106064271980956359e+00
2.106064271980956359e+00
2.097814020203253360e+00
2.097814020203253360e+00
1.971810174871059473e+00
1.798742393261513195e+00
1.798742393261513195e+00
1.795929807428205294e+00
1.795929807428205294e+00
1.936746604815820838e+00
2.076625873592333971e+00
2.076625873592333971e+00
1.874682210760826528e+00
2.121064729758598499e+00
2.121064729758598499e+00
2.436074343089083438e+00
2.436074343089083438e+00
2.425761528366954689e+00
2.227380474257637299e+00
2.227380474257637299e+00
1.959622302926725235e+00
1.954934659871212066e+00
1.954934659871212066e+00
1.930933927426984553e+00
1.930933927426984553e+00
1.890245185705130337e+00
2.056937772759178884e+00
2.056937772759178884e+00
2.107939329203161627e+00
2.107939329203161627e+00
1.960934842982268833e+00
1.897932920316171668e+00
1.897932920316171668e+00
1.961684865871150762e+00
1.961684865871150762e+00
2.265819147312845505e+00
2.402698324533829588e+00
2.402698324533829588e+00
2.197192052980132537e+00
1.995060884426404613e+00
1.995060884426404613e+00
1.968622577593310385e+00
1.919871089815973431e+00
1.919871089815973431e+00
2.070625690481276759e+00
2.090501297036652772e+00
2.090501297036652772e+00
1.921746147038178698e+00
1.921746147038178698e+00
1.878994842371898732e+00
1.869619556260872173e+00
1.869619556260872173e+00
2.086188665425580790e+00
2.086188665425580790e+00
2.239380840479750834e+00
2.235630726035340299e+00
2.235630726035340299e+00
2.150690633869442259e+00
1.998248481704153479e+00
1.998248481704153479e+00
2.077750907925656865e+00
2.077750907925656865e+00
1.971997680593279956e+00
1.910308297982726611e+00
1.910308297982726611e+00
2.059375347148045154e+00
2.059375347148045154e+00
2.062000427259132795e+00
2.090501297036652772e+00
2.090501297036652772e+00
2.104189214758751536e+00
2.104189214758751536e+00
2.186504226813562823e+00
2.177128940702536042e+00
2.177128940702536042e+00
2.129689992980742907e+00
2.129689992980742907e+00
2.132877590258491995e+00
2.266569170201727434e+00
2.266569170201727434e+00
2.065000518814661401e+00
2.065000518814661401e+00
2.061437910092470904e+00
2.123502304147465658e+00
2.123502304147465658e+00
2.105876766258735877e+00
2.040249763481551515e+00
2.040249763481551515e+00
1.897557908871730703e+00
1.897557908871730703e+00
1.928121341593676652e+00
2.117314615314187964e+00
2.117314615314187964e+00
2.020936674092837393e+00
2.020936674092837393e+00
2.040812280648213406e+00
2.113564500869777874e+00
2.113564500869777874e+00
1.962247383037812432e+00
1.962247383037812432e+00
2.119002166814172750e+00
2.142440382091738371e+00
2.142440382091738371e+00
2.132877590258491995e+00
2.200379650257881181e+00
2.200379650257881181e+00
2.034249580370494748e+00
2.034249580370494748e+00
2.046812463759269729e+00
2.035374614703817642e+00
2.035374614703817642e+00
1.952309579760124647e+00
1.952309579760124647e+00
1.995060884426404613e+00
2.076250862147892562e+00
2.076250862147892562e+00
2.062375438703573760e+00
2.062375438703573760e+00
1.963184911648915065e+00
1.993935850093081497e+00
1.993935850093081497e+00
2.049625049592577852e+00
2.049625049592577852e+00
2.119002166814172750e+00
2.149940610980559885e+00
2.149940610980559885e+00
2.161190954313791490e+00
2.161190954313791490e+00
2.048125003814813549e+00
2.052625141148106458e+00
2.052625141148106458e+00
2.073063264870143918e+00
1.952497085482345129e+00
1.952497085482345129e+00
2.064813013092440475e+00
2.064813013092440475e+00
2.044187383648182976e+00
1.941996765037995676e+00
1.941996765037995676e+00
2.109814386425366894e+00
2.109814386425366894e+00
2.065188024536881883e+00
2.012498916592913467e+00
2.012498916592913467e+00
2.077375896481215900e+00
2.077375896481215900e+00
2.070438184759056277e+00
1.976122806482131455e+00
1.976122806482131455e+00
2.090688802758873255e+00
2.090688802758873255e+00
2.191191869869075770e+00
2.214630085146641392e+00
2.214630085146641392e+00
2.102314157536546269e+00
2.102314157536546269e+00
2.013811456648457288e+00
1.959809808648945717e+00
1.959809808648945717e+00
2.078313425092318756e+00
2.078313425092318756e+00
2.102501663258766751e+00
2.146378002258369833e+00
2.146378002258369833e+00
2.161378460036011973e+00
2.161378460036011973e+00
1.959809808648945717e+00
2.048687520981474997e+00
2.048687520981474997e+00
2.072500747703482027e+00
2.049437543870357370e+00
2.049437543870357370e+00
2.062187932981353278e+00
2.062187932981353278e+00
1.872057130649739110e+00
1.872057130649739110e+00
2.060687887203588975e+00
2.105314249092073986e+00
2.105314249092073986e+00
2.116752098147526517e+00
2.116752098147526517e+00
1.994498367259743166e+00
2.166441114535965884e+00
2.166441114535965884e+00
2.158190862758262885e+00
2.158190862758262885e+00
2.281007110812707683e+00
2.115439558091983141e+00
2.115439558091983141e+00
2.206004821924497428e+00
2.206004821924497428e+00
2.029186925870540392e+00
2.059750358592486119e+00
2.059750358592486119e+00
2.179941526535844165e+00
2.179941526535844165e+00
2.000498550370799933e+00
1.765366374706259345e+00
1.765366374706259345e+00
1.819555528427991620e+00
2.045312417981505870e+00
2.045312417981505870e+00
2.032749534592730889e+00
2.032749534592730889e+00
1.921933652760399180e+00
1.982873012482070374e+00
1.982873012482070374e+00
2.309695486312448587e+00
2.309695486312448587e+00
2.177128940702536042e+00
2.178066469313638454e+00
2.178066469313638454e+00
2.091813837092196593e+00
2.091813837092196593e+00
2.051312601092562637e+00
2.112439466536454535e+00
2.112439466536454535e+00
2.228693014313181120e+00
2.096126468703268575e+00
2.096126468703268575e+00
1.891745231482894418e+00
1.891745231482894418e+00
2.038749717703787212e+00
2.123127292703024249e+00
2.123127292703024249e+00
1.948746971037934594e+00
1.948746971037934594e+00
1.933934018982512937e+00
1.962997405926694583e+00
1.962997405926694583e+00
2.147128025147251762e+00
2.147128025147251762e+00
2.259631458479567812e+00
2.143377910702841227e+00
2.143377910702841227e+00
2.119002166814172750e+00
2.014936490981780626e+00
2.014936490981780626e+00
1.836243537705618545e+00
1.836243537705618545e+00
1.980060426648762473e+00
2.103626697592089645e+00
2.103626697592089645e+00
2.027124362926114642e+00
2.027124362926114642e+00
2.047937498092593067e+00
2.163441022980437278e+00
2.163441022980437278e+00
2.152378185369426600e+00
2.152378185369426600e+00
2.083376079592272667e+00
1.971247657704397804e+00
1.971247657704397804e+00
2.090126285592211808e+00
2.055062715536973172e+00
2.055062715536973172e+00
1.916495986816003860e+00
1.916495986816003860e+00
2.020936674092837393e+00
2.269381756035035114e+00
2.269381756035035114e+00
2.197379558702353020e+00
2.197379558702353020e+00
2.033687063203833301e+00
2.005373699148533806e+00
2.005373699148533806e+00
2.072125736259041062e+00
2.072125736259041062e+00
2.050000061037018817e+00
1.996748435926389398e+00
1.996748435926389398e+00
2.029749443037202283e+00
2.029749443037202283e+00
2.035374614703817642e+00
2.032749534592730889e+00
2.032749534592730889e+00
2.061062898648029940e+00
2.061062898648029940e+00
1.960184820093386682e+00
2.053562669759208870e+00
2.053562669759208870e+00
2.149940610980559885e+00
2.141127842036194995e+00
2.141127842036194995e+00
2.145065462202826012e+00
2.141877864925076924e+00
2.141877864925076924e+00
2.045874935148167761e+00
2.045874935148167761e+00
2.073438276314584883e+00
2.067250587481307633e+00
2.067250587481307633e+00
1.996373424481948211e+00
1.996373424481948211e+00
1.987560655537583543e+00
1.984373058259834677e+00
1.984373058259834677e+00
2.006873744926298109e+00
2.006873744926298109e+00
2.052250129703665493e+00
2.086376171147801273e+00
2.086376171147801273e+00
2.060875392925809457e+00
1.983435529648732043e+00
1.983435529648732043e+00
2.171878780480361648e+00
2.171878780480361648e+00
2.134565141758476781e+00
2.086001159703360308e+00
2.092938871425519931e+00
2.027311868648335125e+00
2.027311868648335125e+00
2.026186834315011787e+00
2.026186834315011787e+00
2.030686971648304695e+00
1.990185735648670962e+00
1.990185735648670962e+00
1.969747611926633502e+00
1.969747611926633502e+00
2.041749809259315818e+00
2.047374980925931620e+00
2.047374980925931620e+00
2.065000518814661401e+00
2.065000518814661401e+00
2.095751457258827610e+00
2.127627430036317158e+00
2.127627430036317158e+00
2.125189855647450443e+00
2.125189855647450443e+00
2.105501754814294912e+00
2.043062349314859638e+00
2.043062349314859638e+00
2.106439283425397324e+00
2.106439283425397324e+00
2.077375896481215900e+00
2.134002624591814889e+00
2.134002624591814889e+00
2.168316171758171151e+00
2.066875576036866669e+00
2.066875576036866669e+00
1.984373058259834677e+00
1.984373058259834677e+00
2.139065279091769245e+00
2.183129123813593253e+00
2.183129123813593253e+00
2.081126010925626435e+00
2.081126010925626435e+00
1.943684316537980239e+00
1.938621662038026106e+00
1.938621662038026106e+00
1.968060060426648716e+00
2.031061983092746104e+00
2.031061983092746104e+00
2.065375530259102366e+00
2.159690908536027187e+00
2.159690908536027187e+00
2.085813653981139382e+00
2.085813653981139382e+00
2.084688619647816488e+00
2.124439832758568070e+00
2.124439832758568070e+00
2.006311227759636218e+00
2.006311227759636218e+00
1.992810815759758380e+00
1.985873104037598758e+00
1.985873104037598758e+00
1.964684957426679368e+00
1.964684957426679368e+00
2.147878048036134135e+00
2.149003082369457029e+00
2.149003082369457029e+00
2.163816034424878687e+00
2.163816034424878687e+00
2.054312692648091243e+00
2.014186468092898252e+00
2.014186468092898252e+00
2.060312875759148010e+00
2.033312051759392336e+00
2.033312051759392336e+00
2.053750175481429796e+00
2.053750175481429796e+00
2.055437726981414581e+00
2.092938871425519931e+00
2.092938871425519931e+00
2.069500656147953865e+00
2.069500656147953865e+00
2.067813104647969080e+00
2.124064821314127105e+00
2.124064821314127105e+00
2.063312967314676172e+00
2.063312967314676172e+00
2.094626422925504272e+00
2.049437543870357370e+00
2.049437543870357370e+00
1.941809259315775193e+00
1.970310129093295171e+00
1.970310129093295171e+00
2.040624774925992480e+00
2.040624774925992480e+00
2.041187292092654371e+00
2.033312051759392336e+00
2.033312051759392336e+00
2.055812738425855546e+00
2.055812738425855546e+00
1.965997497482223189e+00
2.067625598925748598e+00
2.067625598925748598e+00
2.157065828424939546e+00
2.157065828424939546e+00
2.158940885647145258e+00
2.048125003814813549e+00
2.048125003814813549e+00
2.002373607593005200e+00
2.002373607593005200e+00
2.070250679036835795e+00
2.086563676870021755e+00
2.086563676870021755e+00
2.007061250648518591e+00
1.985310586870937088e+00
2.059187841425824672e+00
2.059187841425824672e+00
2.077938413647877791e+00
2.153128208258308529e+00
2.153128208258308529e+00
2.089938779869991325e+00
2.067250587481307633e+00
2.067250587481307633e+00
2.045312417981505870e+00
2.045312417981505870e+00
2.043437360759300603e+00
2.057500289925840331e+00
2.057500289925840331e+00
2.106814294869838289e+00
2.106814294869838289e+00
2.086001159703360308e+00
2.071750724814600098e+00
2.071750724814600098e+00
2.071188207647938206e+00
2.069500656147953865e+00
2.069500656147953865e+00
2.059562852870265637e+00
2.071563219092379615e+00
2.081126010925626435e+00
2.081126010925626435e+00
2.067813104647969080e+00
2.067813104647969080e+00
2.076438367870113488e+00
2.053375164036988387e+00
2.053375164036988387e+00
2.011748893704031538e+00
2.011748893704031538e+00
2.011748893704031538e+00
2.029374431592760875e+00
2.029374431592760875e+00
2.016624042481765411e+00
2.016624042481765411e+00
2.006686239204077182e+00
1.947434430982390996e+00
1.947434430982390996e+00
1.987560655537583543e+00
1.987560655537583543e+00
2.115064546647541732e+00
2.125189855647450443e+00
2.125189855647450443e+00
2.149565599536118921e+00
2.175066377758110736e+00
2.175066377758110736e+00
2.087313699758903685e+00
2.087313699758903685e+00
2.032562028870509963e+00
2.030311960203863730e+00
2.030311960203863730e+00
2.027499374370555607e+00
2.027499374370555607e+00
2.078313425092318756e+00
2.115064546647541732e+00
2.026186834315011787e+00
2.026186834315011787e+00
2.071563219092379615e+00
2.071563219092379615e+00
2.077188390758995418e+00
2.036687154759361462e+00
2.036687154759361462e+00
2.018686605426191161e+00
1.996560930204168693e+00
1.996560930204168693e+00
2.032562028870509963e+00
2.032562028870509963e+00
2.079813470870083059e+00
2.077750907925656865e+00
2.077750907925656865e+00
2.074938322092349186e+00
2.074938322092349186e+00
2.113376995147556947e+00
2.104564226203192501e+00
2.104564226203192501e+00
2.116564592425305591e+00
2.067063081759087151e+00
2.067063081759087151e+00
2.071938230536820580e+00
2.071938230536820580e+00
2.080938505203405953e+00
2.027311868648335125e+00
2.027311868648335125e+00
2.014373973815118735e+00
2.014373973815118735e+00
1.964684957426679368e+00
1.968997589037751350e+00
1.968997589037751350e+00
2.050187566759239299e+00
2.050187566759239299e+00
2.094251411481063307e+00
2.066500564592425260e+00
2.066500564592425260e+00
2.061062898648029940e+00
2.045874935148167761e+00
2.045874935148167761e+00
2.022811731315042216e+00
2.022811731315042216e+00
2.027874385814997016e+00
2.022999237037263143e+00
2.022999237037263143e+00
2.058437818536942299e+00
2.058437818536942299e+00
1.932996490371410303e+00
2.051875118259224084e+00
2.051875118259224084e+00
2.090688802758873255e+00
2.090688802758873255e+00
2.117127109591967482e+00
2.091251319925535146e+00
2.091251319925535146e+00
2.059375347148045154e+00
2.082438550981169811e+00
2.082438550981169811e+00
2.071000701925717724e+00
2.071000701925717724e+00
2.025061799981688893e+00
2.056750267036957958e+00
2.056750267036957958e+00
2.056937772759178884e+00
2.056937772759178884e+00
2.111501937925351680e+00
2.092938871425519931e+00
2.092938871425519931e+00
2.082251045258949329e+00
2.082251045258949329e+00
2.055062715536973172e+00
2.032187017426068998e+00
2.032187017426068998e+00
2.046999969481490211e+00
2.053562669759208870e+00
2.036687154759361462e+00
2.036687154759361462e+00
2.045499923703726353e+00
2.045499923703726353e+00
2.096501480147709540e+00
2.104751731925412539e+00
2.104751731925412539e+00
2.101001617481002448e+00
2.101001617481002448e+00
2.102689168980987233e+00
2.019811639759514499e+00
2.019811639759514499e+00
2.035374614703817642e+00
2.022249214148381213e+00
2.022249214148381213e+00
2.016436536759544484e+00
2.016436536759544484e+00
2.051875118259224084e+00
2.065750541703543330e+00
2.065750541703543330e+00
2.081688528092287882e+00
2.081688528092287882e+00
2.077000885036774935e+00
2.055437726981414581e+00
2.038374706259346247e+00
2.038374706259346247e+00
2.037812189092684800e+00
2.037812189092684800e+00
2.054687704092532208e+00
2.091813837092196593e+00
2.091813837092196593e+00
2.043624866481521085e+00
2.077375896481215900e+00
2.077375896481215900e+00
2.072875759147922992e+00
2.072875759147922992e+00
2.072688253425702509e+00
2.044187383648182976e+00
2.044187383648182976e+00
2.077375896481215900e+00
2.077375896481215900e+00
2.084501113925596005e+00
2.050750083925901190e+00
2.050750083925901190e+00
2.062375438703573760e+00
2.062375438703573760e+00
2.064813013092440475e+00
2.025624317148350340e+00
2.025624317148350340e+00
2.039499740592669585e+00
2.039499740592669585e+00
2.064250495925779028e+00
2.122752281258583285e+00
2.122752281258583285e+00
2.101564134647663895e+00
2.098001525925473842e+00
2.098001525925473842e+00
2.049062532425916405e+00
2.049062532425916405e+00
2.060312875759148010e+00
2.055812738425855546e+00
2.055812738425855546e+00
2.053187658314767905e+00
2.053187658314767905e+00
2.013436445204016323e+00
2.053187658314767905e+00
2.053187658314767905e+00
2.079063447981200685e+00
2.079063447981200685e+00
2.059000335703604190e+00
2.077375896481215900e+00
2.077375896481215900e+00
2.086563676870021755e+00
2.054125186925870761e+00
2.054125186925870761e+00
2.038937223426007694e+00
2.038937223426007694e+00
2.014186468092898252e+00
2.063125461592455689e+00
2.063125461592455689e+00
2.077188390758995418e+00
2.077188390758995418e+00
2.084688619647816488e+00
2.101751640369884377e+00
2.101751640369884377e+00
2.042312326425977265e+00
2.042312326425977265e+00
2.023186742759483625e+00
2.007998779259621003e+00
2.007998779259621003e+00
2.019249122592852608e+00
2.019249122592852608e+00
2.036312143314920498e+00
2.037062166203802427e+00
2.037062166203802427e+00
2.035187108981597159e+00
2.109439374980925930e+00
2.109439374980925930e+00
2.086001159703360308e+00
2.086001159703360308e+00
2.098751548814355772e+00
2.089188756981108952e+00
2.089188756981108952e+00
2.080563493758964988e+00
2.080563493758964988e+00
2.084501113925596005e+00
2.051687612537003602e+00
2.051687612537003602e+00
2.029936948759422766e+00
2.029936948759422766e+00
2.046624958037049247e+00
2.041749809259315818e+00
2.041749809259315818e+00
2.034437086092715230e+00
2.046624958037049247e+00
2.046624958037049247e+00
2.057125278481399366e+00
2.057125278481399366e+00
2.070625690481276759e+00
2.078500930814539238e+00
2.078500930814539238e+00
2.059750358592486119e+00
2.059750358592486119e+00
2.091063814203314664e+00
2.055812738425855546e+00
2.055812738425855546e+00
2.020561662648396428e+00
2.020561662648396428e+00
2.083001068147831703e+00
2.032749534592730889e+00
2.032749534592730889e+00
1.996185918759727951e+00
1.996185918759727951e+00
2.039124729148228621e+00
2.074000793481246330e+00
2.074000793481246330e+00
2.050562578203680708e+00
2.079813470870083059e+00
2.079813470870083059e+00
2.080750999481185470e+00
2.080750999481185470e+00
2.094813928647724754e+00
2.067250587481307633e+00
2.067250587481307633e+00
2.052812646870326940e+00
2.052812646870326940e+00
2.064250495925779028e+00
2.039312234870449103e+00
2.039312234870449103e+00
2.045124912259285388e+00
2.064250495925779028e+00
2.064250495925779028e+00
2.041937314981536300e+00
2.041937314981536300e+00
2.065375530259102366e+00
2.072313241981261545e+00
2.046062440870388244e+00
2.047749992370372585e+00
2.047749992370372585e+00
2.064813013092440475e+00
2.064813013092440475e+00
2.098001525925473842e+00
2.089563768425550361e+00
2.089563768425550361e+00
2.061812921536912313e+00
2.061812921536912313e+00
2.036687154759361462e+00
2.042124820703756782e+00
2.042124820703756782e+00
2.009873836481826270e+00
2.009873836481826270e+00
2.035937131870479533e+00
2.051500106814783120e+00
2.051500106814783120e+00
2.044374889370403459e+00
2.061625415814691387e+00
2.061625415814691387e+00
2.077563402203436382e+00
2.077563402203436382e+00
2.086188665425580790e+00
2.073625782036805365e+00
2.073625782036805365e+00
2.074188299203466812e+00
2.074188299203466812e+00
2.105876766258735877e+00
2.078500930814539238e+00
2.078500930814539238e+00
2.053562669759208870e+00
2.053562669759208870e+00
2.064438001647999510e+00
2.063875484481338063e+00
2.063875484481338063e+00
2.077000885036774935e+00
2.060312875759148010e+00
2.060312875759148010e+00
2.028249397259437981e+00
2.028249397259437981e+00
2.036312143314920498e+00
2.045499923703726353e+00
2.045499923703726353e+00
2.038374706259346247e+00
2.052062623981445011e+00
2.052062623981445011e+00
2.065188024536881883e+00
2.065188024536881883e+00
2.084876125370036970e+00
2.079625965147862576e+00
2.079625965147862576e+00
2.061437910092470904e+00
2.061437910092470904e+00
2.071563219092379615e+00
2.062562944425794242e+00
2.062562944425794242e+00
2.052812646870326940e+00
2.052812646870326940e+00
2.045874935148167761e+00
2.071375713370158689e+00
2.071375713370158689e+00
2.071000701925717724e+00
2.071000701925717724e+00
2.039124729148228621e+00
2.056000244148076028e+00
2.056000244148076028e+00
2.077938413647877791e+00
2.093126377147739969e+00
2.093126377147739969e+00
2.108689352092044000e+00
2.108689352092044000e+00
2.082813562425611220e+00
2.044374889370403459e+00
2.044374889370403459e+00
2.061625415814691387e+00
2.061625415814691387e+00
2.070063173314615312e+00
2.096126468703268575e+00
2.096126468703268575e+00
2.062750450148014725e+00
2.062750450148014725e+00
2.047562486648152102e+00
2.049250038148136888e+00
2.049250038148136888e+00
2.060875392925809457e+00
2.060875392925809457e+00
2.055437726981414581e+00
2.072500747703482027e+00
2.072500747703482027e+00
2.058250312814721816e+00
2.068375621814630971e+00
2.068375621814630971e+00
2.089001251258888470e+00
2.089001251258888470e+00
2.067250587481307633e+00
2.050937589648121673e+00
2.050937589648121673e+00
2.045499923703726353e+00
2.045499923703726353e+00
2.048125003814813549e+00
2.052437635425885976e+00
2.052437635425885976e+00
2.053375164036988387e+00
2.053375164036988387e+00
2.071000701925717724e+00
2.091626331369976111e+00
2.091626331369976111e+00
2.078313425092318756e+00
2.078313425092318756e+00
2.062750450148014725e+00
2.059562852870265637e+00
2.056000244148076028e+00
2.052250129703665493e+00
2.052250129703665493e+00
2.079063447981200685e+00
2.045312417981505870e+00
2.045312417981505870e+00
2.028061891537217498e+00
2.053187658314767905e+00
2.053187658314767905e+00
2.042499832148198191e+00
2.042499832148198191e+00
2.049062532425916405e+00
2.046249946592608282e+00
2.046249946592608282e+00
2.085251136814477935e+00
2.085251136814477935e+00
2.083001068147831703e+00
2.042687337870418673e+00
2.042687337870418673e+00
2.065938047425763813e+00
2.065938047425763813e+00
2.086188665425580790e+00
2.086188665425580790e+00
2.077000885036774935e+00
2.077000885036774935e+00
2.063312967314676172e+00
2.047374980925931620e+00
2.047374980925931620e+00
2.063875484481338063e+00
2.047937498092593067e+00
2.047937498092593067e+00
2.056562761314737475e+00
2.056562761314737475e+00
2.065938047425763813e+00
2.061437910092470904e+00
2.061437910092470904e+00
2.051500106814783120e+00
2.051500106814783120e+00
2.050187566759239299e+00
2.059187841425824672e+00
2.059187841425824672e+00
2.063312967314676172e+00
2.063312967314676172e+00
2.060875392925809457e+00
2.078688436536759720e+00
2.078688436536759720e+00
2.114502029480880285e+00
2.114502029480880285e+00
2.119377178258613714e+00
2.065750541703543330e+00
2.065750541703543330e+00
2.029561937314981801e+00
2.029561937314981801e+00
2.045687429425947279e+00
2.051500106814783120e+00
2.051500106814783120e+00
2.057312784203619849e+00
2.090126285592211808e+00
2.109064363536484965e+00
2.109064363536484965e+00
2.092938871425519931e+00
2.092938871425519931e+00
2.079063447981200685e+00
2.041187292092654371e+00
2.041187292092654371e+00
2.028624408703878945e+00
2.028624408703878945e+00
2.058625324259163225e+00
2.066500564592425260e+00
2.066500564592425260e+00
2.060687887203588975e+00
2.060687887203588975e+00
2.061250404370250422e+00
2.064625507370219992e+00
2.064625507370219992e+00
2.062937955870235207e+00
2.063125461592455689e+00
2.063125461592455689e+00
2.072313241981261545e+00
2.072313241981261545e+00
2.063125461592455689e+00
2.072313241981261545e+00
2.072313241981261545e+00
2.052625141148106458e+00
2.052625141148106458e+00
2.056750267036957958e+00
2.066688070314646186e+00
2.066688070314646186e+00
2.072313241981261545e+00
2.072313241981261545e+00
2.063500473036897098e+00
2.052250129703665493e+00
2.052250129703665493e+00
2.051500106814783120e+00
2.051500106814783120e+00
2.020936674092837393e+00
2.026374340037232713e+00
2.026374340037232713e+00
2.060875392925809457e+00
2.112626972258675018e+00
2.112626972258675018e+00
2.118814661091952267e+00
2.118814661091952267e+00
2.092001342814417075e+00
2.055625232703635064e+00
2.055625232703635064e+00
2.110564409314249268e+00
2.110564409314249268e+00
2.069875667592394830e+00
2.049250038148136888e+00
2.049250038148136888e+00
2.051125095370342155e+00
2.051125095370342155e+00
2.054125186925870761e+00
2.076625873592333971e+00
2.076625873592333971e+00
2.024499282815027001e+00
2.024499282815027001e+00
2.045312417981505870e+00
2.069875667592394830e+00
2.069875667592394830e+00
2.065000518814661401e+00
2.087313699758903685e+00
2.087313699758903685e+00
2.122752281258583285e+00
2.122752281258583285e+00
2.071563219092379615e+00
2.048312509537034032e+00
2.048312509537034032e+00
2.091813837092196593e+00
2.091813837092196593e+00
2.075313333536790150e+00
2.049812555314798335e+00
2.049812555314798335e+00
2.045874935148167761e+00
2.055250221259193655e+00
2.055250221259193655e+00
2.047749992370372585e+00
2.047749992370372585e+00
2.033874568926053783e+00
2.065750541703543330e+00
2.065750541703543330e+00
2.033499557481612818e+00
2.033499557481612818e+00
2.061625415814691387e+00
2.082626056703390294e+00
2.082626056703390294e+00
2.101939146092104860e+00
2.101939146092104860e+00
2.079813470870083059e+00
2.053187658314767905e+00
2.053187658314767905e+00
2.039124729148228621e+00
2.059000335703604190e+00
2.059000335703604190e+00
2.064625507370219992e+00
2.072688253425702509e+00
2.072688253425702509e+00
2.008186284981841485e+00
2.018499099703970678e+00
2.018499099703970678e+00
2.053000152592547423e+00
2.053000152592547423e+00
2.065750541703543330e+00
2.068750633259071936e+00
2.068750633259071936e+00
2.046437452314828764e+00
2.046437452314828764e+00
2.055437726981414581e+00
2.111126926480910715e+00
2.111126926480910715e+00
2.135127658925138228e+00
2.085251136814477935e+00
2.085251136814477935e+00
2.067625598925748598e+00
2.067625598925748598e+00
2.034062074648274265e+00
2.019249122592852608e+00
2.019249122592852608e+00
2.043249855037080120e+00
2.043249855037080120e+00
2.061812921536912313e+00
2.034249580370494748e+00
2.034249580370494748e+00
1.956434705648976147e+00
1.956434705648976147e+00
2.073625782036805365e+00
2.101751640369884377e+00
2.101751640369884377e+00
2.081501022370067400e+00
2.068188116092410045e+00
2.068188116092410045e+00
2.055625232703635064e+00
2.055625232703635064e+00
2.043437360759300603e+00
2.021311685537278358e+00
2.021311685537278358e+00
2.006123722037415735e+00
2.006123722037415735e+00
2.041562303537095335e+00
2.080188482314524023e+00
2.080188482314524023e+00
2.122189764091921838e+00
2.122189764091921838e+00
2.102314157536546269e+00
2.058625324259163225e+00
2.058625324259163225e+00
2.084688619647816488e+00
2.048687520981474997e+00
2.048687520981474997e+00
2.053000152592547423e+00
2.053000152592547423e+00
2.057500289925840331e+00
2.066875576036866669e+00
2.066875576036866669e+00
2.061812921536912313e+00
2.061812921536912313e+00
2.043437360759300603e+00
2.066313058870204777e+00
2.066313058870204777e+00
2.075125827814569668e+00
2.075125827814569668e+00
2.072313241981261545e+00
2.083938596758934114e+00
2.083938596758934114e+00
2.052437635425885976e+00
2.052437635425885976e+00
2.059187841425824672e+00
2.045499923703726353e+00
2.045499923703726353e+00
2.070063173314615312e+00
2.041937314981536300e+00
2.041937314981536300e+00
2.013248939481795396e+00
2.013248939481795396e+00
2.075875850703451597e+00
2.070063173314615312e+00
2.070063173314615312e+00
2.059000335703604190e+00
2.059000335703604190e+00
2.066500564592425260e+00
2.047937498092593067e+00
2.047937498092593067e+00
2.022061708426160731e+00
2.022061708426160731e+00
2.040062257759331033e+00
2.012686422315133949e+00
2.012686422315133949e+00
2.021874202703940249e+00
2.021874202703940249e+00
2.088813745536667987e+00
2.083188573870052185e+00
2.083188573870052185e+00
2.039124729148228621e+00
2.013436445204016323e+00
2.013436445204016323e+00
2.039687246314890068e+00
2.039687246314890068e+00
2.072875759147922992e+00
2.088063722647786058e+00
2.088063722647786058e+00
2.077750907925656865e+00
2.077750907925656865e+00
2.069125644703512901e+00
2.088813745536667987e+00
2.088813745536667987e+00
2.068563127536851454e+00
2.048500015259254514e+00
2.009123813592944341e+00
2.009123813592944341e+00
1.983998046815393712e+00
1.983998046815393712e+00
2.049812555314798335e+00
2.141502853480635959e+00
2.141502853480635959e+00
2.129689992980742907e+00
2.129689992980742907e+00
2.123314798425245176e+00
2.060687887203588975e+00
2.060687887203588975e+00
2.034999603259376677e+00
2.034999603259376677e+00
2.046812463759269729e+00
2.070438184759056277e+00
2.070438184759056277e+00
2.065375530259102366e+00
2.065375530259102366e+00
2.038374706259346247e+00
2.018311593981750196e+00
2.018311593981750196e+00
2.038187200537125765e+00
2.038187200537125765e+00
2.024124271370586037e+00
2.038937223426007694e+00
2.038937223426007694e+00
2.054500198370311725e+00
2.054500198370311725e+00
2.058437818536942299e+00
2.056937772759178884e+00
2.056937772759178884e+00
2.038749717703787212e+00
2.041937314981536300e+00
2.041937314981536300e+00
2.049625049592577852e+00
2.049625049592577852e+00
2.049437543870357370e+00
2.104939237647633021e+00
2.104939237647633021e+00
2.106626789147617806e+00
2.106626789147617806e+00
2.101564134647663895e+00
2.057312784203619849e+00
2.057312784203619849e+00
2.050187566759239299e+00
2.050187566759239299e+00
2.063312967314676172e+00
2.035562120426038124e+00
2.035562120426038124e+00
2.062000427259132795e+00
2.062000427259132795e+00
2.101751640369884377e+00
2.060687887203588975e+00
2.060687887203588975e+00
2.048500015259254514e+00
2.048500015259254514e+00
2.050187566759239299e+00
2.036499649037140980e+00
2.036499649037140980e+00
2.035562120426038124e+00
2.030499465926084213e+00
2.030499465926084213e+00
2.018874111148411643e+00
2.018874111148411643e+00
2.025436811426129857e+00
2.048500015259254514e+00
2.048500015259254514e+00
2.106626789147617806e+00
2.087313699758903685e+00
2.087313699758903685e+00
2.033874568926053783e+00
2.033874568926053783e+00
1.999373516037476817e+00
2.037812189092684800e+00
2.037812189092684800e+00
2.092563859981078966e+00
2.092563859981078966e+00
2.107189306314279698e+00
2.083188573870052185e+00
2.083188573870052185e+00
2.077375896481215900e+00
2.077375896481215900e+00
2.060125370036927084e+00
2.065188024536881883e+00
2.065188024536881883e+00
2.054875209814752690e+00
2.041374797814874853e+00
2.041374797814874853e+00
2.052625141148106458e+00
2.052625141148106458e+00
2.071563219092379615e+00
2.031624500259407551e+00
2.031624500259407551e+00
2.049812555314798335e+00
2.049812555314798335e+00
2.034812097537156195e+00
2.035374614703817642e+00
2.035374614703817642e+00
2.063125461592455689e+00
2.063125461592455689e+00
2.062000427259132795e+00
1.992060792870876229e+00
1.992060792870876229e+00
2.007998779259621003e+00
2.007998779259621003e+00
2.059375347148045154e+00
2.091626331369976111e+00
2.091626331369976111e+00
2.113939512314218838e+00
2.121064729758598499e+00
2.121064729758598499e+00
2.115627063814203623e+00
2.115627063814203623e+00
2.044937406537064906e+00
2.031624500259407551e+00
2.031624500259407551e+00
2.043999877925962494e+00
2.043999877925962494e+00
2.079438459425641650e+00
2.101751640369884377e+00
2.101751640369884377e+00
2.054312692648091243e+00
2.054312692648091243e+00
2.006498733481856700e+00
2.010811365092929126e+00
2.010811365092929126e+00
2.008748802148503376e+00
2.008748802148503376e+00
2.012873928037354432e+00
2.046062440870388244e+00
2.046062440870388244e+00
2.089001251258888470e+00
2.045312417981505870e+00
2.045312417981505870e+00
2.021686696981719766e+00
2.077000885036774935e+00
2.077000885036774935e+00
2.068938138981292418e+00
2.068938138981292418e+00
2.036874660481581945e+00
2.074750816370128703e+00
2.074750816370128703e+00
2.131190038758506766e+00
2.131190038758506766e+00
2.113189489425336465e+00
2.095563951536606684e+00
2.095563951536606684e+00
2.050562578203680708e+00
2.050562578203680708e+00
2.018499099703970678e+00
2.009123813592944341e+00
2.009123813592944341e+00
2.025061799981688893e+00
2.071563219092379615e+00
2.082438550981169811e+00
2.082438550981169811e+00
2.053187658314767905e+00
2.044749900814844423e+00
2.044749900814844423e+00
2.057312784203619849e+00
2.057312784203619849e+00
1.995060884426404613e+00
2.031624500259407551e+00
2.031624500259407551e+00
2.040062257759331033e+00
2.091626331369976111e+00
2.091626331369976111e+00
2.106814294869838289e+00
2.106814294869838289e+00
2.095563951536606684e+00
2.079813470870083059e+00
2.079813470870083059e+00
2.039312234870449103e+00
2.039312234870449103e+00
2.057312784203619849e+00
2.068563127536851454e+00
2.068563127536851454e+00
2.084501113925596005e+00
2.084501113925596005e+00
2.078688436536759720e+00
2.032562028870509963e+00
2.032562028870509963e+00
2.013623950926236805e+00
2.013623950926236805e+00
2.015123996704001108e+00
2.021499191259499284e+00
2.021499191259499284e+00
2.053187658314767905e+00
2.055812738425855546e+00
2.055812738425855546e+00
2.101939146092104860e+00
2.101939146092104860e+00
2.108689352092044000e+00
2.066875576036866669e+00
2.066875576036866669e+00
2.023186742759483625e+00
2.023186742759483625e+00
2.005561204870754288e+00
2.030499465926084213e+00
2.030499465926084213e+00
2.057125278481399366e+00
2.072500747703482027e+00
2.072500747703482027e+00
2.082251045258949329e+00
2.029561937314981801e+00
2.029561937314981801e+00
2.030686971648304695e+00
2.030686971648304695e+00
2.031999511703848516e+00
2.083563585314493150e+00
2.083563585314493150e+00
2.069875667592394830e+00
2.069875667592394830e+00
2.078313425092318756e+00
2.101189123203222930e+00
2.101189123203222930e+00
2.139065279091769245e+00
2.139065279091769245e+00
2.095001434369945237e+00
2.114127018036439321e+00
2.114127018036439321e+00
2.048125003814813549e+00
2.048125003814813549e+00
2.015686513870662555e+00
2.016436536759544484e+00
2.016436536759544484e+00
1.986248115482039944e+00
2.030686971648304695e+00
2.030686971648304695e+00
2.065563035981322848e+00
2.065563035981322848e+00
2.117689626758628929e+00
2.127439924314096675e+00
2.127439924314096675e+00
2.078125919370098273e+00
2.078125919370098273e+00
1.983435529648732043e+00
1.993560838648640532e+00
1.993560838648640532e+00
2.009686330759605788e+00
2.009686330759605788e+00
2.051125095370342155e+00
2.073625782036805365e+00
2.073625782036805365e+00
2.075313333536790150e+00
2.075313333536790150e+00
2.072875759147922992e+00
2.090688802758873255e+00
2.090688802758873255e+00
2.084688619647816488e+00
2.063125461592455689e+00
2.063125461592455689e+00
2.088626239814447505e+00
2.088626239814447505e+00
2.102314157536546269e+00
2.126877407147435228e+00
2.126877407147435228e+00
2.082626056703390294e+00
2.082626056703390294e+00
2.009873836481826270e+00
2.008936307870723859e+00
2.008936307870723859e+00
2.015311502426221590e+00
2.015311502426221590e+00
2.031624500259407551e+00
2.057500289925840331e+00
2.057500289925840331e+00
2.084876125370036970e+00
2.112064455092013571e+00
2.112064455092013571e+00
2.065750541703543330e+00
2.065750541703543330e+00
2.032937040314951371e+00
2.060500381481368493e+00
2.060500381481368493e+00
2.079813470870083059e+00
2.064062990203558545e+00
2.064062990203558545e+00
2.085626148258918899e+00
2.085626148258918899e+00
2.065750541703543330e+00
2.029749443037202283e+00
2.029749443037202283e+00
2.103251686147648680e+00
2.103251686147648680e+00
2.099876583147679110e+00
2.070813196203497242e+00
2.060125370036927084e+00
2.060125370036927084e+00
2.039312234870449103e+00
2.054500198370311725e+00
2.054500198370311725e+00
2.056750267036957958e+00
2.056750267036957958e+00
1.998435987426374183e+00
1.982310495315408927e+00
1.982310495315408927e+00
2.052625141148106458e+00
2.052625141148106458e+00
2.063500473036897098e+00
2.072688253425702509e+00
2.072688253425702509e+00
2.123689809869686140e+00
2.126689901425214746e+00
2.126689901425214746e+00
2.125564867091891408e+00
2.125564867091891408e+00
2.021686696981719766e+00
2.010998870815149164e+00
2.010998870815149164e+00
2.079438459425641650e+00
2.079438459425641650e+00
2.117502121036408447e+00
2.078688436536759720e+00
2.078688436536759720e+00
1.989435712759789032e+00
1.989435712759789032e+00
2.011936399426252020e+00
2.041937314981536300e+00
2.041937314981536300e+00
2.087688711203345093e+00
2.087688711203345093e+00
2.131190038758506766e+00
2.088251228370006540e+00
2.088251228370006540e+00
2.015499008148442073e+00
2.015499008148442073e+00
2.016624042481765411e+00
2.062937955870235207e+00
2.062937955870235207e+00
2.111689443647572162e+00
2.111876949369793088e+00
2.111876949369793088e+00
2.100251594592120075e+00
2.100251594592120075e+00
2.066125553147984295e+00
2.012123905148472502e+00
2.012123905148472502e+00
2.002561113315225683e+00
2.002561113315225683e+00
2.040249763481551515e+00
2.098939054536576698e+00
2.098939054536576698e+00
2.091063814203314664e+00
2.091063814203314664e+00
2.111501937925351680e+00
2.098751548814355772e+00
2.098751548814355772e+00
2.068188116092410045e+00
2.062937955870235207e+00
2.062937955870235207e+00
2.038562211981566730e+00
2.038562211981566730e+00
2.031999511703848516e+00
2.072688253425702509e+00
2.072688253425702509e+00
2.030499465926084213e+00
2.030499465926084213e+00
1.991685781426435042e+00
2.070438184759056277e+00
2.070438184759056277e+00
2.089938779869991325e+00
2.089938779869991325e+00
2.084688619647816488e+00
2.034249580370494748e+00
2.034249580370494748e+00
1.919683584093752948e+00
2.024499282815027001e+00
2.024499282815027001e+00
2.121439741203039464e+00
2.121439741203039464e+00
2.192316904202398664e+00
2.219317728202154782e+00
2.219317728202154782e+00
2.131565050202948175e+00
2.131565050202948175e+00
2.068750633259071936e+00
2.075313333536790150e+00
2.075313333536790150e+00
2.055062715536973172e+00
2.055062715536973172e+00
2.047187475203710694e+00
1.960747337260048351e+00
1.960747337260048351e+00
1.992623310037537676e+00
1.992623310037537676e+00
1.960372325815607386e+00
1.993185827204199345e+00
1.993185827204199345e+00
1.957934751426740450e+00
2.025624317148350340e+00
2.025624317148350340e+00
2.022624225592822178e+00
2.022624225592822178e+00
2.149378093813898438e+00
2.258131412701803509e+00
2.258131412701803509e+00
2.254943815424054865e+00
2.254943815424054865e+00
2.115439558091983141e+00
2.124439832758568070e+00
2.124439832758568070e+00
2.095376445814386202e+00
2.031999511703848516e+00
2.031999511703848516e+00
2.074938322092349186e+00
2.011186376537369647e+00
2.011186376537369647e+00
2.009123813592944341e+00
2.009123813592944341e+00
2.025624317148350340e+00
2.053937681203650278e+00
2.053937681203650278e+00
2.048500015259254514e+00
2.048500015259254514e+00
2.016249031037324002e+00
2.094251411481063307e+00
2.094251411481063307e+00
2.111689443647572162e+00
2.080563493758964988e+00
2.117314615314187964e+00
2.055437726981414581e+00
2.055437726981414581e+00
2.060687887203588975e+00
2.060687887203588975e+00
2.023561754203924590e+00
2.041374797814874853e+00
2.041374797814874853e+00
1.948184453871272925e+00
1.948184453871272925e+00
1.918746055482650315e+00
2.116189580980865070e+00
2.116189580980865070e+00
2.277819513534959039e+00
2.277819513534959039e+00
2.115814569536424106e+00
2.089001251258888470e+00
2.089001251258888470e+00
2.114127018036439321e+00
2.033874568926053783e+00
2.033874568926053783e+00
2.023936765648365554e+00
2.023936765648365554e+00
2.101939146092104860e+00
2.046249946592608282e+00
2.046249946592608282e+00
2.109626880703146412e+00
2.109626880703146412e+00
1.992998321481978863e+00
1.925121250038148268e+00
1.925121250038148268e+00
2.079250953703421168e+00
2.079250953703421168e+00
1.994123355815301979e+00
2.006873744926298109e+00
2.006873744926298109e+00
2.127064912869655711e+00
2.118439649647511303e+00
2.118439649647511303e+00
2.062375438703573760e+00
2.062375438703573760e+00
2.169816217535935454e+00
2.184441663869136629e+00
2.184441663869136629e+00
1.991873287148655747e+00
1.991873287148655747e+00
1.947809442426831961e+00
2.038749717703787212e+00
2.038749717703787212e+00
1.994310861537522683e+00
2.071938230536820580e+00
2.071938230536820580e+00
2.063312967314676172e+00
2.063312967314676172e+00
2.046624958037049247e+00
2.132877590258491995e+00
2.132877590258491995e+00
2.227005462813196335e+00
2.227005462813196335e+00
2.286069765312662039e+00
2.106814294869838289e+00
2.106814294869838289e+00
2.002186101870784718e+00
2.002186101870784718e+00
1.980997955259865106e+00
1.977247840815454571e+00
1.977247840815454571e+00
1.908995757927182790e+00
1.908995757927182790e+00
1.907683217871639192e+00
1.807742667928098568e+00
1.807742667928098568e+00
1.947621936704611478e+00
1.947621936704611478e+00
2.113189489425336465e+00
2.113752006591998356e+00
2.113752006591998356e+00
2.195504501480147752e+00
2.101564134647663895e+00
2.101564134647663895e+00
2.215380108035523765e+00
2.215380108035523765e+00
2.314758140812402942e+00
2.193441938535722002e+00
2.193441938535722002e+00
2.012123905148472502e+00
2.012123905148472502e+00
1.916308481093783378e+00
2.053000152592547423e+00
2.053000152592547423e+00
2.170566240424817828e+00
2.170566240424817828e+00
2.099876583147679110e+00
2.037999694814905283e+00
2.037999694814905283e+00
1.945559373760185506e+00
1.945559373760185506e+00
2.032374523148289480e+00
1.932808984649189599e+00
1.932808984649189599e+00
2.019436628315073090e+00
2.082063539536728847e+00
2.082063539536728847e+00
1.924746238593707082e+00
1.924746238593707082e+00
2.088063722647786058e+00
2.179941526535844165e+00
2.179941526535844165e+00
2.115627063814203623e+00
2.115627063814203623e+00
1.900558000427259309e+00
2.029186925870540392e+00
2.029186925870540392e+00
2.320758323923459709e+00
2.452762352366710363e+00
2.275944456312753772e+00
2.275944456312753772e+00
2.150503128147221332e+00
2.008373790704061967e+00
2.008373790704061967e+00
1.899432966093935971e+00
1.899432966093935971e+00
2.068750633259071936e+00
2.158003357036042402e+00
2.158003357036042402e+00
2.046999969481490211e+00
1.888182622760704366e+00
1.888182622760704366e+00
1.983623035370952525e+00
1.983623035370952525e+00
1.978185369426557427e+00
1.740803125095370385e+00
1.735552964873195547e+00
1.962809900204474101e+00
1.962809900204474101e+00
2.095188940092165719e+00
2.095188940092165719e+00
2.161003448591571008e+00
2.330321115756706529e+00
2.330321115756706529e+00
2.161190954313791490e+00
2.161190954313791490e+00
2.132315073091830104e+00
2.497763725699636783e+00
2.497763725699636783e+00
2.536389904477065471e+00
2.136627704702902530e+00
2.136627704702902530e+00
2.043062349314859638e+00
2.043062349314859638e+00
2.037624683370464318e+00
1.984560563982054937e+00
1.984560563982054937e+00
1.758991180150761391e+00
1.758991180150761391e+00
1.811867793816950067e+00
1.965809991760002484e+00
1.965809991760002484e+00
2.059375347148045154e+00
2.059375347148045154e+00
2.148628070925016065e+00
1.980622943815424142e+00
1.980622943815424142e+00
1.863994384594256370e+00
1.863994384594256370e+00
2.117502121036408447e+00
2.155378276924954761e+00
2.155378276924954761e+00
2.110376903592028786e+00
2.111689443647572162e+00
2.111689443647572162e+00
2.230755577257606870e+00
2.306507889034699499e+00
2.306507889034699499e+00
2.100814111758781966e+00
2.100814111758781966e+00
1.945184362315744542e+00
1.984935575426496124e+00
1.862494338816492068e+00
1.862494338816492068e+00
1.866806970427564494e+00
1.904120609149449139e+00
1.904120609149449139e+00
1.839806146427808375e+00
1.839806146427808375e+00
1.778116763817255253e+00
1.995623401593066282e+00
1.995623401593066282e+00
2.059000335703604190e+00
2.059000335703604190e+00
2.180879055146946577e+00
2.071938230536820580e+00
2.071938230536820580e+00
1.785616992706076100e+00
1.785616992706076100e+00
2.200754661702322146e+00
2.166816125980407293e+00
2.166816125980407293e+00
1.950809533982360344e+00
2.037062166203802427e+00
2.037062166203802427e+00
2.376072511978514878e+00
2.376072511978514878e+00
2.200567155980101663e+00
2.035187108981597159e+00
2.035187108981597159e+00
2.365759697256386129e+00
2.365759697256386129e+00
2.518014343699453761e+00
2.247818597979674760e+00
2.247818597979674760e+00
2.100064088869899592e+00
2.100064088869899592e+00
2.215755119479964730e+00
1.913870906704916663e+00
1.913870906704916663e+00
1.618736899929807516e+00
1.618736899929807516e+00
1.794242255928220509e+00
2.044562395092623941e+00
2.044562395092623941e+00
1.870932096316415993e+00
2.022811731315042216e+00
2.022811731315042216e+00
2.236005737479781263e+00
2.236005737479781263e+00
2.178816492202520827e+00
2.018499099703970678e+00
2.018499099703970678e+00
1.939559190649128739e+00
1.939559190649128739e+00
2.114877040925321250e+00
2.100814111758781966e+00
2.100814111758781966e+00
2.063500473036897098e+00
2.063500473036897098e+00
1.683426374095889244e+00
1.668238410596026400e+00
1.668238410596026400e+00
1.787492049928281590e+00
1.787492049928281590e+00
2.299007660145878429e+00
2.371759880367442896e+00
2.371759880367442896e+00
2.315695669423505798e+00
2.459887569811090469e+00
2.459887569811090469e+00
2.251006195257423848e+00
2.146753013702810797e+00
2.146753013702810797e+00
1.962247383037812432e+00
1.962247383037812432e+00
1.868682027649769539e+00
1.815430402539139898e+00
1.815430402539139898e+00
1.851619006927701649e+00
1.851619006927701649e+00
1.763116306039613113e+00
1.722802575762199861e+00
1.722802575762199861e+00
2.086751182592242237e+00
2.086751182592242237e+00
2.195129490035706787e+00
2.066313058870204777e+00
2.066313058870204777e+00
2.388072878200628413e+00
2.388072878200628413e+00
2.344946562089907705e+00
2.344946562089907705e+00
2.188379284035767647e+00
1.955309671315652809e+00
1.955309671315652809e+00
1.909745780816064942e+00
1.950247016815698675e+00
1.950247016815698675e+00
1.831368388927884894e+00
1.831368388927884894e+00
2.281569627979369130e+00
1.922871181371501814e+00
1.922871181371501814e+00
1.942559282204657345e+00
1.942559282204657345e+00
2.289257362590411127e+00
2.136815210425123013e+00
2.136815210425123013e+00
2.030311960203863730e+00
2.030311960203863730e+00
2.449949766533402684e+00
2.374197454756310055e+00
2.374197454756310055e+00
1.998810998870815148e+00
1.998810998870815148e+00
1.905620654927213442e+00
1.752240974150822472e+00
1.752240974150822472e+00
1.607674062318796393e+00
1.607674062318796393e+00
1.988685689870906881e+00
2.377010040589617734e+00
2.377010040589617734e+00
2.283444685201574842e+00
2.131377544480727693e+00
2.131377544480727693e+00
2.254568803979613900e+00
2.254568803979613900e+00
2.359384502700888397e+00
2.229068025757622085e+00
2.229068025757622085e+00
2.061250404370250422e+00
2.061250404370250422e+00
2.029561937314981801e+00
1.941246742149113524e+00
1.941246742149113524e+00
1.579923215430158567e+00
1.757678640095217792e+00
1.757678640095217792e+00
1.886682576982940063e+00
1.886682576982940063e+00
2.103439191869869163e+00
2.350946745200964472e+00
2.350946745200964472e+00
2.274819421979430434e+00
2.002748619037446165e+00
2.002748619037446165e+00
2.104564226203192501e+00
2.104564226203192501e+00
2.018124088259529714e+00
1.798179876094851526e+00
1.798179876094851526e+00
1.858556718649861272e+00
1.858556718649861272e+00
1.937871639149143954e+00
1.826868251594591985e+00
1.826868251594591985e+00
1.911245826593829245e+00
1.911245826593829245e+00
2.281382122257148648e+00
2.643643177587206683e+00
2.643643177587206683e+00
2.374009949034089573e+00
2.374009949034089573e+00
1.938996673482467070e+00
1.730115298928800449e+00
1.730115298928800449e+00
2.193441938535722002e+00
2.193441938535722002e+00
2.574266060365611786e+00
2.376447523422955843e+00
2.376447523422955843e+00
1.911245826593829245e+00
1.858181707205420086e+00
1.858181707205420086e+00
1.900182988982818122e+00
1.900182988982818122e+00
1.957559739982299263e+00
2.123877315591906623e+00
2.123877315591906623e+00
2.108876857814264483e+00
2.108876857814264483e+00
2.299195165868098911e+00
1.789929624317148527e+00
1.789929624317148527e+00
1.714177312540055675e+00
1.714177312540055675e+00
1.890620197149571302e+00
2.135877681814020157e+00
2.135877681814020157e+00
1.966560014648884636e+00
1.966560014648884636e+00
2.034999603259376677e+00
2.022249214148381213e+00
2.022249214148381213e+00
2.253443769646290562e+00
2.253443769646290562e+00
2.282882168034912951e+00
2.092751365703299449e+00
2.092751365703299449e+00
1.941246742149113524e+00
1.888370128482924848e+00
1.888370128482924848e+00
1.905058137760551773e+00
1.964684957426679368e+00
1.964684957426679368e+00
2.125189855647450443e+00
2.125189855647450443e+00
2.226255439924313961e+00
2.331633655812249906e+00
2.331633655812249906e+00
2.114877040925321250e+00
2.114877040925321250e+00
2.010061342204047197e+00
1.971622669148838769e+00
1.971622669148838769e+00
2.040062257759331033e+00
2.235443220313119816e+00
2.235443220313119816e+00
1.998435987426374183e+00
1.998435987426374183e+00
1.867181981872005458e+00
2.021311685537278358e+00
2.021311685537278358e+00
1.942184270760216158e+00
1.942184270760216158e+00
2.010436353648488161e+00
1.832305917538987305e+00
1.832305917538987305e+00
2.007248756370739073e+00
2.007248756370739073e+00
2.215755119479964730e+00
1.931308938871425740e+00
1.931308938871425740e+00
2.035374614703817642e+00
2.594141666920987799e+00
2.594141666920987799e+00
2.389010406811731269e+00
2.389010406811731269e+00
2.244631000701926116e+00
1.932621478926969116e+00
1.932621478926969116e+00
2.001623584704122827e+00
2.001623584704122827e+00
1.843368755149998650e+00
1.999186010315256334e+00
1.999186010315256334e+00
1.959247291482284048e+00
1.959247291482284048e+00
2.037249671926022909e+00
1.932808984649189599e+00
1.932808984649189599e+00
2.048125003814813549e+00
2.048125003814813549e+00
1.920058595538193913e+00
2.215380108035523765e+00
2.215380108035523765e+00
2.363509628589739453e+00
2.363509628589739453e+00
2.083188573870052185e+00
1.786367015594958252e+00
1.786367015594958252e+00
2.004623676259651432e+00
2.338196356089969008e+00
2.338196356089969008e+00
2.371572374645222414e+00
2.371572374645222414e+00
2.105501754814294912e+00
2.058062807092501334e+00
2.058062807092501334e+00
2.054687704092532208e+00
2.054687704092532208e+00
2.012686422315133949e+00
2.040999786370433888e+00
2.040999786370433888e+00
2.162503494369335311e+00
1.979122898037659839e+00
1.979122898037659839e+00
1.964497451704458886e+00
1.964497451704458886e+00
2.082063539536728847e+00
1.935434064760277240e+00
1.935434064760277240e+00
1.930371410260322884e+00
1.930371410260322884e+00
1.890057679982909855e+00
2.075875850703451597e+00
2.075875850703451597e+00
1.890995208594012267e+00
1.890995208594012267e+00
2.033312051759392336e+00
2.110939420758690233e+00
2.110939420758690233e+00
2.148253059480575100e+00
2.148253059480575100e+00
2.320945829645680192e+00
2.193066927091281038e+00
2.193066927091281038e+00
2.040624774925992480e+00
2.040624774925992480e+00
2.099314065981017663e+00
2.338008850367748082e+00
2.338008850367748082e+00
2.209567430646687480e+00
1.939746696371349222e+00
1.939746696371349222e+00
1.965809991760002484e+00
1.965809991760002484e+00
1.926433790093691867e+00
1.895682851649525658e+00
1.895682851649525658e+00
2.000123538926358524e+00
2.000123538926358524e+00
1.923246192815943001e+00
1.948934476760155077e+00
1.948934476760155077e+00
1.891932737205114901e+00
1.891932737205114901e+00
2.151815668202764709e+00
2.136815210425123013e+00
2.136815210425123013e+00
2.189691824091311467e+00
2.087313699758903685e+00
2.087313699758903685e+00
2.061437910092470904e+00
2.061437910092470904e+00
2.134377636036255854e+00
2.101564134647663895e+00
2.101564134647663895e+00
2.045687429425947279e+00
2.045687429425947279e+00
1.978560380870998392e+00
1.911245826593829245e+00
1.911245826593829245e+00
1.954184636982329915e+00
1.954184636982329915e+00
2.054312692648091243e+00
1.816367931150242532e+00
1.816367931150242532e+00
1.940684224982451855e+00
2.151628162480544670e+00
2.287007293923764895e+00
2.287007293923764895e+00
2.365572191534165203e+00
2.365572191534165203e+00
2.322258369701224012e+00
1.970310129093295171e+00
1.970310129093295171e+00
2.148065553758354618e+00
2.148065553758354618e+00
2.087501205481124167e+00
2.049250038148136888e+00
2.049250038148136888e+00
1.847493881038850150e+00
1.847493881038850150e+00
2.049437543870357370e+00
2.153315713980529011e+00
2.153315713980529011e+00
2.149565599536118921e+00
2.220067751091036712e+00
2.220067751091036712e+00
2.091626331369976111e+00
2.091626331369976111e+00
2.164378551591540134e+00
1.951184545426801309e+00
1.951184545426801309e+00
1.954747154148991584e+00
1.954747154148991584e+00
2.094251411481063307e+00
2.075500839259010633e+00
2.075500839259010633e+00
1.881432416760765447e+00
1.881432416760765447e+00
2.067813104647969080e+00
2.148253059480575100e+00
2.148253059480575100e+00
2.037624683370464318e+00
1.994123355815301979e+00
1.994123355815301979e+00
2.133627613147373925e+00
2.133627613147373925e+00
2.021311685537278358e+00
2.033499557481612818e+00
2.033499557481612818e+00
1.866619464705344011e+00
