2.034437086092715230e+00
2.010061342204047197e+00
2.038937223426007694e+00
2.038937223426007694e+00
2.023749259926145072e+00
2.023749259926145072e+00
2.022249214148381213e+00
2.032187017426068998e+00
2.032187017426068998e+00
2.077375896481215900e+00
2.077375896481215900e+00
2.115627063814203623e+00
2.093876400036621899e+00
2.093876400036621899e+00
2.071188207647938206e+00
2.071188207647938206e+00
2.040249763481551515e+00
2.028624408703878945e+00
2.028624408703878945e+00
2.042312326425977265e+00
2.057312784203619849e+00
2.057312784203619849e+00
2.059937864314706601e+00
2.059937864314706601e+00
2.051687612537003602e+00
2.007811273537400520e+00
2.007811273537400520e+00
2.019061616870632125e+00
2.019061616870632125e+00
2.074000793481246330e+00
2.060312875759148010e+00
2.060312875759148010e+00
2.058812829981383707e+00
2.058812829981383707e+00
2.034812097537156195e+00
2.035937131870479533e+00
2.035937131870479533e+00
2.069875667592394830e+00
2.112626972258675018e+00
2.112626972258675018e+00
2.094813928647724754e+00
2.077000885036774935e+00
2.077000885036774935e+00
2.040999786370433888e+00
2.040999786370433888e+00
2.019061616870632125e+00
2.033312051759392336e+00
2.033312051759392336e+00
2.038562211981566730e+00
2.033687063203833301e+00
2.033687063203833301e+00
2.058812829981383707e+00
2.058812829981383707e+00
2.047937498092593067e+00
2.069875667592394830e+00
2.069875667592394830e+00
2.068563127536851454e+00
2.068563127536851454e+00
2.069313150425733383e+00
2.066500564592425260e+00
2.066500564592425260e+00
2.070438184759056277e+00
2.070438184759056277e+00
2.055625232703635064e+00
2.050187566759239299e+00
2.050187566759239299e+00
2.059187841425824672e+00
2.040624774925992480e+00
2.040624774925992480e+00
2.046249946592608282e+00
2.046249946592608282e+00
2.048500015259254514e+00
2.056375255592516993e+00
2.056375255592516993e+00
2.075688344981231115e+00
2.075688344981231115e+00
2.056562761314737475e+00
2.050000061037018817e+00
2.050000061037018817e+00
2.063875484481338063e+00
2.053750175481429796e+00
2.053750175481429796e+00
2.043437360759300603e+00
2.043437360759300603e+00
2.053187658314767905e+00
2.044562395092623941e+00
2.044562395092623941e+00
2.058250312814721816e+00
2.058250312814721816e+00
2.016624042481765411e+00
2.061625415814691387e+00
2.061625415814691387e+00
2.043624866481521085e+00
2.043624866481521085e+00
2.061437910092470904e+00
2.024499282815027001e+00
2.024499282815027001e+00
2.008936307870723859e+00
2.033499557481612818e+00
2.033499557481612818e+00
2.066313058870204777e+00
2.066313058870204777e+00
2.069875667592394830e+00
2.123127292703024249e+00
2.123127292703024249e+00
2.130065004425183872e+00
2.064062990203558545e+00
2.064062990203558545e+00
2.061625415814691387e+00
2.061625415814691387e+00
2.093688894314401416e+00
2.075313333536790150e+00
2.075313333536790150e+00
2.050375072481459782e+00
2.050375072481459782e+00
2.053750175481429796e+00
2.060500381481368493e+00
2.060500381481368493e+00
2.032937040314951371e+00
2.032937040314951371e+00
2.054125186925870761e+00
2.063125461592455689e+00
2.063125461592455689e+00
2.060312875759148010e+00
2.060312875759148010e+00
2.054875209814752690e+00
2.031249488814966586e+00
2.031249488814966586e+00
2.052437635425885976e+00
2.057125278481399366e+00
2.057125278481399366e+00
2.046437452314828764e+00
2.046437452314828764e+00
2.025249305703909375e+00
2.020561662648396428e+00
2.020561662648396428e+00
2.036874660481581945e+00
2.036874660481581945e+00
2.054125186925870761e+00
2.064062990203558545e+00
2.064062990203558545e+00
2.087313699758903685e+00
2.087313699758903685e+00
2.093876400036621899e+00
2.066313058870204777e+00
2.066313058870204777e+00
2.081126010925626435e+00
2.081126010925626435e+00
2.084876125370036970e+00
2.090126285592211808e+00
2.090126285592211808e+00
2.068000610370189563e+00
2.028436902981658463e+00
2.028436902981658463e+00
2.059562852870265637e+00
2.059562852870265637e+00
2.060125370036927084e+00
2.055062715536973172e+00
2.055062715536973172e+00
2.046624958037049247e+00
2.046624958037049247e+00
2.035374614703817642e+00
2.033499557481612818e+00
2.033499557481612818e+00
2.023749259926145072e+00
2.023749259926145072e+00
2.069500656147953865e+00
2.081876033814508364e+00
2.081876033814508364e+00
2.050000061037018817e+00
2.050000061037018817e+00
2.049062532425916405e+00
2.053937681203650278e+00
2.053937681203650278e+00
2.063312967314676172e+00
2.063312967314676172e+00
2.050750083925901190e+00
2.040624774925992480e+00
2.040624774925992480e+00
2.026561845759453195e+00
2.042499832148198191e+00
2.042499832148198191e+00
2.083001068147831703e+00
2.083001068147831703e+00
2.083563585314493150e+00
2.065188024536881883e+00
2.065188024536881883e+00
2.057500289925840331e+00
2.057500289925840331e+00
2.074000793481246330e+00
2.058625324259163225e+00
2.058625324259163225e+00
2.024874294259468410e+00
2.024874294259468410e+00
2.039687246314890068e+00
2.071000701925717724e+00
2.071000701925717724e+00
2.061437910092470904e+00
2.055625232703635064e+00
2.055625232703635064e+00
2.069500656147953865e+00
2.069500656147953865e+00
2.088438734092227023e+00
2.081313516647846917e+00
2.081313516647846917e+00
2.076813379314554453e+00
2.076813379314554453e+00
2.102501663258766751e+00
2.082438550981169811e+00
2.082438550981169811e+00
2.076250862147892562e+00
2.030874477370525177e+00
2.030874477370525177e+00
2.038187200537125765e+00
2.038187200537125765e+00
2.062375438703573760e+00
2.060875392925809457e+00
2.060875392925809457e+00
2.074938322092349186e+00
2.074938322092349186e+00
2.074938322092349186e+00
2.079063447981200685e+00
2.079063447981200685e+00
2.037624683370464318e+00
2.037624683370464318e+00
2.045874935148167761e+00
2.047187475203710694e+00
2.047187475203710694e+00
2.032937040314951371e+00
2.053000152592547423e+00
2.053000152592547423e+00
2.091813837092196593e+00
2.091813837092196593e+00
2.077563402203436382e+00
2.051125095370342155e+00
2.051125095370342155e+00
2.030499465926084213e+00
2.030499465926084213e+00
2.049250038148136888e+00
2.072313241981261545e+00
2.072313241981261545e+00
2.060312875759148010e+00
2.059750358592486119e+00
2.059750358592486119e+00
2.042687337870418673e+00
2.042687337870418673e+00
2.062187932981353278e+00
2.059187841425824672e+00
2.059187841425824672e+00
2.061812921536912313e+00
2.061812921536912313e+00
2.055062715536973172e+00
2.043999877925962494e+00
2.043999877925962494e+00
2.064062990203558545e+00
2.064062990203558545e+00
2.050375072481459782e+00
2.051500106814783120e+00
2.051500106814783120e+00
2.080188482314524023e+00
2.080188482314524023e+00
2.079250953703421168e+00
2.066313058870204777e+00
2.066313058870204777e+00
2.068000610370189563e+00
2.064250495925779028e+00
2.064250495925779028e+00
2.072500747703482027e+00
2.072500747703482027e+00
2.062562944425794242e+00
2.049812555314798335e+00
2.049812555314798335e+00
2.057125278481399366e+00
2.057125278481399366e+00
2.060687887203588975e+00
2.077938413647877791e+00
2.077938413647877791e+00
2.055812738425855546e+00
2.055812738425855546e+00
2.074000793481246330e+00
2.101189123203222930e+00
2.101189123203222930e+00
2.114127018036439321e+00
2.114127018036439321e+00
2.120877224036378017e+00
2.060312875759148010e+00
2.060312875759148010e+00
2.031249488814966586e+00
2.031249488814966586e+00
2.045687429425947279e+00
2.055812738425855546e+00
2.055812738425855546e+00
2.043437360759300603e+00
2.030686971648304695e+00
2.030686971648304695e+00
2.014561479537339217e+00
2.014561479537339217e+00
2.030499465926084213e+00
2.040999786370433888e+00
2.040999786370433888e+00
2.058250312814721816e+00
2.058250312814721816e+00
2.069125644703512901e+00
2.093126377147739969e+00
2.093126377147739969e+00
2.103626697592089645e+00
2.103626697592089645e+00
2.083563585314493150e+00
2.047187475203710694e+00
2.047187475203710694e+00
2.029936948759422766e+00
2.029936948759422766e+00
2.068750633259071936e+00
2.065750541703543330e+00
2.065750541703543330e+00
2.065938047425763813e+00
2.065938047425763813e+00
2.066500564592425260e+00
2.073063264870143918e+00
2.073063264870143918e+00
2.061250404370250422e+00
2.048125003814813549e+00
2.048125003814813549e+00
2.044374889370403459e+00
2.044374889370403459e+00
2.009686330759605788e+00
2.014748985259559699e+00
2.014748985259559699e+00
2.054125186925870761e+00
2.054125186925870761e+00
2.096876491592150504e+00
2.119939695425275605e+00
2.119939695425275605e+00
2.161378460036011973e+00
2.161378460036011973e+00
2.120502212591937052e+00
2.083001068147831703e+00
2.083001068147831703e+00
2.037437177648243392e+00
2.025249305703909375e+00
2.025249305703909375e+00
2.028624408703878945e+00
2.028624408703878945e+00
2.063500473036897098e+00
2.060125370036927084e+00
2.060125370036927084e+00
2.077375896481215900e+00
2.077375896481215900e+00
2.093876400036621899e+00
2.047749992370372585e+00
2.047749992370372585e+00
2.045499923703726353e+00
2.045499923703726353e+00
2.038562211981566730e+00
2.056187749870296511e+00
2.056187749870296511e+00
2.065188024536881883e+00
2.065188024536881883e+00
2.054125186925870761e+00
2.044374889370403459e+00
2.044374889370403459e+00
2.046062440870388244e+00
2.055625232703635064e+00
2.055625232703635064e+00
2.063875484481338063e+00
2.063875484481338063e+00
2.066875576036866669e+00
2.039499740592669585e+00
2.039499740592669585e+00
2.073813287759025847e+00
2.073813287759025847e+00
2.072313241981261545e+00
2.059000335703604190e+00
2.059000335703604190e+00
2.066875576036866669e+00
2.066875576036866669e+00
2.088251228370006540e+00
2.070250679036835795e+00
2.070250679036835795e+00
2.047374980925931620e+00
2.029561937314981801e+00
2.029561937314981801e+00
2.034624591814935712e+00
2.034624591814935712e+00
2.038562211981566730e+00
2.029186925870540392e+00
2.029186925870540392e+00
2.056375255592516993e+00
2.056375255592516993e+00
2.064438001647999510e+00
2.080563493758964988e+00
2.080563493758964988e+00
2.089938779869991325e+00
2.089938779869991325e+00
2.067063081759087151e+00
2.028811914426099428e+00
2.028811914426099428e+00
2.062375438703573760e+00
2.062375438703573760e+00
2.088438734092227023e+00
2.059750358592486119e+00
2.059750358592486119e+00
2.058625324259163225e+00
2.044749900814844423e+00
2.044749900814844423e+00
2.030311960203863730e+00
2.030311960203863730e+00
2.022624225592822178e+00
2.074750816370128703e+00
2.074750816370128703e+00
2.113564500869777874e+00
2.113564500869777874e+00
2.123689809869686140e+00
2.093126377147739969e+00
2.093126377147739969e+00
2.056937772759178884e+00
2.056937772759178884e+00
2.041562303537095335e+00
2.023936765648365554e+00
2.023936765648365554e+00
2.016436536759544484e+00
2.016436536759544484e+00
2.026374340037232713e+00
2.054125186925870761e+00
2.054125186925870761e+00
2.066500564592425260e+00
2.091626331369976111e+00
2.091626331369976111e+00
2.086001159703360308e+00
2.086001159703360308e+00
2.093501388592180934e+00
2.095938962981048093e+00
2.095938962981048093e+00
2.053000152592547423e+00
2.053000152592547423e+00
2.045687429425947279e+00
2.046999969481490211e+00
2.046999969481490211e+00
2.006123722037415735e+00
2.006123722037415735e+00
2.029374431592760875e+00
2.040437269203771997e+00
2.040437269203771997e+00
2.079625965147862576e+00
2.079625965147862576e+00
2.079625965147862576e+00
2.093688894314401416e+00
2.093688894314401416e+00
2.116377086703085553e+00
2.092376354258858040e+00
2.092376354258858040e+00
2.044374889370403459e+00
2.044374889370403459e+00
2.009123813592944341e+00
2.012498916592913467e+00
2.012498916592913467e+00
2.037437177648243392e+00
2.037437177648243392e+00
2.054875209814752690e+00
2.081313516647846917e+00
2.081313516647846917e+00
2.069313150425733383e+00
2.069313150425733383e+00
2.040624774925992480e+00
2.008748802148503376e+00
2.008748802148503376e+00
2.043437360759300603e+00
2.043437360759300603e+00
2.072875759147922992e+00
2.099876583147679110e+00
2.099876583147679110e+00
2.088626239814447505e+00
2.067438093203528116e+00
2.067438093203528116e+00
2.040624774925992480e+00
2.040624774925992480e+00
2.068750633259071936e+00
2.082251045258949329e+00
2.082251045258949329e+00
2.072125736259041062e+00
2.072125736259041062e+00
2.061250404370250422e+00
2.062562944425794242e+00
2.062562944425794242e+00
2.071000701925717724e+00
2.071000701925717724e+00
2.077938413647877791e+00
2.078875942258980203e+00
2.078875942258980203e+00
2.050937589648121673e+00
2.008748802148503376e+00
2.008748802148503376e+00
2.050937589648121673e+00
2.050937589648121673e+00
2.029186925870540392e+00
2.032562028870509963e+00
2.032562028870509963e+00
2.054312692648091243e+00
2.054312692648091243e+00
2.086563676870021755e+00
2.102126651814325342e+00
2.102126651814325342e+00
2.064625507370219992e+00
2.064625507370219992e+00
2.051312601092562637e+00
2.050375072481459782e+00
2.050375072481459782e+00
2.053000152592547423e+00
2.073063264870143918e+00
2.073063264870143918e+00
2.068938138981292418e+00
2.068938138981292418e+00
2.088063722647786058e+00
2.051125095370342155e+00
2.051125095370342155e+00
2.011561387981810611e+00
2.011561387981810611e+00
2.035562120426038124e+00
2.055625232703635064e+00
2.055625232703635064e+00
2.048500015259254514e+00
2.046999969481490211e+00
2.046999969481490211e+00
2.060500381481368493e+00
2.060500381481368493e+00
2.033687063203833301e+00
2.038562211981566730e+00
2.038562211981566730e+00
2.062562944425794242e+00
2.062562944425794242e+00
2.079438459425641650e+00
2.089938779869991325e+00
2.089938779869991325e+00
2.096688985869930022e+00
2.096688985869930022e+00
2.104001709036531054e+00
2.068000610370189563e+00
2.068000610370189563e+00
2.062000427259132795e+00
2.062000427259132795e+00
2.067438093203528116e+00
2.040999786370433888e+00
2.040999786370433888e+00
2.034249580370494748e+00
2.021124179815057875e+00
2.021124179815057875e+00
2.052812646870326940e+00
2.052812646870326940e+00
2.066688070314646186e+00
2.008561296426282894e+00
2.008561296426282894e+00
2.019624134037293572e+00
2.019624134037293572e+00
2.031999511703848516e+00
2.055062715536973172e+00
2.055062715536973172e+00
2.047562486648152102e+00
2.053750175481429796e+00
2.053750175481429796e+00
2.073250770592364400e+00
2.073250770592364400e+00
2.088063722647786058e+00
2.072500747703482027e+00
2.072500747703482027e+00
2.080000976592303541e+00
2.080000976592303541e+00
2.103626697592089645e+00
2.079063447981200685e+00
2.079063447981200685e+00
2.067250587481307633e+00
2.067250587481307633e+00
2.057125278481399366e+00
2.038937223426007694e+00
2.038937223426007694e+00
2.042874843592639156e+00
2.042874843592639156e+00
2.046812463759269729e+00
2.085813653981139382e+00
2.085813653981139382e+00
2.058625324259163225e+00
2.058625324259163225e+00
2.026936857203894160e+00
2.025624317148350340e+00
2.025624317148350340e+00
2.051312601092562637e+00
2.034624591814935712e+00
2.034624591814935712e+00
2.001061067537461380e+00
2.001061067537461380e+00
2.043437360759300603e+00
2.096126468703268575e+00
2.096126468703268575e+00
2.090313791314432290e+00
2.090313791314432290e+00
2.053187658314767905e+00
2.032749534592730889e+00
2.032749534592730889e+00
2.044937406537064906e+00
2.044937406537064906e+00
2.107189306314279698e+00
2.111501937925351680e+00
2.111501937925351680e+00
2.111501937925351680e+00
2.111501937925351680e+00
2.083751091036713632e+00
2.053750175481429796e+00
2.053750175481429796e+00
2.040624774925992480e+00
2.021686696981719766e+00
2.021686696981719766e+00
2.040999786370433888e+00
2.040999786370433888e+00
2.082063539536728847e+00
2.057500289925840331e+00
2.057500289925840331e+00
2.016811548203985893e+00
2.016811548203985893e+00
2.032562028870509963e+00
2.084876125370036970e+00
2.084876125370036970e+00
2.120314706869716570e+00
2.120314706869716570e+00
2.106064271980956359e+00
2.045124912259285388e+00
2.045124912259285388e+00
1.998998504593035630e+00
2.011373882259590129e+00
2.011373882259590129e+00
2.045874935148167761e+00
2.045874935148167761e+00
2.034999603259376677e+00
2.072688253425702509e+00
2.072688253425702509e+00
2.110001892147587377e+00
2.110001892147587377e+00
2.056562761314737475e+00
2.049437543870357370e+00
2.049437543870357370e+00
2.053750175481429796e+00
2.053750175481429796e+00
2.047749992370372585e+00
2.083188573870052185e+00
2.083188573870052185e+00
2.019249122592852608e+00
2.022811731315042216e+00
2.022811731315042216e+00
2.041187292092654371e+00
2.041187292092654371e+00
2.043812372203741567e+00
2.089001251258888470e+00
2.089001251258888470e+00
2.094438917203283790e+00
2.094438917203283790e+00
2.031436994537187068e+00
2.011748893704031538e+00
2.011748893704031538e+00
2.034249580370494748e+00
2.034249580370494748e+00
2.063500473036897098e+00
2.049437543870357370e+00
2.049437543870357370e+00
2.021124179815057875e+00
2.021124179815057875e+00
2.038187200537125765e+00
2.061062898648029940e+00
2.061062898648029940e+00
2.027124362926114642e+00
2.027124362926114642e+00
2.054125186925870761e+00
2.057875301370280852e+00
2.057875301370280852e+00
2.087688711203345093e+00
2.104939237647633021e+00
2.104939237647633021e+00
2.136252693258461566e+00
2.136252693258461566e+00
2.092751365703299449e+00
2.038374706259346247e+00
2.038374706259346247e+00
2.045499923703726353e+00
2.045499923703726353e+00
2.002936124759666647e+00
2.017186559648426858e+00
2.017186559648426858e+00
2.077375896481215900e+00
2.077375896481215900e+00
2.075313333536790150e+00
2.073250770592364400e+00
2.073250770592364400e+00
2.100814111758781966e+00
2.100814111758781966e+00
2.061437910092470904e+00
2.069125644703512901e+00
2.069125644703512901e+00
2.020186651203955464e+00
2.047749992370372585e+00
2.047749992370372585e+00
2.059187841425824672e+00
2.059187841425824672e+00
2.072875759147922992e+00
2.052250129703665493e+00
2.052250129703665493e+00
2.072500747703482027e+00
2.072500747703482027e+00
2.080188482314524023e+00
2.063687978759117581e+00
2.063687978759117581e+00
2.058812829981383707e+00
2.058812829981383707e+00
2.060312875759148010e+00
2.051500106814783120e+00
2.051500106814783120e+00
2.017936582537308787e+00
2.017936582537308787e+00
1.998810998870815148e+00
1.989998229926450479e+00
1.989998229926450479e+00
2.002748619037446165e+00
2.002748619037446165e+00
2.077563402203436382e+00
2.084688619647816488e+00
2.084688619647816488e+00
2.072125736259041062e+00
2.143752922147282192e+00
2.143752922147282192e+00
2.098939054536576698e+00
2.098939054536576698e+00
2.025811822870570822e+00
1.986248115482039944e+00
1.986248115482039944e+00
2.031624500259407551e+00
2.031624500259407551e+00
2.059000335703604190e+00
2.072125736259041062e+00
2.072125736259041062e+00
2.060875392925809457e+00
2.060875392925809457e+00
2.051125095370342155e+00
2.064062990203558545e+00
2.064062990203558545e+00
2.114877040925321250e+00
2.101001617481002448e+00
2.101001617481002448e+00
1.999748527481917781e+00
2.003498641926328094e+00
2.003498641926328094e+00
2.057687795648060813e+00
2.060500381481368493e+00
2.060500381481368493e+00
2.067813104647969080e+00
2.067813104647969080e+00
2.134377636036255854e+00
2.166253608813745402e+00
2.166253608813745402e+00
2.068750633259071936e+00
2.068750633259071936e+00
2.034062074648274265e+00
2.069313150425733383e+00
2.069313150425733383e+00
2.068563127536851454e+00
2.068563127536851454e+00
2.067063081759087151e+00
2.064438001647999510e+00
2.064438001647999510e+00
2.056375255592516993e+00
2.070625690481276759e+00
2.070625690481276759e+00
2.050750083925901190e+00
2.050750083925901190e+00
2.040999786370433888e+00
2.024499282815027001e+00
2.024499282815027001e+00
2.011186376537369647e+00
2.011186376537369647e+00
2.012123905148472502e+00
1.978935392315439357e+00
1.978935392315439357e+00
2.034437086092715230e+00
2.071375713370158689e+00
2.071375713370158689e+00
2.149003082369457029e+00
2.149003082369457029e+00
2.171503769035920239e+00
2.098751548814355772e+00
2.098751548814355772e+00
2.059562852870265637e+00
2.059562852870265637e+00
1.994123355815301979e+00
1.973685232093264519e+00
1.973685232093264519e+00
1.985123081148716606e+00
1.985123081148716606e+00
2.056187749870296511e+00
2.054875209814752690e+00
2.054875209814752690e+00
2.064250495925779028e+00
2.064250495925779028e+00
2.115627063814203623e+00
2.178253975035859380e+00
2.178253975035859380e+00
2.146190496536149350e+00
2.067813104647969080e+00
2.067813104647969080e+00
2.009686330759605788e+00
2.088813745536667987e+00
2.088813745536667987e+00
2.091063814203314664e+00
2.092001342814417075e+00
2.092001342814417075e+00
2.036874660481581945e+00
2.036874660481581945e+00
1.990560747093111926e+00
1.975935300759910973e+00
1.975935300759910973e+00
1.980435438093203437e+00
1.980435438093203437e+00
2.056750267036957958e+00
2.092376354258858040e+00
2.092376354258858040e+00
2.067813104647969080e+00
2.067813104647969080e+00
2.091813837092196593e+00
2.096876491592150504e+00
2.096876491592150504e+00
2.093126377147739969e+00
2.040624774925992480e+00
2.040624774925992480e+00
2.074000793481246330e+00
2.074000793481246330e+00
2.049437543870357370e+00
1.998623493148594665e+00
1.998623493148594665e+00
2.003498641926328094e+00
2.003498641926328094e+00
2.021124179815057875e+00
2.043249855037080120e+00
2.043249855037080120e+00
2.053375164036988387e+00
2.067625598925748598e+00
2.067625598925748598e+00
2.082251045258949329e+00
2.082251045258949329e+00
2.132690084536271069e+00
2.093501388592180934e+00
2.093501388592180934e+00
2.110939420758690233e+00
2.110939420758690233e+00
2.098564043092135289e+00
2.037812189092684800e+00
2.037812189092684800e+00
2.091251319925535146e+00
2.091251319925535146e+00
2.100626606036561483e+00
2.045124912259285388e+00
2.045124912259285388e+00
2.045874935148167761e+00
2.045874935148167761e+00
2.094438917203283790e+00
2.007436262092959556e+00
2.007436262092959556e+00
2.028811914426099428e+00
2.140377819147312621e+00
2.140377819147312621e+00
2.112439466536454535e+00
2.112439466536454535e+00
2.098001525925473842e+00
1.677801202429273442e+00
1.677801202429273442e+00
1.882557451094088563e+00
1.882557451094088563e+00
2.024499282815027001e+00
2.353571825312051669e+00
2.353571825312051669e+00
2.141690359202856442e+00
2.141502853480635959e+00
2.141502853480635959e+00
2.128377452925199087e+00
2.128377452925199087e+00
2.176566423535874595e+00
2.220817773979919085e+00
2.220817773979919085e+00
2.126689901425214746e+00
2.126689901425214746e+00
2.055812738425855546e+00
2.012311410870692985e+00
2.012311410870692985e+00
2.031999511703848516e+00
2.031999511703848516e+00
1.943121799371318792e+00
2.026374340037232713e+00
2.026374340037232713e+00
2.013998962370677770e+00
2.085813653981139382e+00
2.085813653981139382e+00
1.983623035370952525e+00
1.983623035370952525e+00
2.085626148258918899e+00
2.108689352092044000e+00
2.108689352092044000e+00
2.115814569536424106e+00
2.115814569536424106e+00
2.105689260536515395e+00
2.085813653981139382e+00
2.085813653981139382e+00
2.102501663258766751e+00
2.102501663258766751e+00
2.050187566759239299e+00
2.076438367870113488e+00
2.076438367870113488e+00
2.170566240424817828e+00
2.070438184759056277e+00
2.070438184759056277e+00
1.968435071871089903e+00
1.968435071871089903e+00
1.965059968871120333e+00
2.092563859981078966e+00
2.092563859981078966e+00
2.118439649647511303e+00
2.118439649647511303e+00
2.032187017426068998e+00
1.941809259315775193e+00
1.941809259315775193e+00
1.962247383037812432e+00
1.962247383037812432e+00
2.124627338480788552e+00
2.116564592425305591e+00
2.116564592425305591e+00
2.022811731315042216e+00
2.022811731315042216e+00
2.073625782036805365e+00
2.220067751091036712e+00
2.220067751091036712e+00
2.120877224036378017e+00
2.120877224036378017e+00
2.104189214758751536e+00
2.046249946592608282e+00
2.046249946592608282e+00
1.954559648426770879e+00
2.092376354258858040e+00
2.092376354258858040e+00
2.188379284035767647e+00
2.188379284035767647e+00
2.039499740592669585e+00
1.918933561204870797e+00
1.918933561204870797e+00
2.077563402203436382e+00
2.077563402203436382e+00
2.174503860591448845e+00
2.146753013702810797e+00
2.146753013702810797e+00
2.031999511703848516e+00
2.031999511703848516e+00
2.033499557481612818e+00
2.066313058870204777e+00
2.066313058870204777e+00
2.038937223426007694e+00
1.985123081148716606e+00
1.985123081148716606e+00
1.964684957426679368e+00
1.964684957426679368e+00
1.982122989593188223e+00
2.052062623981445011e+00
2.052062623981445011e+00
2.127627430036317158e+00
2.127627430036317158e+00
2.085813653981139382e+00
2.081876033814508364e+00
2.081876033814508364e+00
2.076250862147892562e+00
2.076250862147892562e+00
2.063687978759117581e+00
2.083751091036713632e+00
2.083751091036713632e+00
2.155753288369396170e+00
2.155753288369396170e+00
2.223630359813226764e+00
2.185754203924680450e+00
2.185754203924680450e+00
2.049062532425916405e+00
2.049062532425916405e+00
2.073813287759025847e+00
2.112251960814234053e+00
2.112251960814234053e+00
2.006311227759636218e+00
1.908995757927182790e+00
1.908995757927182790e+00
2.046437452314828764e+00
2.046437452314828764e+00
2.010998870815149164e+00
2.089563768425550361e+00
2.089563768425550361e+00
2.183316629535813735e+00
2.183316629535813735e+00
2.073250770592364400e+00
2.004811181981871915e+00
2.004811181981871915e+00
2.010998870815149164e+00
2.010998870815149164e+00
2.020374156926175946e+00
2.059750358592486119e+00
2.059750358592486119e+00
2.089376262703329878e+00
2.089376262703329878e+00
1.995060884426404613e+00
2.028811914426099428e+00
2.028811914426099428e+00
2.036124637592700015e+00
2.036124637592700015e+00
2.154065736869411385e+00
2.142440382091738371e+00
2.142440382091738371e+00
2.051500106814783120e+00
2.097251503036591469e+00
2.097251503036591469e+00
2.105876766258735877e+00
2.105876766258735877e+00
1.943871822260200721e+00
1.986435621204260427e+00
1.986435621204260427e+00
2.091626331369976111e+00
2.091626331369976111e+00
2.036312143314920498e+00
2.166628620258186366e+00
2.166628620258186366e+00
2.126314889980773337e+00
2.126314889980773337e+00
2.040437269203771997e+00
2.025061799981688893e+00
2.025061799981688893e+00
2.139627796258431136e+00
2.037999694814905283e+00
2.037999694814905283e+00
1.984185552537614194e+00
1.984185552537614194e+00
1.970685140537736135e+00
1.897182897427289516e+00
1.897182897427289516e+00
2.112251960814234053e+00
2.112251960814234053e+00
2.208817407757805107e+00
2.254006286812952009e+00
2.254006286812952009e+00
2.041187292092654371e+00
2.041187292092654371e+00
2.018124088259529714e+00
1.977997863704336723e+00
1.977997863704336723e+00
2.092376354258858040e+00
2.171878780480361648e+00
2.171878780480361648e+00
2.046624958037049247e+00
2.046624958037049247e+00
1.983060518204291078e+00
1.972560197759941625e+00
1.972560197759941625e+00
2.151440656758324188e+00
2.151440656758324188e+00
2.179566515091402756e+00
2.068375621814630971e+00
2.068375621814630971e+00
2.026936857203894160e+00
2.026936857203894160e+00
2.099126560258797181e+00
2.017936582537308787e+00
2.017936582537308787e+00
1.957747245704519745e+00
1.957747245704519745e+00
2.038187200537125765e+00
2.057687795648060813e+00
2.057687795648060813e+00
2.058437818536942299e+00
2.058437818536942299e+00
2.162691000091555793e+00
2.239755851924192243e+00
2.239755851924192243e+00
2.143190404980620745e+00
2.143190404980620745e+00
2.153128208258308529e+00
2.062000427259132795e+00
2.062000427259132795e+00
1.964872463148899850e+00
1.834930997650074724e+00
1.834930997650074724e+00
1.966185003204443671e+00
1.966185003204443671e+00
1.893245277260658721e+00
1.876557267983031796e+00
1.876557267983031796e+00
2.304445326090273749e+00
2.304445326090273749e+00
2.382822717978454019e+00
2.105501754814294912e+00
2.105501754814294912e+00
1.966935026093325822e+00
1.966935026093325822e+00
1.962059877315591949e+00
2.121439741203039464e+00
2.121439741203039464e+00
2.076250862147892562e+00
2.092001342814417075e+00
2.092001342814417075e+00
2.085626148258918899e+00
2.085626148258918899e+00
1.996185918759727951e+00
2.068000610370189563e+00
2.068000610370189563e+00
1.996185918759727951e+00
1.996185918759727951e+00
1.942934293649098310e+00
2.020561662648396428e+00
2.020561662648396428e+00
2.405135898922696747e+00
2.405135898922696747e+00
2.218942716757713818e+00
2.060125370036927084e+00
2.060125370036927084e+00
2.083001068147831703e+00
2.083001068147831703e+00
2.294132511368144556e+00
2.178628986480300345e+00
2.178628986480300345e+00
1.918933561204870797e+00
1.918933561204870797e+00
1.959059785760063566e+00
2.034812097537156195e+00
2.034812097537156195e+00
2.034062074648274265e+00
1.952684591204565612e+00
1.952684591204565612e+00
1.909183263649403273e+00
1.909183263649403273e+00
1.834180974761192573e+00
2.056000244148076028e+00
2.056000244148076028e+00
2.278757042146061895e+00
2.278757042146061895e+00
2.164753563035981099e+00
2.143190404980620745e+00
2.143190404980620745e+00
2.150128116702780368e+00
2.150128116702780368e+00
2.109814386425366894e+00
1.944246833704641908e+00
1.944246833704641908e+00
2.035749626148258606e+00
2.035749626148258606e+00
2.112439466536454535e+00
2.124252327036347587e+00
2.124252327036347587e+00
2.048125003814813549e+00
2.098751548814355772e+00
1.926621295815912349e+00
1.926621295815912349e+00
2.137377727591784460e+00
2.137377727591784460e+00
1.992248298593096711e+00
1.953809625537888728e+00
1.953809625537888728e+00
2.084313608203375079e+00
2.084313608203375079e+00
2.044374889370403459e+00
2.129127475814081016e+00
2.129127475814081016e+00
2.137565233314004942e+00
2.137565233314004942e+00
2.134377636036255854e+00
2.296757591479232197e+00
2.296757591479232197e+00
2.257568895535142062e+00
2.257568895535142062e+00
2.043437360759300603e+00
1.829305825983458922e+00
1.829305825983458922e+00
1.989435712759789032e+00
1.989435712759789032e+00
2.118439649647511303e+00
2.134377636036255854e+00
2.134377636036255854e+00
2.118814661091952267e+00
1.986998138370922096e+00
1.986998138370922096e+00
2.011373882259590129e+00
2.011373882259590129e+00
1.938246650593584919e+00
1.864931913205359004e+00
1.864931913205359004e+00
1.712864772484511855e+00
1.712864772484511855e+00
1.919871089815973431e+00
2.275194433423871843e+00
2.275194433423871843e+00
2.172253791924802613e+00
2.172253791924802613e+00
2.065000518814661401e+00
2.177691457869197489e+00
2.177691457869197489e+00
2.164753563035981099e+00
2.054687704092532208e+00
2.054687704092532208e+00
2.061062898648029940e+00
2.061062898648029940e+00
1.948559465315714112e+00
2.082626056703390294e+00
2.082626056703390294e+00
2.129502487258521981e+00
2.129502487258521981e+00
2.235630726035340299e+00
2.143190404980620745e+00
2.016811548203985893e+00
2.016811548203985893e+00
2.411323587755973996e+00
2.411323587755973996e+00
1.989060701315347846e+00
2.106814294869838289e+00
2.106814294869838289e+00
1.962247383037812432e+00
1.962247383037812432e+00
1.916870998260445047e+00
2.033687063203833301e+00
2.033687063203833301e+00
1.994685872981963648e+00
2.035562120426038124e+00
2.035562120426038124e+00
2.066313058870204777e+00
2.066313058870204777e+00
2.075688344981231115e+00
2.205629810480056463e+00
2.205629810480056463e+00
1.957372234260078780e+00
1.957372234260078780e+00
1.975185277871028822e+00
2.211254982146671821e+00
2.211254982146671821e+00
2.360697042756431774e+00
2.360697042756431774e+00
2.220255256813257638e+00
2.027124362926114642e+00
2.027124362926114642e+00
1.894557817316202319e+00
1.894557817316202319e+00
1.676301156651509139e+00
1.927933835871455948e+00
1.927933835871455948e+00
2.032374523148289480e+00
1.951559556871242496e+00
1.951559556871242496e+00
1.833430951872310644e+00
1.833430951872310644e+00
1.785616992706076100e+00
2.100814111758781966e+00
2.100814111758781966e+00
2.214442579424420909e+00
2.214442579424420909e+00
2.247256080813012868e+00
2.655643543809320661e+00
2.655643543809320661e+00
2.141877864925076924e+00
2.141877864925076924e+00
2.199817133091219734e+00
2.362197088534196077e+00
2.362197088534196077e+00
2.068375621814630971e+00
1.841868709372234347e+00
1.841868709372234347e+00
1.570360423596911525e+00
1.570360423596911525e+00
1.978560380870998392e+00
2.373634937589648164e+00
2.373634937589648164e+00
2.297320108645893644e+00
2.297320108645893644e+00
2.123689809869686140e+00
1.890057679982909855e+00
1.890057679982909855e+00
1.890807702871791562e+00
1.890807702871791562e+00
1.591923581652272102e+00
1.649487838373973947e+00
1.649487838373973947e+00
2.193254432813501520e+00
2.193254432813501520e+00
2.084688619647816488e+00
2.254381298257393418e+00
2.254381298257393418e+00
1.955122165593432548e+00
1.862119327372051103e+00
1.862119327372051103e+00
2.130440015869624837e+00
2.130440015869624837e+00
2.185191686758019003e+00
2.025249305703909375e+00
2.025249305703909375e+00
2.243318460646382295e+00
2.243318460646382295e+00
2.482388256477553679e+00
2.324695944090090727e+00
2.324695944090090727e+00
2.216880153813287624e+00
2.216880153813287624e+00
1.844681295205542026e+00
2.018874111148411643e+00
2.018874111148411643e+00
2.037062166203802427e+00
2.037062166203802427e+00
1.967310037537766565e+00
1.961122348704489093e+00
1.961122348704489093e+00
2.052062623981445011e+00
2.001436078981902345e+00
2.001436078981902345e+00
1.822930631427961190e+00
1.822930631427961190e+00
1.815055391094698933e+00
2.150503128147221332e+00
2.150503128147221332e+00
2.270881801812799416e+00
2.270881801812799416e+00
1.998623493148594665e+00
2.029186925870540392e+00
2.029186925870540392e+00
1.945559373760185506e+00
1.945559373760185506e+00
1.699926877651295465e+00
1.749615894039735275e+00
1.749615894039735275e+00
2.123502304147465658e+00
2.695019745475630835e+00
2.695019745475630835e+00
2.517639332255012796e+00
2.517639332255012796e+00
2.153878231147190458e+00
1.763491317484054077e+00
1.763491317484054077e+00
1.818617999816888986e+00
1.818617999816888986e+00
1.845993835261085847e+00
1.963559923093356252e+00
1.963559923093356252e+00
2.093501388592180934e+00
2.093501388592180934e+00
2.558703085421308199e+00
2.394260567033906106e+00
2.394260567033906106e+00
2.177316446424756524e+00
2.177316446424756524e+00
2.111876949369793088e+00
1.965059968871120333e+00
1.965059968871120333e+00
1.930371410260322884e+00
1.529859187597277792e+00
1.529859187597277792e+00
1.565860286263618839e+00
1.565860286263618839e+00
2.018874111148411643e+00
2.503951414532914033e+00
2.503951414532914033e+00
2.230193060090945423e+00
2.230193060090945423e+00
1.965809991760002484e+00
1.537171910763878380e+00
1.537171910763878380e+00
1.968060060426648716e+00
1.968060060426648716e+00
2.578016174810022321e+00
2.382822717978454019e+00
2.382822717978454019e+00
2.220255256813257638e+00
2.220255256813257638e+00
1.758053651539658757e+00
1.823868160039063824e+00
1.823868160039063824e+00
2.033312051759392336e+00
2.416198736533707869e+00
2.416198736533707869e+00
2.338946378978850937e+00
2.338946378978850937e+00
1.976497817926572642e+00
2.194754478591265823e+00
2.194754478591265823e+00
1.925121250038148268e+00
1.925121250038148268e+00
1.842618732261116499e+00
2.072500747703482027e+00
2.072500747703482027e+00
2.093688894314401416e+00
2.093688894314401416e+00
1.985685598315378275e+00
2.551202856532486685e+00
2.551202856532486685e+00
2.258881435590685438e+00
2.258881435590685438e+00
1.614611774040956016e+00
1.571672963652455346e+00
1.571672963652455346e+00
1.762741294595171926e+00
1.762741294595171926e+00
2.098939054536576698e+00
2.491576036866359534e+00
2.491576036866359534e+00
2.354696859645375007e+00
2.602016907254249833e+00
2.602016907254249833e+00
2.494951139866329104e+00
2.494951139866329104e+00
1.947434430982390996e+00
1.227412457655568279e+00
1.227412457655568279e+00
1.564547746208075241e+00
1.564547746208075241e+00
2.111689443647572162e+00
2.042874843592639156e+00
2.042874843592639156e+00
1.560235114597003037e+00
1.560235114597003037e+00
1.525921567430646775e+00
2.687519516586810209e+00
2.687519516586810209e+00
2.865837458418531103e+00
2.865837458418531103e+00
2.266381664479506952e+00
1.800429944761497980e+00
1.800429944761497980e+00
2.322445875423444495e+00
2.085813653981139382e+00
2.085813653981139382e+00
1.819555528427991620e+00
1.819555528427991620e+00
1.662800744651631080e+00
1.699926877651295465e+00
1.699926877651295465e+00
1.937121616260262025e+00
1.937121616260262025e+00
2.431949217200232383e+00
2.190629352702413879e+00
2.190629352702413879e+00
2.237505783257545566e+00
2.237505783257545566e+00
2.156503311258278099e+00
2.258881435590685438e+00
2.258881435590685438e+00
2.076625873592333971e+00
2.076625873592333971e+00
2.186691732535783306e+00
1.796492324594866963e+00
1.796492324594866963e+00
1.541297036652729879e+00
1.541297036652729879e+00
2.182566606646931362e+00
1.613861751152073865e+00
1.613861751152073865e+00
1.806430127872554747e+00
2.245381023590808045e+00
2.245381023590808045e+00
2.168316171758171151e+00
2.168316171758171151e+00
2.389385418256172233e+00
2.214255073702200427e+00
2.214255073702200427e+00
1.689051545762505047e+00
1.689051545762505047e+00
2.188566789757988129e+00
2.229818048646504014e+00
2.229818048646504014e+00
2.145440473647266977e+00
2.187816766869105756e+00
2.187816766869105756e+00
2.117127109591967482e+00
2.117127109591967482e+00
2.052437635425885976e+00
1.779241798150578369e+00
1.779241798150578369e+00
1.995810907315286764e+00
1.995810907315286764e+00
2.570703451643421733e+00
2.591141575365459193e+00
2.591141575365459193e+00
2.256818872646260132e+00
2.256818872646260132e+00
2.635205420087282757e+00
2.267506698812830290e+00
2.267506698812830290e+00
1.787867061372722555e+00
1.787867061372722555e+00
1.325102938932462671e+00
1.448481704153569138e+00
1.448481704153569138e+00
1.443981566820276674e+00
1.545047151097140414e+00
1.545047151097140414e+00
2.182941618091372327e+00
2.182941618091372327e+00
2.678331736198004354e+00
2.600329355754265048e+00
2.600329355754265048e+00
2.345321573534348669e+00
2.345321573534348669e+00
1.527046601763969891e+00
1.889682668538468668e+00
1.889682668538468668e+00
2.389572923978392716e+00
2.389572923978392716e+00
2.601079378643146978e+00
2.175066377758110736e+00
2.175066377758110736e+00
1.746240791039765705e+00
1.746240791039765705e+00
1.800054933317056793e+00
2.131190038758506766e+00
2.131190038758506766e+00
1.964497451704458886e+00
1.855556627094332889e+00
1.855556627094332889e+00
2.166253608813745402e+00
2.166253608813745402e+00
1.944246833704641908e+00
2.665581347087008446e+00
2.665581347087008446e+00
2.515764275032807085e+00
2.515764275032807085e+00
1.917996032593768163e+00
1.632612323374126539e+00
1.632612323374126539e+00
1.806430127872554747e+00
1.806430127872554747e+00
1.870369579149754324e+00
1.845243812372203696e+00
1.845243812372203696e+00
1.726927701651051361e+00
1.726927701651051361e+00
1.848431409649952784e+00
2.044937406537064906e+00
2.044937406537064906e+00
2.081501022370067400e+00
2.081501022370067400e+00
2.170191228980376863e+00
2.022624225592822178e+00
2.022624225592822178e+00
1.755616077150792043e+00
1.902245551927244094e+00
1.902245551927244094e+00
2.313820612201300086e+00
2.313820612201300086e+00
2.249318643757439062e+00
1.918746055482650315e+00
1.918746055482650315e+00
1.873744682149723673e+00
1.873744682149723673e+00
1.653800469985045929e+00
1.880494888149662813e+00
1.880494888149662813e+00
2.185566698202459968e+00
2.185566698202459968e+00
2.021311685537278358e+00
2.313445600756859122e+00
2.313445600756859122e+00
2.561890682699057287e+00
2.309507980590228104e+00
2.309507980590228104e+00
2.570515945921201251e+00
2.570515945921201251e+00
2.694082216864528423e+00
2.584578875087740979e+00
2.584578875087740979e+00
2.175066377758110736e+00
2.175066377758110736e+00
1.650050355540635616e+00
1.735365459150975065e+00
1.735365459150975065e+00
1.462919644764549609e+00
1.462919644764549609e+00
1.517296304208502367e+00
1.617799371318704882e+00
1.617799371318704882e+00
2.023936765648365554e+00
2.023936765648365554e+00
2.154440748313852350e+00
2.190816858424634361e+00
2.190816858424634361e+00
2.163253517258217240e+00
1.908995757927182790e+00
1.908995757927182790e+00
1.762366283150730961e+00
1.762366283150730961e+00
2.236380748924222672e+00
2.326383495590075512e+00
2.326383495590075512e+00
2.218755211035493335e+00
2.218755211035493335e+00
1.938434156315805401e+00
1.628299691763054335e+00
1.628299691763054335e+00
1.780741843928342449e+00
1.780741843928342449e+00
1.976497817926572642e+00
2.324695944090090727e+00
2.324695944090090727e+00
2.273694387646107540e+00
2.223067842646564873e+00
2.223067842646564873e+00
2.163628528702658205e+00
2.163628528702658205e+00
2.093126377147739969e+00
1.916870998260445047e+00
1.916870998260445047e+00
2.093501388592180934e+00
2.093501388592180934e+00
2.085626148258918899e+00
1.875244727927487975e+00
1.875244727927487975e+00
1.729365276039918298e+00
1.729365276039918298e+00
2.088063722647786058e+00
1.995810907315286764e+00
1.995810907315286764e+00
2.485388348033082284e+00
2.485388348033082284e+00
2.516889309366130423e+00
2.302195257423627517e+00
2.302195257423627517e+00
1.859494247260963906e+00
1.859494247260963906e+00
1.764616351817377193e+00
1.919308572649311984e+00
1.919308572649311984e+00
2.205629810480056463e+00
2.256443861201819168e+00
2.256443861201819168e+00
2.181441572313608468e+00
2.181441572313608468e+00
1.826680745872371503e+00
1.896995391705069034e+00
1.896995391705069034e+00
1.981747978148747258e+00
1.981747978148747258e+00
2.431011688589129527e+00
2.286257271034882521e+00
2.286257271034882521e+00
1.840181157872249562e+00
1.840181157872249562e+00
1.153722708822901177e+00
1.860619281594287022e+00
1.860619281594287022e+00
2.348509170812097757e+00
2.348509170812097757e+00
2.016061525315103520e+00
2.279319559312723342e+00
2.279319559312723342e+00
2.546327707754753256e+00
2.202442213202307375e+00
2.202442213202307375e+00
1.992435804315317194e+00
1.992435804315317194e+00
1.755241065706351078e+00
1.751303445539719839e+00
1.751303445539719839e+00
2.069875667592394830e+00
2.069875667592394830e+00
2.154628254036072832e+00
2.116377086703085553e+00
2.116377086703085553e+00
2.140377819147312621e+00
2.140377819147312621e+00
1.935621570482497722e+00
1.962997405926694583e+00
1.962997405926694583e+00
1.976122806482131455e+00
1.976122806482131455e+00
1.890057679982909855e+00
2.035187108981597159e+00
2.035187108981597159e+00
2.430261665700247153e+00
2.430261665700247153e+00
2.445449629200109776e+00
2.061437910092470904e+00
2.061437910092470904e+00
1.877494796594134430e+00
1.990935758537552891e+00
1.990935758537552891e+00
1.988310678426465694e+00
1.988310678426465694e+00
2.106626789147617806e+00
2.260943998535111632e+00
2.260943998535111632e+00
2.125939878536332373e+00
2.125939878536332373e+00
1.882369945371868081e+00
1.603548936429944671e+00
1.603548936429944671e+00
1.821055574205755700e+00
1.821055574205755700e+00
2.241255897701956545e+00
2.131002533036286284e+00
2.131002533036286284e+00
2.365759697256386129e+00
2.323383404034546906e+00
2.323383404034546906e+00
2.159503402813806705e+00
2.159503402813806705e+00
2.313445600756859122e+00
2.285882259590441556e+00
2.285882259590441556e+00
2.087313699758903685e+00
2.087313699758903685e+00
1.849181432538834935e+00
1.666738364818262319e+00
1.666738364818262319e+00
1.680238776818140156e+00
1.680238776818140156e+00
1.902245551927244094e+00
1.692426648762474395e+00
1.692426648762474395e+00
1.990185735648670962e+00
1.990185735648670962e+00
2.390322946867275089e+00
1.921933652760399180e+00
1.921933652760399180e+00
2.510889126255073656e+00
2.510889126255073656e+00
2.480888210699789376e+00
2.450887295144505096e+00
2.450887295144505096e+00
2.039687246314890068e+00
1.748490859706411937e+00
1.748490859706411937e+00
1.860806787316507505e+00
1.860806787316507505e+00
1.883494979705191197e+00
1.887432599871822214e+00
1.887432599871822214e+00
2.155378276924954761e+00
2.155378276924954761e+00
2.381135166478469234e+00
2.157440839869380955e+00
2.157440839869380955e+00
2.059187841425824672e+00
2.059187841425824672e+00
1.857244178594317452e+00
1.854244087038789068e+00
1.854244087038789068e+00
2.033874568926053783e+00
2.209754936368907963e+00
2.209754936368907963e+00
1.854619098483230255e+00
1.854619098483230255e+00
1.880119876705221627e+00
2.028624408703878945e+00
2.028624408703878945e+00
2.364634662923062791e+00
2.364634662923062791e+00
2.308007934812463802e+00
2.088813745536667987e+00
2.088813745536667987e+00
2.063125461592455689e+00
2.063125461592455689e+00
2.082438550981169811e+00
1.933371501815851268e+00
1.933371501815851268e+00
1.969935117648853984e+00
1.969935117648853984e+00
2.211442487868892304e+00
2.568640888698995983e+00
2.568640888698995983e+00
2.265631641590625023e+00
2.094626422925504272e+00
2.094626422925504272e+00
1.967685048982207752e+00
1.967685048982207752e+00
1.853494064149906917e+00
1.806242622150334265e+00
1.806242622150334265e+00
2.022061708426160731e+00
2.022061708426160731e+00
2.004436170537430950e+00
2.010998870815149164e+00
2.010998870815149164e+00
2.063312967314676172e+00
2.063312967314676172e+00
1.890057679982909855e+00
1.869432050538651691e+00
1.869432050538651691e+00
2.187066743980223826e+00
2.187066743980223826e+00
2.289257362590411127e+00
1.916308481093783378e+00
1.916308481093783378e+00
1.897182897427289516e+00
2.502451368755150174e+00
2.502451368755150174e+00
2.477513107699820250e+00
2.477513107699820250e+00
1.993748344370861014e+00
1.938996673482467070e+00
1.938996673482467070e+00
2.005748710592974771e+00
2.005748710592974771e+00
2.123877315591906623e+00
2.106251777703176842e+00
2.106251777703176842e+00
2.111689443647572162e+00
2.111689443647572162e+00
1.931496444593646222e+00
1.858369212927640568e+00
1.858369212927640568e+00
1.981747978148747258e+00
1.981747978148747258e+00
2.067813104647969080e+00
1.853119052705465952e+00
1.853119052705465952e+00
2.107564317758720662e+00
2.255881344035157721e+00
2.255881344035157721e+00
2.395198095645008962e+00
2.395198095645008962e+00
2.182754112369151844e+00
2.090501297036652772e+00
2.090501297036652772e+00
2.017936582537308787e+00
2.017936582537308787e+00
2.118064638203069894e+00
1.966935026093325822e+00
1.966935026093325822e+00
1.653612964262825447e+00
1.653612964262825447e+00
1.902808069093905319e+00
2.209942442091128445e+00
2.209942442091128445e+00
2.163628528702658205e+00
2.149753105258339403e+00
2.149753105258339403e+00
2.061062898648029940e+00
2.061062898648029940e+00
2.065375530259102366e+00
1.935621570482497722e+00
1.935621570482497722e+00
2.055437726981414581e+00
2.055437726981414581e+00
1.920246101260414395e+00
2.112251960814234053e+00
2.112251960814234053e+00
2.191754387035737217e+00
2.191754387035737217e+00
2.164191045869319652e+00
2.065188024536881883e+00
2.065188024536881883e+00
2.008748802148503376e+00
2.008748802148503376e+00
2.179566515091402756e+00
2.233193151646474028e+00
2.233193151646474028e+00
2.070063173314615312e+00
2.070063173314615312e+00
1.970122623371074688e+00
1.995623401593066282e+00
1.995623401593066282e+00
1.886120059816278616e+00
1.991685781426435042e+00
1.991685781426435042e+00
1.945371868037965024e+00
1.945371868037965024e+00
1.933371501815851268e+00
2.288319833979308715e+00
2.288319833979308715e+00
2.469262855922116806e+00
2.469262855922116806e+00
2.287194799645985377e+00
2.107376812036500180e+00
2.107376812036500180e+00
2.013623950926236805e+00
2.253068758201849597e+00
2.253068758201849597e+00
1.928683858760338099e+00
1.928683858760338099e+00
1.809055207983641944e+00
2.074000793481246330e+00
2.074000793481246330e+00
2.144877956480605530e+00
2.144877956480605530e+00
1.996185918759727951e+00
1.945371868037965024e+00
1.945371868037965024e+00
2.022061708426160731e+00
2.022061708426160731e+00
2.040062257759331033e+00
2.089376262703329878e+00
2.089376262703329878e+00
2.102126651814325342e+00
2.102126651814325342e+00
2.059187841425824672e+00
2.039499740592669585e+00
2.039499740592669585e+00
2.259256447035126847e+00
2.259256447035126847e+00
2.263194067201757864e+00
1.951747062593462978e+00
1.951747062593462978e+00
1.959247291482284048e+00
2.093313882869960452e+00
2.093313882869960452e+00
1.901120517593920756e+00
1.901120517593920756e+00
1.891932737205114901e+00
1.993373332926419828e+00
1.993373332926419828e+00
2.083001068147831703e+00
2.083001068147831703e+00
2.100251594592120075e+00
2.152940702536088047e+00
2.152940702536088047e+00
2.236568254646443155e+00
2.236568254646443155e+00
2.117502121036408447e+00
1.993560838648640532e+00
1.993560838648640532e+00
1.973122714926602850e+00
1.973122714926602850e+00
2.080000976592303541e+00
2.042499832148198191e+00
2.042499832148198191e+00
2.134940153202917745e+00
2.344009033478804849e+00
2.344009033478804849e+00
2.127064912869655711e+00
2.127064912869655711e+00
1.974247749259926188e+00
1.831930906094546563e+00
1.831930906094546563e+00
2.159878414258247670e+00
2.159878414258247670e+00
2.451824823755607952e+00
2.038937223426007694e+00
2.038937223426007694e+00
1.844306283761101062e+00
1.844306283761101062e+00
1.892870265816217534e+00
1.865494430372020673e+00
1.865494430372020673e+00
2.045687429425947279e+00
2.045687429425947279e+00
2.157065828424939546e+00
2.161753471480452937e+00
2.161753471480452937e+00
2.296195074312570750e+00
1.998998504593035630e+00
1.998998504593035630e+00
1.740240607928708716e+00
1.740240607928708716e+00
2.149940610980559885e+00
2.276319467757194737e+00
2.276319467757194737e+00
2.121814752647480873e+00
2.121814752647480873e+00
2.143377910702841227e+00
2.006498733481856700e+00
2.006498733481856700e+00
1.994685872981963648e+00
1.994685872981963648e+00
1.950059511093478193e+00
1.920621112704855360e+00
1.920621112704855360e+00
1.914995941038239557e+00
1.914995941038239557e+00
2.087501205481124167e+00
2.138127750480666833e+00
2.138127750480666833e+00
2.096501480147709540e+00
2.004436170537430950e+00
2.044187383648182976e+00
2.044187383648182976e+00
2.059937864314706601e+00
2.059937864314706601e+00
2.228130497146519229e+00
2.296382580034791232e+00
2.296382580034791232e+00
2.178441480758079862e+00
2.178441480758079862e+00
2.282319650868251504e+00
1.962247383037812432e+00
1.962247383037812432e+00
1.965809991760002484e+00
2.055625232703635064e+00
2.055625232703635064e+00
2.025999328592791304e+00
2.025999328592791304e+00
1.958122257148960932e+00
1.895495345927304953e+00
1.895495345927304953e+00
2.202067201757865966e+00
2.202067201757865966e+00
2.359947019867549844e+00
2.168878688924833043e+00
2.168878688924833043e+00
2.071938230536820580e+00
2.071938230536820580e+00
1.926058778649250680e+00
1.901870540482802907e+00
1.901870540482802907e+00
1.832868434705648975e+00
1.987373149815363060e+00
1.987373149815363060e+00
2.225130405590991067e+00
2.225130405590991067e+00
2.079063447981200685e+00
1.928496353038117617e+00
1.928496353038117617e+00
2.059375347148045154e+00
2.059375347148045154e+00
2.206379833368938392e+00
2.018686605426191161e+00
2.018686605426191161e+00
2.090688802758873255e+00
2.090688802758873255e+00
2.239943357646412725e+00
2.187629261146885273e+00
2.187629261146885273e+00
2.084313608203375079e+00
2.084313608203375079e+00
2.079438459425641650e+00
2.044374889370403459e+00
2.044374889370403459e+00
2.019624134037293572e+00
1.963372417371135548e+00
1.963372417371135548e+00
2.069688161870173904e+00
2.021686696981719766e+00
2.021686696981719766e+00
1.881619922482985929e+00
1.930371410260322884e+00
1.930371410260322884e+00
2.150128116702780368e+00
2.150128116702780368e+00
2.158940885647145258e+00
2.074375804925687294e+00
2.074375804925687294e+00
2.092188848536637558e+00
2.092188848536637558e+00
1.965622486037782002e+00
2.002936124759666647e+00
2.002936124759666647e+00
2.265444135868404540e+00
2.182004089480269915e+00
2.182004089480269915e+00
1.909745780816064942e+00
1.909745780816064942e+00
2.003123630481887130e+00
2.072500747703482027e+00
2.072500747703482027e+00
2.129502487258521981e+00
2.129502487258521981e+00
2.173941343424787398e+00
2.189879329813531950e+00
2.189879329813531950e+00
2.135127658925138228e+00
2.135127658925138228e+00
2.113376995147556947e+00
2.157440839869380955e+00
2.157440839869380955e+00
1.950059511093478193e+00
1.950059511093478193e+00
1.877119785149693465e+00
1.886307565538499098e+00
1.886307565538499098e+00
1.963559923093356252e+00
2.121252235480818982e+00
2.121252235480818982e+00
2.248568620868556689e+00
2.248568620868556689e+00
2.269194250312814631e+00
2.171316263313699757e+00
2.171316263313699757e+00
2.044937406537064906e+00
2.044937406537064906e+00
1.951747062593462978e+00
2.136065187536240639e+00
2.136065187536240639e+00
2.013998962370677770e+00
2.013998962370677770e+00
1.858931730094302237e+00
2.117127109591967482e+00
2.117127109591967482e+00
1.993748344370861014e+00
1.951747062593462978e+00
1.951747062593462978e+00
2.045687429425947279e+00
2.045687429425947279e+00
2.061812921536912313e+00
2.101564134647663895e+00
2.101564134647663895e+00
2.104751731925412539e+00
2.104751731925412539e+00
2.321133335367900674e+00
2.217067659535508550e+00
2.217067659535508550e+00
2.017374065370647340e+00
2.017374065370647340e+00
2.041937314981536300e+00
1.918933561204870797e+00
1.918933561204870797e+00
1.972747703482162107e+00
1.972747703482162107e+00
2.048875026703695923e+00
2.015686513870662555e+00
2.015686513870662555e+00
2.084876125370036970e+00
2.173753837702566916e+00
2.173753837702566916e+00
2.119752189703054679e+00
2.119752189703054679e+00
2.024499282815027001e+00
1.979310403759880321e+00
1.979310403759880321e+00
2.120314706869716570e+00
2.120314706869716570e+00
2.100064088869899592e+00
2.043249855037080120e+00
2.043249855037080120e+00
2.101376628925443413e+00
2.101376628925443413e+00
2.159690908536027187e+00
2.122752281258583285e+00
2.122752281258583285e+00
2.237318277535325084e+00
2.237318277535325084e+00
2.046999969481490211e+00
2.050937589648121673e+00
2.050937589648121673e+00
1.980060426648762473e+00
1.922683675649281332e+00
1.922683675649281332e+00
2.016249031037324002e+00
2.016249031037324002e+00
1.968997589037751350e+00
1.916120975371562896e+00
1.916120975371562896e+00
2.072313241981261545e+00
2.072313241981261545e+00
2.205442304757835537e+00
2.113752006591998356e+00
2.113752006591998356e+00
2.082063539536728847e+00
2.082063539536728847e+00
2.118439649647511303e+00
2.044749900814844423e+00
2.044749900814844423e+00
2.221380291146580532e+00
2.205067293313394572e+00
2.205067293313394572e+00
1.988498184148686176e+00
1.988498184148686176e+00
1.998810998870815148e+00
2.086938688314462720e+00
2.086938688314462720e+00
2.000123538926358524e+00
2.000123538926358524e+00
2.017749076815088305e+00
2.156315805536057617e+00
2.156315805536057617e+00
2.112251960814234053e+00
2.112251960814234053e+00
2.101939146092104860e+00
2.038562211981566730e+00
2.038562211981566730e+00
2.098001525925473842e+00
2.098001525925473842e+00
2.149753105258339403e+00
2.074188299203466812e+00
2.074188299203466812e+00
2.044562395092623941e+00
2.065000518814661401e+00
2.065000518814661401e+00
2.094438917203283790e+00
2.094438917203283790e+00
2.027686880092776089e+00
2.010436353648488161e+00
2.010436353648488161e+00
1.979872920926541990e+00
1.979872920926541990e+00
2.028061891537217498e+00
2.079063447981200685e+00
2.079063447981200685e+00
2.093126377147739969e+00
2.093126377147739969e+00
2.074375804925687294e+00
2.092938871425519931e+00
2.092938871425519931e+00
2.117502121036408447e+00
2.117502121036408447e+00
2.059375347148045154e+00
2.010811365092929126e+00
2.010811365092929126e+00
2.137002716147343495e+00
2.137002716147343495e+00
2.171503769035920239e+00
2.050187566759239299e+00
2.050187566759239299e+00
2.066125553147984295e+00
2.013436445204016323e+00
2.013436445204016323e+00
2.071938230536820580e+00
2.071938230536820580e+00
2.117127109591967482e+00
1.995060884426404613e+00
1.995060884426404613e+00
1.990935758537552891e+00
1.990935758537552891e+00
1.987935666982024729e+00
2.034062074648274265e+00
2.034062074648274265e+00
2.113752006591998356e+00
2.113752006591998356e+00
2.089938779869991325e+00
2.102876674703207716e+00
2.102876674703207716e+00
2.148628070925016065e+00
2.148628070925016065e+00
2.124627338480788552e+00
2.095938962981048093e+00
2.095938962981048093e+00
2.111501937925351680e+00
2.053750175481429796e+00
2.053750175481429796e+00
2.055437726981414581e+00
2.055437726981414581e+00
2.113939512314218838e+00
2.080563493758964988e+00
2.080563493758964988e+00
2.018311593981750196e+00
2.018311593981750196e+00
2.041937314981536300e+00
2.140377819147312621e+00
2.140377819147312621e+00
2.095563951536606684e+00
2.095563951536606684e+00
2.092188848536637558e+00
2.058812829981383707e+00
2.058812829981383707e+00
2.066688070314646186e+00
2.033687063203833301e+00
2.033687063203833301e+00
2.039874752037110550e+00
2.039874752037110550e+00
2.073250770592364400e+00
2.068375621814630971e+00
2.068375621814630971e+00
2.085813653981139382e+00
2.085813653981139382e+00
2.074375804925687294e+00
2.045124912259285388e+00
2.045124912259285388e+00
2.082063539536728847e+00
2.082063539536728847e+00
2.129689992980742907e+00
2.063687978759117581e+00
2.063687978759117581e+00
1.999748527481917781e+00
1.999748527481917781e+00
2.013061433759574914e+00
2.086188665425580790e+00
2.086188665425580790e+00
2.112626972258675018e+00
2.111876949369793088e+00
2.111876949369793088e+00
2.118439649647511303e+00
2.118439649647511303e+00
2.066313058870204777e+00
2.050750083925901190e+00
2.050750083925901190e+00
2.019249122592852608e+00
2.019249122592852608e+00
2.087313699758903685e+00
2.107376812036500180e+00
2.107376812036500180e+00
2.109439374980925930e+00
2.109439374980925930e+00
2.096313974425489057e+00
2.103439191869869163e+00
2.103439191869869163e+00
2.072875759147922992e+00
2.059187841425824672e+00
2.059187841425824672e+00
2.049437543870357370e+00
2.049437543870357370e+00
2.074188299203466812e+00
2.039687246314890068e+00
2.039687246314890068e+00
2.033687063203833301e+00
2.033687063203833301e+00
2.079063447981200685e+00
2.022249214148381213e+00
2.022249214148381213e+00
2.067063081759087151e+00
2.067063081759087151e+00
2.099314065981017663e+00
2.097626514481032878e+00
2.097626514481032878e+00
2.056375255592516993e+00
2.056375255592516993e+00
2.072313241981261545e+00
2.113564500869777874e+00
2.113564500869777874e+00
2.110751915036469750e+00
2.066875576036866669e+00
2.066875576036866669e+00
2.034437086092715230e+00
2.034437086092715230e+00
2.022061708426160731e+00
2.027874385814997016e+00
2.027874385814997016e+00
2.012873928037354432e+00
2.012873928037354432e+00
1.992810815759758380e+00
2.084876125370036970e+00
2.084876125370036970e+00
2.128377452925199087e+00
2.128377452925199087e+00
2.119377178258613714e+00
2.099876583147679110e+00
2.099876583147679110e+00
2.089376262703329878e+00
2.089376262703329878e+00
2.068563127536851454e+00
2.071375713370158689e+00
2.071375713370158689e+00
2.079813470870083059e+00
2.034437086092715230e+00
2.034437086092715230e+00
2.073438276314584883e+00
2.073438276314584883e+00
2.106626789147617806e+00
2.065938047425763813e+00
2.065938047425763813e+00
2.072500747703482027e+00
2.072500747703482027e+00
2.062187932981353278e+00
2.096126468703268575e+00
2.096126468703268575e+00
2.064625507370219992e+00
2.064625507370219992e+00
2.041749809259315818e+00
2.042312326425977265e+00
2.042312326425977265e+00
2.052250129703665493e+00
2.052250129703665493e+00
2.039874752037110550e+00
2.080563493758964988e+00
2.080563493758964988e+00
2.115627063814203623e+00
2.115627063814203623e+00
2.086751182592242237e+00
2.046249946592608282e+00
2.046249946592608282e+00
2.031061983092746104e+00
2.079625965147862576e+00
2.079625965147862576e+00
2.072875759147922992e+00
2.072875759147922992e+00
2.064625507370219992e+00
2.077750907925656865e+00
2.077750907925656865e+00
2.010811365092929126e+00
2.010811365092929126e+00
2.008373790704061967e+00
2.113939512314218838e+00
2.113939512314218838e+00
2.161003448591571008e+00
2.161003448591571008e+00
2.120502212591937052e+00
2.074750816370128703e+00
2.074750816370128703e+00
2.012311410870692985e+00
2.059562852870265637e+00
2.073063264870143918e+00
2.073063264870143918e+00
2.075688344981231115e+00
2.075688344981231115e+00
2.080000976592303541e+00
2.083938596758934114e+00
2.083938596758934114e+00
2.057875301370280852e+00
2.057875301370280852e+00
2.080750999481185470e+00
2.073625782036805365e+00
2.073625782036805365e+00
2.077375896481215900e+00
2.077375896481215900e+00
2.102501663258766751e+00
2.112251960814234053e+00
2.112251960814234053e+00
2.062187932981353278e+00
2.062187932981353278e+00
2.055250221259193655e+00
2.049250038148136888e+00
2.049250038148136888e+00
2.052812646870326940e+00
2.082438550981169811e+00
2.082438550981169811e+00
2.097063997314370987e+00
2.097063997314370987e+00
2.044937406537064906e+00
2.044749900814844423e+00
2.044749900814844423e+00
2.068000610370189563e+00
2.068000610370189563e+00
2.082813562425611220e+00
2.086188665425580790e+00
2.086188665425580790e+00
2.076438367870113488e+00
2.076438367870113488e+00
2.085063631092257452e+00
2.076813379314554453e+00
2.076813379314554453e+00
2.082626056703390294e+00
2.086001159703360308e+00
2.086001159703360308e+00
2.054687704092532208e+00
2.054687704092532208e+00
2.042874843592639156e+00
2.053187658314767905e+00
2.053187658314767905e+00
2.087126194036683202e+00
2.087126194036683202e+00
2.081876033814508364e+00
2.062562944425794242e+00
2.062562944425794242e+00
2.076063356425672080e+00
2.076063356425672080e+00
2.091438825647755628e+00
2.065188024536881883e+00
2.056187749870296511e+00
2.056187749870296511e+00
2.065188024536881883e+00
2.065188024536881883e+00
2.048125003814813549e+00
2.066875576036866669e+00
2.066875576036866669e+00
2.064438001647999510e+00
2.040624774925992480e+00
2.040624774925992480e+00
2.107751823480941145e+00
2.107751823480941145e+00
2.086188665425580790e+00
2.081501022370067400e+00
2.081501022370067400e+00
2.068188116092410045e+00
2.068188116092410045e+00
2.007248756370739073e+00
2.001061067537461380e+00
2.001061067537461380e+00
2.055437726981414581e+00
2.081688528092287882e+00
2.081688528092287882e+00
2.073250770592364400e+00
2.073250770592364400e+00
2.077938413647877791e+00
2.008186284981841485e+00
2.008186284981841485e+00
2.013998962370677770e+00
2.013998962370677770e+00
2.107189306314279698e+00
2.101376628925443413e+00
2.101376628925443413e+00
2.092938871425519931e+00
2.092938871425519931e+00
2.083938596758934114e+00
2.068750633259071936e+00
2.068750633259071936e+00
2.049437543870357370e+00
2.049437543870357370e+00
2.066875576036866669e+00
2.043062349314859638e+00
2.043062349314859638e+00
2.097251503036591469e+00
2.094438917203283790e+00
2.094438917203283790e+00
2.073063264870143918e+00
2.073063264870143918e+00
1.972560197759941625e+00
2.096688985869930022e+00
2.096688985869930022e+00
2.085063631092257452e+00
2.085063631092257452e+00
2.077000885036774935e+00
2.068000610370189563e+00
2.068000610370189563e+00
2.070813196203497242e+00
2.062937955870235207e+00
2.062937955870235207e+00
2.082626056703390294e+00
2.082626056703390294e+00
2.095376445814386202e+00
2.103251686147648680e+00
2.103251686147648680e+00
2.097063997314370987e+00
2.097063997314370987e+00
2.061062898648029940e+00
2.035937131870479533e+00
2.035937131870479533e+00
2.018686605426191161e+00
2.018686605426191161e+00
2.037999694814905283e+00
2.104751731925412539e+00
2.104751731925412539e+00
2.089751274147770843e+00
2.089751274147770843e+00
2.051125095370342155e+00
2.067625598925748598e+00
2.067625598925748598e+00
2.078313425092318756e+00
2.077000885036774935e+00
2.077000885036774935e+00
2.047374980925931620e+00
2.047374980925931620e+00
2.082813562425611220e+00
2.090501297036652772e+00
2.090501297036652772e+00
2.061250404370250422e+00
2.061250404370250422e+00
2.080000976592303541e+00
2.085813653981139382e+00
2.085813653981139382e+00
2.066125553147984295e+00
2.066125553147984295e+00
2.024124271370586037e+00
1.977622852259895758e+00
1.977622852259895758e+00
2.014748985259559699e+00
2.014748985259559699e+00
2.054125186925870761e+00
2.068375621814630971e+00
2.068375621814630971e+00
2.101751640369884377e+00
2.107751823480941145e+00
2.107751823480941145e+00
2.070063173314615312e+00
2.070063173314615312e+00
2.065188024536881883e+00
2.091251319925535146e+00
2.091251319925535146e+00
2.091813837092196593e+00
2.091813837092196593e+00
2.059375347148045154e+00
1.989623218482009515e+00
1.989623218482009515e+00
2.088438734092227023e+00
2.065000518814661401e+00
2.065000518814661401e+00
2.056562761314737475e+00
2.056562761314737475e+00
2.074188299203466812e+00
2.117689626758628929e+00
2.117689626758628929e+00
2.077375896481215900e+00
2.077375896481215900e+00
2.092751365703299449e+00
2.083001068147831703e+00
2.083001068147831703e+00
2.082063539536728847e+00
2.082063539536728847e+00
2.090313791314432290e+00
2.038187200537125765e+00
2.038187200537125765e+00
2.040437269203771997e+00
2.040437269203771997e+00
2.054687704092532208e+00
2.070625690481276759e+00
2.070625690481276759e+00
2.069125644703512901e+00
2.058250312814721816e+00
2.058250312814721816e+00
2.033687063203833301e+00
2.033687063203833301e+00
2.021499191259499284e+00
2.048875026703695923e+00
2.048875026703695923e+00
2.040437269203771997e+00
2.040437269203771997e+00
2.019811639759514499e+00
2.051125095370342155e+00
2.051125095370342155e+00
2.119377178258613714e+00
2.119377178258613714e+00
2.125377361369670925e+00
2.122752281258583285e+00
2.122752281258583285e+00
2.106439283425397324e+00
2.079063447981200685e+00
2.079063447981200685e+00
2.053937681203650278e+00
2.053937681203650278e+00
2.025811822870570822e+00
1.994123355815301979e+00
1.994123355815301979e+00
2.025436811426129857e+00
2.025436811426129857e+00
2.047562486648152102e+00
2.062750450148014725e+00
2.062750450148014725e+00
2.100439100314340557e+00
2.100439100314340557e+00
2.135127658925138228e+00
2.095001434369945237e+00
2.095001434369945237e+00
2.032749534592730889e+00
2.032749534592730889e+00
2.034249580370494748e+00
2.063687978759117581e+00
2.063687978759117581e+00
2.051125095370342155e+00
2.051125095370342155e+00
2.052250129703665493e+00
2.044937406537064906e+00
2.044937406537064906e+00
2.077938413647877791e+00
2.089001251258888470e+00
2.089001251258888470e+00
2.089376262703329878e+00
2.089376262703329878e+00
2.045312417981505870e+00
2.070438184759056277e+00
2.070438184759056277e+00
2.118252143925290376e+00
2.118252143925290376e+00
2.097814020203253360e+00
2.041749809259315818e+00
2.041749809259315818e+00
2.065938047425763813e+00
2.065938047425763813e+00
2.081126010925626435e+00
2.101564134647663895e+00
2.101564134647663895e+00
2.055812738425855546e+00
2.055812738425855546e+00
2.055625232703635064e+00
2.031999511703848516e+00
2.031999511703848516e+00
2.056562761314737475e+00
2.056562761314737475e+00
2.077563402203436382e+00
2.026749351481673678e+00
2.026749351481673678e+00
2.044187383648182976e+00
2.052625141148106458e+00
2.052625141148106458e+00
2.086001159703360308e+00
2.086001159703360308e+00
2.090688802758873255e+00
2.104376720480972018e+00
2.104376720480972018e+00
2.123502304147465658e+00
2.123502304147465658e+00
2.097251503036591469e+00
2.043999877925962494e+00
2.043999877925962494e+00
2.040812280648213406e+00
2.040812280648213406e+00
2.041749809259315818e+00
2.038187200537125765e+00
2.038187200537125765e+00
2.061625415814691387e+00
2.061625415814691387e+00
2.080375988036744506e+00
2.093501388592180934e+00
2.093501388592180934e+00
2.077938413647877791e+00
2.054875209814752690e+00
2.054875209814752690e+00
2.033312051759392336e+00
2.033312051759392336e+00
2.046999969481490211e+00
2.032562028870509963e+00
2.032562028870509963e+00
2.052812646870326940e+00
2.052812646870326940e+00
2.100251594592120075e+00
2.066875576036866669e+00
2.066875576036866669e+00
2.083938596758934114e+00
2.083938596758934114e+00
2.106814294869838289e+00
2.074188299203466812e+00
2.074188299203466812e+00
2.067063081759087151e+00
2.087313699758903685e+00
2.087313699758903685e+00
2.023749259926145072e+00
2.023749259926145072e+00
2.030124454481643248e+00
2.024686788537247928e+00
2.024686788537247928e+00
2.036874660481581945e+00
2.036874660481581945e+00
2.077563402203436382e+00
2.081688528092287882e+00
2.081688528092287882e+00
2.114314523758659803e+00
2.114314523758659803e+00
2.106814294869838289e+00
2.078500930814539238e+00
2.078500930814539238e+00
2.087313699758903685e+00
2.087313699758903685e+00
2.098376537369914807e+00
2.106251777703176842e+00
2.106251777703176842e+00
2.091626331369976111e+00
2.091626331369976111e+00
2.087876216925565576e+00
2.046999969481490211e+00
2.046999969481490211e+00
2.030124454481643248e+00
2.015874019592883037e+00
2.015874019592883037e+00
2.034249580370494748e+00
2.034249580370494748e+00
2.058625324259163225e+00
2.072313241981261545e+00
2.072313241981261545e+00
2.062937955870235207e+00
2.062937955870235207e+00
2.097063997314370987e+00
2.073063264870143918e+00
2.073063264870143918e+00
2.075313333536790150e+00
2.075313333536790150e+00
2.065000518814661401e+00
2.057500289925840331e+00
2.057500289925840331e+00
2.067250587481307633e+00
2.059562852870265637e+00
2.059562852870265637e+00
2.048687520981474997e+00
2.048687520981474997e+00
2.066500564592425260e+00
2.084126102481154597e+00
2.084126102481154597e+00
2.086563676870021755e+00
2.086563676870021755e+00
2.090501297036652772e+00
2.080938505203405953e+00
2.080938505203405953e+00
2.070438184759056277e+00
2.070438184759056277e+00
2.070250679036835795e+00
2.056937772759178884e+00
2.056937772759178884e+00
2.067063081759087151e+00
2.067063081759087151e+00
2.085063631092257452e+00
2.062187932981353278e+00
2.062187932981353278e+00
2.047374980925931620e+00
2.068938138981292418e+00
2.068938138981292418e+00
2.074938322092349186e+00
2.074938322092349186e+00
2.053937681203650278e+00
2.064813013092440475e+00
2.064813013092440475e+00
2.075313333536790150e+00
2.075313333536790150e+00
2.078688436536759720e+00
2.065000518814661401e+00
2.065000518814661401e+00
2.074188299203466812e+00
2.074188299203466812e+00
2.075688344981231115e+00
2.083938596758934114e+00
2.083938596758934114e+00
2.089563768425550361e+00
2.089563768425550361e+00
2.080000976592303541e+00
2.051125095370342155e+00
2.051125095370342155e+00
2.031812005981628033e+00
2.031812005981628033e+00
2.074938322092349186e+00
2.103064180425428198e+00
2.103064180425428198e+00
2.052625141148106458e+00
2.048125003814813549e+00
2.048125003814813549e+00
2.035562120426038124e+00
2.035562120426038124e+00
2.081126010925626435e+00
2.062562944425794242e+00
2.062562944425794242e+00
2.030499465926084213e+00
2.030499465926084213e+00
2.083376079592272667e+00
2.087688711203345093e+00
2.087688711203345093e+00
2.065000518814661401e+00
2.065000518814661401e+00
2.071375713370158689e+00
2.072500747703482027e+00
2.072500747703482027e+00
2.056187749870296511e+00
2.056187749870296511e+00
2.076625873592333971e+00
2.068938138981292418e+00
2.068938138981292418e+00
2.027124362926114642e+00
2.014748985259559699e+00
2.014748985259559699e+00
1.990748252815332409e+00
1.990748252815332409e+00
2.053187658314767905e+00
2.119002166814172750e+00
2.119002166814172750e+00
2.135502670369579192e+00
2.135502670369579192e+00
2.160253425702688634e+00
2.120877224036378017e+00
2.120877224036378017e+00
2.091063814203314664e+00
2.091063814203314664e+00
2.043624866481521085e+00
2.046062440870388244e+00
2.046062440870388244e+00
2.056000244148076028e+00
2.066500564592425260e+00
2.066500564592425260e+00
2.072688253425702509e+00
2.072688253425702509e+00
2.074000793481246330e+00
2.055625232703635064e+00
2.055625232703635064e+00
2.051125095370342155e+00
2.051125095370342155e+00
2.060687887203588975e+00
2.086938688314462720e+00
2.086938688314462720e+00
2.098939054536576698e+00
2.098939054536576698e+00
2.091813837092196593e+00
2.080000976592303541e+00
2.080000976592303541e+00
2.038562211981566730e+00
2.038562211981566730e+00
2.037437177648243392e+00
2.038937223426007694e+00
2.038937223426007694e+00
2.046812463759269729e+00
2.106439283425397324e+00
2.106439283425397324e+00
2.067438093203528116e+00
2.067438093203528116e+00
2.070625690481276759e+00
2.077563402203436382e+00
2.077563402203436382e+00
2.046624958037049247e+00
2.046624958037049247e+00
2.028436902981658463e+00
2.060312875759148010e+00
2.060312875759148010e+00
2.087688711203345093e+00
2.076063356425672080e+00
2.076063356425672080e+00
2.081876033814508364e+00
2.081876033814508364e+00
2.096501480147709540e+00
2.063312967314676172e+00
2.063312967314676172e+00
2.059187841425824672e+00
2.059187841425824672e+00
2.063687978759117581e+00
2.078875942258980203e+00
2.078875942258980203e+00
2.096313974425489057e+00
2.096313974425489057e+00
2.066500564592425260e+00
2.059750358592486119e+00
2.059750358592486119e+00
2.042499832148198191e+00
2.042499832148198191e+00
2.010248847926267679e+00
2.007436262092959556e+00
2.007436262092959556e+00
2.083563585314493150e+00
2.083563585314493150e+00
2.117502121036408447e+00
2.102126651814325342e+00
2.102126651814325342e+00
2.071375713370158689e+00
2.079063447981200685e+00
2.079063447981200685e+00
2.100814111758781966e+00
2.100814111758781966e+00
2.091626331369976111e+00
2.073625782036805365e+00
2.073625782036805365e+00
2.095563951536606684e+00
2.095563951536606684e+00
2.075875850703451597e+00
2.022061708426160731e+00
2.022061708426160731e+00
2.044749900814844423e+00
2.044749900814844423e+00
2.036687154759361462e+00
1.996935941648609880e+00
1.996935941648609880e+00
1.973310220648823554e+00
1.973310220648823554e+00
2.011748893704031538e+00
2.131752555925168657e+00
2.131752555925168657e+00
2.156503311258278099e+00
2.156503311258278099e+00
2.129877498702963390e+00
2.139065279091769245e+00
2.139065279091769245e+00
2.127439924314096675e+00
2.104189214758751536e+00
2.104189214758751536e+00
2.097063997314370987e+00
2.097063997314370987e+00
2.068563127536851454e+00
2.064062990203558545e+00
2.064062990203558545e+00
2.063875484481338063e+00
2.063875484481338063e+00
1.998810998870815148e+00
2.007811273537400520e+00
2.007811273537400520e+00
2.014748985259559699e+00
2.045687429425947279e+00
2.045687429425947279e+00
2.076813379314554453e+00
2.076813379314554453e+00
2.072125736259041062e+00
2.036499649037140980e+00
2.036499649037140980e+00
2.069875667592394830e+00
2.069875667592394830e+00
2.138502761925107798e+00
2.125189855647450443e+00
2.125189855647450443e+00
2.099314065981017663e+00
2.099314065981017663e+00
2.086376171147801273e+00
2.065938047425763813e+00
2.065938047425763813e+00
2.023749259926145072e+00
1.990560747093111926e+00
1.990560747093111926e+00
2.041374797814874853e+00
2.041374797814874853e+00
2.091626331369976111e+00
2.115814569536424106e+00
2.115814569536424106e+00
2.073625782036805365e+00
2.073625782036805365e+00
2.146753013702810797e+00
2.054125186925870761e+00
2.054125186925870761e+00
2.018311593981750196e+00
2.018311593981750196e+00
2.028436902981658463e+00
2.024874294259468410e+00
2.024874294259468410e+00
2.082813562425611220e+00
2.082813562425611220e+00
2.138315256202887316e+00
2.087313699758903685e+00
2.087313699758903685e+00
2.020374156926175946e+00
2.020374156926175946e+00
2.037812189092684800e+00
2.011561387981810611e+00
2.011561387981810611e+00
2.058437818536942299e+00
2.116002075258644588e+00
2.116002075258644588e+00
2.088813745536667987e+00
2.088813745536667987e+00
2.082626056703390294e+00
2.050187566759239299e+00
2.050187566759239299e+00
2.077375896481215900e+00
2.077375896481215900e+00
2.079250953703421168e+00
2.048687520981474997e+00
2.048687520981474997e+00
2.088251228370006540e+00
2.088251228370006540e+00
2.055062715536973172e+00
2.038749717703787212e+00
2.038749717703787212e+00
2.054500198370311725e+00
2.010811365092929126e+00
2.010811365092929126e+00
1.926996307260353314e+00
1.926996307260353314e+00
1.992435804315317194e+00
2.123314798425245176e+00
2.123314798425245176e+00
2.161378460036011973e+00
2.161378460036011973e+00
2.176941434980315559e+00
2.180879055146946577e+00
2.180879055146946577e+00
2.080375988036744506e+00
2.080375988036744506e+00
2.118627155369731785e+00
2.109251869258705447e+00
2.109251869258705447e+00
2.088063722647786058e+00
2.088063722647786058e+00
2.072500747703482027e+00
2.029374431592760875e+00
2.029374431592760875e+00
2.015686513870662555e+00
2.015686513870662555e+00
2.012686422315133949e+00
2.054312692648091243e+00
2.054312692648091243e+00
2.043249855037080120e+00
2.072500747703482027e+00
2.072500747703482027e+00
2.088626239814447505e+00
2.088626239814447505e+00
2.053000152592547423e+00
2.036499649037140980e+00
2.036499649037140980e+00
2.004623676259651432e+00
2.004623676259651432e+00
2.064625507370219992e+00
2.100439100314340557e+00
2.100439100314340557e+00
2.079063447981200685e+00
2.079063447981200685e+00
2.056562761314737475e+00
2.071750724814600098e+00
2.071750724814600098e+00
2.077938413647877791e+00
2.077938413647877791e+00
2.072125736259041062e+00
2.073813287759025847e+00
2.073813287759025847e+00
2.096313974425489057e+00
2.098939054536576698e+00
2.098939054536576698e+00
2.056937772759178884e+00
2.056937772759178884e+00
2.083751091036713632e+00
2.045874935148167761e+00
2.045874935148167761e+00
2.012123905148472502e+00
2.012123905148472502e+00
2.019061616870632125e+00
2.044187383648182976e+00
2.044187383648182976e+00
2.071563219092379615e+00
2.071563219092379615e+00
2.048500015259254514e+00
2.023374248481704107e+00
2.023374248481704107e+00
2.028999420148319910e+00
2.028999420148319910e+00
2.063875484481338063e+00
2.133252601702932960e+00
2.133252601702932960e+00
2.104564226203192501e+00
2.082438550981169811e+00
2.082438550981169811e+00
2.137190221869563977e+00
2.137190221869563977e+00
2.133440107425153442e+00
2.096313974425489057e+00
2.096313974425489057e+00
2.059000335703604190e+00
2.059000335703604190e+00
2.062937955870235207e+00
2.064625507370219992e+00
2.064625507370219992e+00
2.049250038148136888e+00
2.049250038148136888e+00
2.057125278481399366e+00
2.047937498092593067e+00
2.047937498092593067e+00
2.039124729148228621e+00
2.065000518814661401e+00
2.065000518814661401e+00
2.069875667592394830e+00
2.069875667592394830e+00
2.075313333536790150e+00
2.075688344981231115e+00
2.075688344981231115e+00
2.065188024536881883e+00
2.065188024536881883e+00
2.106814294869838289e+00
2.040812280648213406e+00
2.040812280648213406e+00
2.097063997314370987e+00
2.097063997314370987e+00
2.061812921536912313e+00
2.085438642536698417e+00
2.085438642536698417e+00
2.074938322092349186e+00
2.074938322092349186e+00
2.088438734092227023e+00
2.014936490981780626e+00
2.014936490981780626e+00
2.076250862147892562e+00
2.076250862147892562e+00
2.104751731925412539e+00
2.050750083925901190e+00
2.050750083925901190e+00
2.088626239814447505e+00
2.091063814203314664e+00
2.091063814203314664e+00
2.159878414258247670e+00
2.159878414258247670e+00
2.173566331980346433e+00
2.102876674703207716e+00
2.102876674703207716e+00
2.092563859981078966e+00
2.092563859981078966e+00
2.023374248481704107e+00
1.954747154148991584e+00
1.954747154148991584e+00
1.943496810815759979e+00
1.943496810815759979e+00
2.054125186925870761e+00
2.111314432203131197e+00
2.111314432203131197e+00
1.995060884426404613e+00
1.995060884426404613e+00
1.944621845149082873e+00
2.152003173924985191e+00
2.152003173924985191e+00
2.199629627368999252e+00
2.153878231147190458e+00
2.153878231147190458e+00
2.083188573870052185e+00
2.083188573870052185e+00
1.997310953093050845e+00
1.992435804315317194e+00
1.992435804315317194e+00
2.006498733481856700e+00
2.006498733481856700e+00
2.109439374980925930e+00
2.172628803369243577e+00
2.172628803369243577e+00
2.146940519425031280e+00
2.146940519425031280e+00
2.100064088869899592e+00
2.086751182592242237e+00
2.086751182592242237e+00
2.099126560258797181e+00
2.099126560258797181e+00
2.067250587481307633e+00
2.077188390758995418e+00
2.077188390758995418e+00
2.026186834315011787e+00
2.031999511703848516e+00
2.031999511703848516e+00
1.958872280037843083e+00
1.958872280037843083e+00
1.963372417371135548e+00
2.026374340037232713e+00
2.026374340037232713e+00
2.092188848536637558e+00
2.092188848536637558e+00
2.135690176091799675e+00
2.110939420758690233e+00
2.110939420758690233e+00
2.041374797814874853e+00
2.041374797814874853e+00
2.083563585314493150e+00
2.089001251258888470e+00
2.089001251258888470e+00
2.127064912869655711e+00
2.127064912869655711e+00
2.106064271980956359e+00
2.063687978759117581e+00
2.063687978759117581e+00
2.080375988036744506e+00
2.081501022370067400e+00
2.081501022370067400e+00
2.074188299203466812e+00
2.074188299203466812e+00
2.024874294259468410e+00
2.031436994537187068e+00
2.104376720480972018e+00
2.104376720480972018e+00
2.127252418591876193e+00
2.127252418591876193e+00
2.049625049592577852e+00
2.000311044648579006e+00
2.000311044648579006e+00
1.960747337260048351e+00
1.960747337260048351e+00
2.003686147648549021e+00
2.026374340037232713e+00
2.026374340037232713e+00
1.948559465315714112e+00
2.013811456648457288e+00
2.013811456648457288e+00
2.090126285592211808e+00
2.090126285592211808e+00
2.212380016479995160e+00
2.220442762535478121e+00
2.220442762535478121e+00
2.076625873592333971e+00
2.076625873592333971e+00
2.112064455092013571e+00
2.127627430036317158e+00
2.127627430036317158e+00
2.104189214758751536e+00
2.104189214758751536e+00
2.076250862147892562e+00
2.031436994537187068e+00
2.031436994537187068e+00
2.108876857814264483e+00
2.038937223426007694e+00
2.038937223426007694e+00
2.068563127536851454e+00
2.068563127536851454e+00
2.066688070314646186e+00
2.059000335703604190e+00
2.059000335703604190e+00
2.041562303537095335e+00
2.041562303537095335e+00
2.076813379314554453e+00
2.085626148258918899e+00
2.085626148258918899e+00
2.030686971648304695e+00
2.030686971648304695e+00
1.952309579760124647e+00
1.980247932370982955e+00
1.980247932370982955e+00
2.161378460036011973e+00
2.161378460036011973e+00
2.176003906369212704e+00
2.150315622425000850e+00
2.150315622425000850e+00
2.143190404980620745e+00
2.065938047425763813e+00
2.065938047425763813e+00
2.074750816370128703e+00
2.085063631092257452e+00
2.085063631092257452e+00
1.975747795037690491e+00
2.019999145481734981e+00
2.019999145481734981e+00
2.077750907925656865e+00
2.077750907925656865e+00
2.008373790704061967e+00
2.054500198370311725e+00
2.054500198370311725e+00
2.058437818536942299e+00
2.058437818536942299e+00
2.064625507370219992e+00
2.080000976592303541e+00
2.080000976592303541e+00
2.102314157536546269e+00
2.190066835535752432e+00
2.190066835535752432e+00
2.184254158146916147e+00
2.184254158146916147e+00
2.216130130924405695e+00
2.178816492202520827e+00
2.178816492202520827e+00
2.037062166203802427e+00
2.037062166203802427e+00
2.019436628315073090e+00
2.025811822870570822e+00
2.025811822870570822e+00
2.043249855037080120e+00
2.043249855037080120e+00
2.001623584704122827e+00
2.125939878536332373e+00
2.125939878536332373e+00
2.113939512314218838e+00
2.025249305703909375e+00
2.025249305703909375e+00
1.943309305093539274e+00
1.943309305093539274e+00
2.037812189092684800e+00
2.044187383648182976e+00
2.044187383648182976e+00
1.931121433149205036e+00
1.931121433149205036e+00
1.902245551927244094e+00
1.949684499649037006e+00
1.949684499649037006e+00
2.053187658314767905e+00
2.053187658314767905e+00
1.989248207037568328e+00
2.038374706259346247e+00
2.038374706259346247e+00
2.028436902981658463e+00
2.028436902981658463e+00
2.087501205481124167e+00
2.111876949369793088e+00
2.111876949369793088e+00
2.037062166203802427e+00
1.986060609759819240e+00
1.986060609759819240e+00
2.071563219092379615e+00
2.071563219092379615e+00
2.231880611590930208e+00
2.217255165257729033e+00
2.217255165257729033e+00
2.205442304757835537e+00
2.205442304757835537e+00
2.149003082369457029e+00
2.101001617481002448e+00
2.101001617481002448e+00
2.073625782036805365e+00
2.073625782036805365e+00
2.023936765648365554e+00
1.996560930204168693e+00
1.996560930204168693e+00
2.039499740592669585e+00
2.039499740592669585e+00
2.045874935148167761e+00
1.959622302926725235e+00
1.959622302926725235e+00
2.025811822870570822e+00
2.095188940092165719e+00
2.095188940092165719e+00
2.220817773979919085e+00
2.220817773979919085e+00
2.280819605090487201e+00
2.204129764702292160e+00
2.204129764702292160e+00
2.079063447981200685e+00
2.079063447981200685e+00
2.066875576036866669e+00
2.141315347758415477e+00
2.141315347758415477e+00
2.022811731315042216e+00
2.022811731315042216e+00
1.992810815759758380e+00
1.964309945982238181e+00
1.964309945982238181e+00
1.976497817926572642e+00
1.976497817926572642e+00
1.979685415204321286e+00
1.948934476760155077e+00
1.948934476760155077e+00
1.878619830927457546e+00
1.975747795037690491e+00
1.975747795037690491e+00
2.021124179815057875e+00
2.021124179815057875e+00
2.034437086092715230e+00
2.143565416425061709e+00
2.143565416425061709e+00
2.261506515701773079e+00
2.261506515701773079e+00
2.152378185369426600e+00
2.165503585924863472e+00
2.165503585924863472e+00
2.019624134037293572e+00
2.019624134037293572e+00
1.914433423871578110e+00
1.984373058259834677e+00
1.984373058259834677e+00
2.099501571703238145e+00
2.319445783867915889e+00
2.319445783867915889e+00
2.309695486312448587e+00
2.309695486312448587e+00
2.189879329813531950e+00
1.947809442426831961e+00
1.947809442426831961e+00
2.037249671926022909e+00
2.037249671926022909e+00
2.005748710592974771e+00
2.095001434369945237e+00
2.095001434369945237e+00
2.235255714590899334e+00
2.235255714590899334e+00
2.146190496536149350e+00
2.056000244148076028e+00
2.056000244148076028e+00
2.080375988036744506e+00
2.080375988036744506e+00
2.071938230536820580e+00
1.911995849482711396e+00
1.911995849482711396e+00
1.924558732871486599e+00
1.935434064760277240e+00
1.935434064760277240e+00
1.985123081148716606e+00
1.985123081148716606e+00
2.055625232703635064e+00
2.091438825647755628e+00
2.091438825647755628e+00
1.809242713705862649e+00
1.809242713705862649e+00
1.777741752372814288e+00
2.062000427259132795e+00
2.062000427259132795e+00
2.255131321146275347e+00
2.255131321146275347e+00
2.201879696035645484e+00
2.235255714590899334e+00
2.235255714590899334e+00
2.080000976592303541e+00
2.000873561815240897e+00
2.000873561815240897e+00
1.956997222815637594e+00
1.956997222815637594e+00
2.022436719870601696e+00
2.153690725424969976e+00
2.153690725424969976e+00
2.158003357036042402e+00
2.158003357036042402e+00
2.038187200537125765e+00
2.052437635425885976e+00
2.052437635425885976e+00
2.171691274758141166e+00
2.171691274758141166e+00
2.309695486312448587e+00
2.133065095980712478e+00
2.133065095980712478e+00
2.021311685537278358e+00
2.021311685537278358e+00
2.229818048646504014e+00
2.073813287759025847e+00
2.073813287759025847e+00
2.028999420148319910e+00
2.028999420148319910e+00
2.160815942869350526e+00
2.057500289925840331e+00
2.057500289925840331e+00
2.026749351481673678e+00
1.880682393871883296e+00
1.880682393871883296e+00
1.858369212927640568e+00
1.858369212927640568e+00
2.044749900814844423e+00
2.395385601367229444e+00
2.395385601367229444e+00
2.438699423200171079e+00
2.438699423200171079e+00
2.240880886257515137e+00
1.879182348094118993e+00
1.879182348094118993e+00
1.840931180761131714e+00
1.840931180761131714e+00
1.707239600817896052e+00
1.673113559373760273e+00
1.673113559373760273e+00
1.840743675038911231e+00
1.840743675038911231e+00
1.901495529038361942e+00
1.948184453871272925e+00
1.948184453871272925e+00
2.119564683980834197e+00
2.317195715201269657e+00
2.317195715201269657e+00
2.335008758812219920e+00
2.335008758812219920e+00
2.201692190313425002e+00
2.189504318369090985e+00
2.189504318369090985e+00
2.161753471480452937e+00
2.161753471480452937e+00
2.210504959257789892e+00
2.045124912259285388e+00
2.045124912259285388e+00
2.201504684591204519e+00
2.201504684591204519e+00
2.157628345591601438e+00
1.841681203650013865e+00
1.841681203650013865e+00
1.924371227149266117e+00
1.847493881038850150e+00
1.847493881038850150e+00
2.025999328592791304e+00
2.025999328592791304e+00
2.069125644703512901e+00
2.121627246925260390e+00
2.121627246925260390e+00
2.365197180089724238e+00
2.365197180089724238e+00
2.621142490920743473e+00
2.427261574144718992e+00
2.427261574144718992e+00
2.171691274758141166e+00
2.171691274758141166e+00
1.869994567705313360e+00
1.601486373485519144e+00
1.601486373485519144e+00
1.597736259041108386e+00
1.688301522873622895e+00
1.688301522873622895e+00
1.846368846705527034e+00
1.846368846705527034e+00
2.143002899258400262e+00
2.194004455702383449e+00
2.194004455702383449e+00
2.287382305368205859e+00
2.287382305368205859e+00
2.113189489425336465e+00
1.965059968871120333e+00
1.965059968871120333e+00
2.055812738425855546e+00
2.055812738425855546e+00
1.959059785760063566e+00
1.851431501205481167e+00
1.851431501205481167e+00
1.841306192205572678e+00
1.841306192205572678e+00
2.286069765312662039e+00
2.502451368755150174e+00
2.502451368755150174e+00
2.125752372814111890e+00
2.044749900814844423e+00
2.044749900814844423e+00
2.347946653645436310e+00
2.347946653645436310e+00
2.463262672811060039e+00
2.191566881313516735e+00
2.191566881313516735e+00
2.013061433759574914e+00
2.013061433759574914e+00
1.990748252815332409e+00
1.973685232093264519e+00
1.973685232093264519e+00
2.044187383648182976e+00
2.044187383648182976e+00
1.935434064760277240e+00
1.925871272927030420e+00
1.925871272927030420e+00
2.120877224036378017e+00
2.120877224036378017e+00
1.941246742149113524e+00
1.701239417706839285e+00
1.701239417706839285e+00
1.675363628040406505e+00
2.070250679036835795e+00
2.070250679036835795e+00
2.296007568590349823e+00
2.296007568590349823e+00
2.133815118869594407e+00
2.132127567369609622e+00
2.132127567369609622e+00
2.199067110202337361e+00
2.199067110202337361e+00
2.059750358592486119e+00
1.937309121982482507e+00
1.937309121982482507e+00
2.102689168980987233e+00
2.102689168980987233e+00
1.996748435926389398e+00
1.874682210760826528e+00
1.874682210760826528e+00
2.002561113315225683e+00
2.002561113315225683e+00
2.337258827478866152e+00
2.044749900814844423e+00
2.044749900814844423e+00
2.204129764702292160e+00
2.204129764702292160e+00
2.354321848200934042e+00
2.412823633533738299e+00
2.412823633533738299e+00
2.085438642536698417e+00
2.233755668813135031e+00
2.233755668813135031e+00
2.163816034424878687e+00
2.163816034424878687e+00
2.064062990203558545e+00
2.045312417981505870e+00
2.045312417981505870e+00
1.736302987762077699e+00
1.736302987762077699e+00
1.435168797875911784e+00
1.727677724539933513e+00
1.727677724539933513e+00
2.273319376201666131e+00
2.273319376201666131e+00
2.311195532090212890e+00
2.117314615314187964e+00
2.117314615314187964e+00
2.050937589648121673e+00
2.265631641590625023e+00
2.265631641590625023e+00
2.226255439924313961e+00
2.226255439924313961e+00
2.104751731925412539e+00
2.099876583147679110e+00
2.099876583147679110e+00
2.000123538926358524e+00
1.814680379650257747e+00
1.814680379650257747e+00
1.689426557206946011e+00
1.848806421094393970e+00
1.848806421094393970e+00
2.440949491866817311e+00
2.440949491866817311e+00
2.345884090701010116e+00
1.945184362315744542e+00
1.945184362315744542e+00
2.070625690481276759e+00
2.070625690481276759e+00
2.030686971648304695e+00
2.008561296426282894e+00
2.008561296426282894e+00
2.048500015259254514e+00
1.882369945371868081e+00
1.882369945371868081e+00
2.338008850367748082e+00
2.338008850367748082e+00
2.143752922147282192e+00
1.885182531205175982e+00
1.885182531205175982e+00
1.947809442426831961e+00
1.947809442426831961e+00
1.789742118594927822e+00
2.113752006591998356e+00
2.113752006591998356e+00
2.295257545701467894e+00
2.297132602923673161e+00
2.297132602923673161e+00
2.118814661091952267e+00
2.118814661091952267e+00
1.834180974761192573e+00
1.644425183874019814e+00
1.644425183874019814e+00
1.961872371593371245e+00
1.961872371593371245e+00
2.403635853144932444e+00
2.535452375865963059e+00
2.535452375865963059e+00
2.314570635090182460e+00
2.314570635090182460e+00
2.421261391033662225e+00
2.358634479812006024e+00
2.358634479812006024e+00
1.918558549760429832e+00
1.918558549760429832e+00
1.908058229316080379e+00
1.918371044038209350e+00
1.918371044038209350e+00
1.647237769707327493e+00
1.647237769707327493e+00
1.741553147984252536e+00
1.712489761040070890e+00
2.095563951536606684e+00
2.095563951536606684e+00
2.170378734702597345e+00
1.922683675649281332e+00
1.922683675649281332e+00
2.134752647480697263e+00
2.134752647480697263e+00
2.178066469313638454e+00
2.116752098147526517e+00
2.116752098147526517e+00
2.065375530259102366e+00
2.065375530259102366e+00
2.082251045258949329e+00
2.069313150425733383e+00
2.069313150425733383e+00
1.947434430982390996e+00
2.041562303537095335e+00
2.041562303537095335e+00
2.106251777703176842e+00
2.106251777703176842e+00
2.343071504867702437e+00
2.134565141758476781e+00
2.134565141758476781e+00
2.205442304757835537e+00
2.205442304757835537e+00
2.073625782036805365e+00
1.818993011261330173e+00
1.818993011261330173e+00
1.863994384594256370e+00
1.863994384594256370e+00
1.898870448927274301e+00
2.013623950926236805e+00
2.013623950926236805e+00
2.268444227423932702e+00
2.313445600756859122e+00
2.313445600756859122e+00
2.096501480147709540e+00
2.096501480147709540e+00
1.938246650593584919e+00
1.775491683706167834e+00
1.775491683706167834e+00
1.610299142429883590e+00
1.610299142429883590e+00
2.138877773369548763e+00
2.322258369701224012e+00
2.322258369701224012e+00
2.289819879757073018e+00
2.289819879757073018e+00
2.330696127201147494e+00
2.435511825922421991e+00
2.435511825922421991e+00
2.272006836146122755e+00
2.272006836146122755e+00
2.359947019867549844e+00
2.088251228370006540e+00
2.088251228370006540e+00
1.623799554429761649e+00
1.558360057374797769e+00
1.558360057374797769e+00
1.931683950315866705e+00
1.931683950315866705e+00
2.006311227759636218e+00
1.879369853816339475e+00
1.879369853816339475e+00
2.157065828424939546e+00
2.157065828424939546e+00
1.724677632984405129e+00
1.649675344096194429e+00
1.649675344096194429e+00
2.095376445814386202e+00
2.095376445814386202e+00
2.356384411145359792e+00
2.478638142033143144e+00
2.478638142033143144e+00
2.647580797753837700e+00
2.647580797753837700e+00
2.519701895199438546e+00
1.981372966704306293e+00
1.981372966704306293e+00
1.822930631427961190e+00
1.776616718039490950e+00
1.776616718039490950e+00
2.153690725424969976e+00
2.153690725424969976e+00
1.842618732261116499e+00
1.764241340372936229e+00
1.764241340372936229e+00
2.142627887813959298e+00
2.142627887813959298e+00
2.533577318643757348e+00
2.370447340311899076e+00
2.370447340311899076e+00
2.326383495590075512e+00
2.326383495590075512e+00
1.914808435316019075e+00
1.823305642872402155e+00
1.823305642872402155e+00
2.101564134647663895e+00
2.000686056093020415e+00
2.000686056093020415e+00
1.353416302987762165e+00
1.353416302987762165e+00
1.822368114261299521e+00
2.094251411481063307e+00
2.094251411481063307e+00
2.010998870815149164e+00
1.934871547593615571e+00
1.934871547593615571e+00
2.044374889370403459e+00
2.044374889370403459e+00
2.573141026032288892e+00
2.454074892422254184e+00
2.454074892422254184e+00
2.259256447035126847e+00
2.259256447035126847e+00
2.340446424756614796e+00
2.278569536423841413e+00
2.278569536423841413e+00
2.056937772759178884e+00
2.056937772759178884e+00
1.712489761040070890e+00
1.574298043763542543e+00
1.574298043763542543e+00
1.395980101931821649e+00
1.395980101931821649e+00
1.364854152043214253e+00
2.215380108035523765e+00
2.215380108035523765e+00
2.383760246589556875e+00
2.383760246589556875e+00
1.956622211371196629e+00
2.323383404034546906e+00
2.323383404034546906e+00
2.789335123752556100e+00
2.771897091586047246e+00
2.771897091586047246e+00
2.228693014313181120e+00
2.228693014313181120e+00
1.957559739982299263e+00
1.843368755149998650e+00
1.843368755149998650e+00
1.551422345652638368e+00
1.551422345652638368e+00
1.650237861262856098e+00
2.296757591479232197e+00
2.296757591479232197e+00
2.315320657979064389e+00
2.315320657979064389e+00
1.989810724204229997e+00
2.003686147648549021e+00
2.003686147648549021e+00
1.947434430982390996e+00
1.904870632038331291e+00
1.904870632038331291e+00
2.093313882869960452e+00
2.093313882869960452e+00
2.059000335703604190e+00
1.691676625873592243e+00
1.691676625873592243e+00
1.690551591540269349e+00
1.690551591540269349e+00
2.195879512924588717e+00
2.200192144535660699e+00
2.200192144535660699e+00
2.267131687368389326e+00
2.267131687368389326e+00
2.649268349253822485e+00
2.515014252143925599e+00
2.515014252143925599e+00
2.393323038422803695e+00
2.393323038422803695e+00
2.487450910977508034e+00
2.357509445478682686e+00
2.357509445478682686e+00
2.112814477980895500e+00
2.112814477980895500e+00
2.509014069032868388e+00
2.491763542588580016e+00
2.491763542588580016e+00
1.813930356761375817e+00
1.371604358043153171e+00
1.371604358043153171e+00
1.464794701986754877e+00
1.464794701986754877e+00
1.373854426709799625e+00
1.465544724875637028e+00
1.465544724875637028e+00
1.774554155095065200e+00
1.774554155095065200e+00
1.585548387096774370e+00
1.772116580706198485e+00
1.772116580706198485e+00
2.056187749870296511e+00
2.056187749870296511e+00
2.285319742423780109e+00
2.311570543534653854e+00
2.311570543534653854e+00
2.611392193365276171e+00
2.611392193365276171e+00
2.263194067201757864e+00
2.270319284646137969e+00
2.270319284646137969e+00
1.980622943815424142e+00
1.980622943815424142e+00
1.857431684316537934e+00
2.180504043702505612e+00
2.180504043702505612e+00
2.298445142979216982e+00
2.495513657032990551e+00
2.495513657032990551e+00
2.224380382702108694e+00
2.224380382702108694e+00
1.767991454817346764e+00
1.623987060151982131e+00
1.623987060151982131e+00
1.342353465376751043e+00
1.342353465376751043e+00
1.668613422040467587e+00
2.118814661091952267e+00
2.118814661091952267e+00
2.209754936368907963e+00
2.209754936368907963e+00
2.476950590533158358e+00
2.242943449201941331e+00
2.242943449201941331e+00
2.335008758812219920e+00
2.392760521256141804e+00
2.392760521256141804e+00
2.718457960753196900e+00
2.718457960753196900e+00
2.476950590533158358e+00
2.053750175481429796e+00
2.053750175481429796e+00
1.607861568041016875e+00
1.607861568041016875e+00
1.849181432538834935e+00
1.698801843317972349e+00
1.698801843317972349e+00
1.885370036927396464e+00
1.885370036927396464e+00
1.838306100650044295e+00
1.962059877315591949e+00
1.962059877315591949e+00
2.169628711813714972e+00
2.169253700369274007e+00
2.169253700369274007e+00
2.315883175145725836e+00
2.315883175145725836e+00
1.731615344706564752e+00
2.051500106814783120e+00
2.051500106814783120e+00
2.865274941251869656e+00
2.865274941251869656e+00
1.970497634815515653e+00
1.561172643208105892e+00
1.561172643208105892e+00
1.724865138706625611e+00
1.724865138706625611e+00
2.024499282815027001e+00
2.114127018036439321e+00
2.114127018036439321e+00
2.819523545030060863e+00
2.819523545030060863e+00
2.771709585863826764e+00
1.936184087649159391e+00
1.936184087649159391e+00
1.703676992095706000e+00
1.703676992095706000e+00
1.579173192541276416e+00
1.700864406262398099e+00
1.700864406262398099e+00
1.956809717093417111e+00
2.119564683980834197e+00
2.119564683980834197e+00
2.237505783257545566e+00
2.237505783257545566e+00
1.916683492538224565e+00
1.849368938261055417e+00
1.849368938261055417e+00
1.826868251594591985e+00
1.826868251594591985e+00
1.870557084871974807e+00
1.965434980315561520e+00
1.965434980315561520e+00
2.669331461531418537e+00
2.669331461531418537e+00
2.491763542588580016e+00
2.035562120426038124e+00
2.035562120426038124e+00
2.053562669759208870e+00
2.053562669759208870e+00
2.007248756370739073e+00
1.948371959593493630e+00
1.948371959593493630e+00
2.018874111148411643e+00
2.560390636921292984e+00
2.560390636921292984e+00
2.312695577867977192e+00
2.312695577867977192e+00
1.899245460371715488e+00
1.794804773094882178e+00
1.794804773094882178e+00
1.738928067873165118e+00
1.738928067873165118e+00
1.633737357707449434e+00
2.015311502426221590e+00
2.015311502426221590e+00
1.927371318704794501e+00
1.927371318704794501e+00
2.052437635425885976e+00
2.233755668813135031e+00
2.233755668813135031e+00
2.214067567979979945e+00
2.214067567979979945e+00
2.269756767479476078e+00
2.707770134586626742e+00
2.707770134586626742e+00
2.367447248756370914e+00
2.367447248756370914e+00
2.133065095980712478e+00
1.719052461317789327e+00
1.719052461317789327e+00
1.680051271095919674e+00
1.600923856318857474e+00
1.600923856318857474e+00
1.768366466261787728e+00
1.768366466261787728e+00
2.277632007812738557e+00
2.847274391918698466e+00
2.847274391918698466e+00
3.064781029694509940e+00
3.064781029694509940e+00
2.359572008423108880e+00
1.683051362651448057e+00
1.683051362651448057e+00
1.811117770928067916e+00
1.811117770928067916e+00
2.025061799981688893e+00
1.863619373149815406e+00
1.863619373149815406e+00
1.850868984038819498e+00
1.761991271706289774e+00
1.761991271706289774e+00
1.683801385540330209e+00
1.683801385540330209e+00
1.715864864040040239e+00
1.891370220038453231e+00
1.891370220038453231e+00
1.983060518204291078e+00
1.983060518204291078e+00
2.057500289925840331e+00
2.282882168034912951e+00
2.282882168034912951e+00
2.224567888424329176e+00
2.224567888424329176e+00
1.983060518204291078e+00
2.000498550370799933e+00
2.000498550370799933e+00
2.074938322092349186e+00
1.994498367259743166e+00
1.994498367259743166e+00
1.955122165593432548e+00
1.955122165593432548e+00
2.148628070925016065e+00
2.278757042146061895e+00
2.278757042146061895e+00
2.110376903592028786e+00
2.110376903592028786e+00
2.039874752037110550e+00
1.893995300149540650e+00
1.893995300149540650e+00
2.068563127536851454e+00
2.068563127536851454e+00
2.210129947813348927e+00
2.571453474532304107e+00
2.571453474532304107e+00
2.326758507034516477e+00
2.194379467146824858e+00
2.194379467146824858e+00
2.060312875759148010e+00
2.060312875759148010e+00
1.751678456984160803e+00
1.909183263649403273e+00
1.909183263649403273e+00
1.572985503707998944e+00
1.572985503707998944e+00
1.899057954649495006e+00
2.427636585589159957e+00
2.427636585589159957e+00
2.330696127201147494e+00
2.330696127201147494e+00
2.170378734702597345e+00
2.203004730368968822e+00
2.203004730368968822e+00
2.111876949369793088e+00
2.111876949369793088e+00
2.112439466536454535e+00
1.941621753593554489e+00
1.941621753593554489e+00
1.994498367259743166e+00
1.994498367259743166e+00
1.869994567705313360e+00
2.113001983703115982e+00
2.113001983703115982e+00
2.139440290536210654e+00
2.056375255592516993e+00
2.056375255592516993e+00
2.011748893704031538e+00
2.011748893704031538e+00
1.936184087649159391e+00
1.872994659260841743e+00
1.872994659260841743e+00
1.911808343760490692e+00
1.911808343760490692e+00
2.010811365092929126e+00
2.140002807702871657e+00
2.140002807702871657e+00
2.234130680257575996e+00
2.234130680257575996e+00
2.070625690481276759e+00
2.033124546037171854e+00
2.033124546037171854e+00
1.964122440260017699e+00
1.964122440260017699e+00
2.027499374370555607e+00
2.086001159703360308e+00
2.086001159703360308e+00
2.016811548203985893e+00
1.800992461928159427e+00
1.800992461928159427e+00
1.908995757927182790e+00
1.908995757927182790e+00
2.256256355479598685e+00
2.504326425977354997e+00
2.504326425977354997e+00
2.495138645588549586e+00
2.495138645588549586e+00
2.241443403424177028e+00
1.928871364482558803e+00
1.928871364482558803e+00
1.718677449873348362e+00
1.718677449873348362e+00
1.933371501815851268e+00
2.109064363536484965e+00
2.109064363536484965e+00
2.038562211981566730e+00
2.038562211981566730e+00
2.219692739646595747e+00
2.252506241035188150e+00
2.252506241035188150e+00
2.022061708426160731e+00
2.022061708426160731e+00
1.910120792260505906e+00
1.756553605761894454e+00
1.756553605761894454e+00
2.222692831202123909e+00
2.166441114535965884e+00
2.166441114535965884e+00
2.002561113315225683e+00
2.002561113315225683e+00
2.027874385814997016e+00
2.043437360759300603e+00
2.043437360759300603e+00
1.993935850093081497e+00
1.993935850093081497e+00
1.918183538315988645e+00
2.009686330759605788e+00
2.009686330759605788e+00
2.137002716147343495e+00
2.137002716147343495e+00
2.382635212256233537e+00
2.013061433759574914e+00
2.013061433759574914e+00
2.042312326425977265e+00
2.042312326425977265e+00
2.212380016479995160e+00
2.131752555925168657e+00
2.131752555925168657e+00
2.043437360759300603e+00
1.930746421704764071e+00
1.930746421704764071e+00
2.050750083925901190e+00
2.050750083925901190e+00
2.300695211645863214e+00
2.282132145146031021e+00
2.282132145146031021e+00
2.044562395092623941e+00
2.044562395092623941e+00
1.855744132816553149e+00
1.735740470595416252e+00
1.735740470595416252e+00
2.063500473036897098e+00
2.063500473036897098e+00
2.153128208258308529e+00
2.235443220313119816e+00
2.235443220313119816e+00
2.145440473647266977e+00
2.145440473647266977e+00
1.858181707205420086e+00
1.911433332316049727e+00
1.911433332316049727e+00
2.175816400646992221e+00
1.948371959593493630e+00
1.948371959593493630e+00
2.067438093203528116e+00
2.067438093203528116e+00
2.231693105868709726e+00
2.275756950590533290e+00
2.275756950590533290e+00
1.975935300759910973e+00
1.975935300759910973e+00
1.979872920926541990e+00
1.937496627704702989e+00
1.937496627704702989e+00
2.075500839259010633e+00
2.100626606036561483e+00
2.100626606036561483e+00
2.165316080202642990e+00
2.165316080202642990e+00
2.071563219092379615e+00
2.233005645924253102e+00
2.233005645924253102e+00
2.394635578478347071e+00
2.394635578478347071e+00
2.254193792535172935e+00
1.995998413037507468e+00
1.995998413037507468e+00
2.016624042481765411e+00
2.016624042481765411e+00
1.959622302926725235e+00
1.944059327982421204e+00
1.944059327982421204e+00
1.938434156315805401e+00
1.938434156315805401e+00
2.101564134647663895e+00
2.091063814203314664e+00
2.091063814203314664e+00
1.873744682149723673e+00
1.873744682149723673e+00
1.821618091372417370e+00
1.946309396649067658e+00
1.946309396649067658e+00
2.030686971648304695e+00
2.078125919370098273e+00
2.078125919370098273e+00
2.373447431867427682e+00
2.373447431867427682e+00
2.365384685811944721e+00
2.190254341257972914e+00
2.190254341257972914e+00
2.053000152592547423e+00
2.053000152592547423e+00
1.628862208929715782e+00
2.038374706259346247e+00
2.038374706259346247e+00
2.166441114535965884e+00
2.166441114535965884e+00
2.042312326425977265e+00
2.160815942869350526e+00
2.160815942869350526e+00
2.055812738425855546e+00
2.103439191869869163e+00
2.103439191869869163e+00
2.077188390758995418e+00
2.077188390758995418e+00
2.010248847926267679e+00
1.821243079927976183e+00
1.821243079927976183e+00
1.971060151982177322e+00
1.971060151982177322e+00
2.127252418591876193e+00
2.229818048646504014e+00
2.229818048646504014e+00
2.274256904812768987e+00
2.274256904812768987e+00
2.031812005981628033e+00
1.975372783593249304e+00
1.975372783593249304e+00
2.164941068758201581e+00
2.164941068758201581e+00
2.318695760979033516e+00
2.096688985869930022e+00
2.096688985869930022e+00
1.917058503982665529e+00
1.917058503982665529e+00
1.889307657094027704e+00
2.023561754203924590e+00
2.023561754203924590e+00
2.161940977202673420e+00
2.169441206091494490e+00
2.169441206091494490e+00
2.122939786980803767e+00
2.122939786980803767e+00
2.062000427259132795e+00
1.921183629871517029e+00
1.921183629871517029e+00
1.968247566148869199e+00
1.968247566148869199e+00
2.057875301370280852e+00
2.149940610980559885e+00
2.149940610980559885e+00
2.074000793481246330e+00
2.074000793481246330e+00
1.945184362315744542e+00
2.155378276924954761e+00
2.155378276924954761e+00
2.245943540757469048e+00
2.167941160313730187e+00
2.167941160313730187e+00
1.988498184148686176e+00
1.988498184148686176e+00
2.036312143314920498e+00
2.040999786370433888e+00
2.040999786370433888e+00
1.933371501815851268e+00
1.933371501815851268e+00
2.119939695425275605e+00
2.078875942258980203e+00
2.078875942258980203e+00
2.163441022980437278e+00
2.163441022980437278e+00
1.989998229926450479e+00
1.962997405926694583e+00
1.962997405926694583e+00
2.201504684591204519e+00
2.344946562089907705e+00
2.344946562089907705e+00
2.218192693868831444e+00
2.218192693868831444e+00
2.024124271370586037e+00
1.909745780816064942e+00
1.909745780816064942e+00
1.920996124149296547e+00
1.920996124149296547e+00
2.033499557481612818e+00
2.008373790704061967e+00
2.008373790704061967e+00
2.012686422315133949e+00
2.055062715536973172e+00
2.055062715536973172e+00
2.036874660481581945e+00
2.036874660481581945e+00
2.072688253425702509e+00
2.162315988647114828e+00
2.162315988647114828e+00
2.343071504867702437e+00
2.343071504867702437e+00
2.191004364146854844e+00
2.011561387981810611e+00
2.011561387981810611e+00
2.127627430036317158e+00
2.127627430036317158e+00
2.214442579424420909e+00
1.757491134372997310e+00
1.757491134372997310e+00
1.760491225928525694e+00
1.760491225928525694e+00
1.918746055482650315e+00
2.113939512314218838e+00
2.113939512314218838e+00
2.074000793481246330e+00
2.079438459425641650e+00
2.079438459425641650e+00
2.300320200201422249e+00
2.300320200201422249e+00
2.308757957701345731e+00
1.954559648426770879e+00
1.954559648426770879e+00
1.908808252204962308e+00
1.908808252204962308e+00
2.128752464369640052e+00
2.068938138981292418e+00
2.068938138981292418e+00
2.066500564592425260e+00
2.066500564592425260e+00
2.063312967314676172e+00
2.288507339701529197e+00
2.288507339701529197e+00
2.092376354258858040e+00
2.092376354258858040e+00
2.036124637592700015e+00
1.903183080538346506e+00
1.903183080538346506e+00
2.059000335703604190e+00
2.003686147648549021e+00
2.003686147648549021e+00
2.094251411481063307e+00
2.094251411481063307e+00
2.202067201757865966e+00
2.045499923703726353e+00
2.045499923703726353e+00
2.101001617481002448e+00
2.101001617481002448e+00
1.993185827204199345e+00
1.977060335093234089e+00
1.977060335093234089e+00
2.043062349314859638e+00
2.043062349314859638e+00
2.185191686758019003e+00
2.206754844813379357e+00
2.206754844813379357e+00
1.968997589037751350e+00
1.968997589037751350e+00
1.961872371593371245e+00
2.106439283425397324e+00
2.106439283425397324e+00
2.076250862147892562e+00
2.076250862147892562e+00
2.046999969481490211e+00
2.104189214758751536e+00
2.104189214758751536e+00
2.036312143314920498e+00
1.922871181371501814e+00
1.922871181371501814e+00
1.926996307260353314e+00
1.926996307260353314e+00
1.980810449537644624e+00
2.048875026703695923e+00
2.048875026703695923e+00
2.155565782647175688e+00
2.155565782647175688e+00
2.167003631702627775e+00
2.236943266090884119e+00
2.236943266090884119e+00
1.974810266426587635e+00
1.974810266426587635e+00
2.086751182592242237e+00
2.091626331369976111e+00
2.091626331369976111e+00
2.005936216315195253e+00
2.005936216315195253e+00
2.087313699758903685e+00
1.968810083315530868e+00
1.968810083315530868e+00
2.019811639759514499e+00
2.019811639759514499e+00
2.073250770592364400e+00
2.083188573870052185e+00
2.083188573870052185e+00
2.033499557481612818e+00
2.040437269203771997e+00
2.040437269203771997e+00
2.037062166203802427e+00
2.037062166203802427e+00
2.058062807092501334e+00
2.023749259926145072e+00
2.023749259926145072e+00
2.130627521591845319e+00
2.130627521591845319e+00
2.181441572313608468e+00
2.095938962981048093e+00
2.095938962981048093e+00
2.132315073091830104e+00
2.132315073091830104e+00
2.055437726981414581e+00
2.028061891537217498e+00
2.028061891537217498e+00
2.131940061647389140e+00
2.148253059480575100e+00
2.148253059480575100e+00
2.106814294869838289e+00
2.055062715536973172e+00
2.055062715536973172e+00
2.024686788537247928e+00
1.990560747093111926e+00
1.990560747093111926e+00
1.975935300759910973e+00
1.975935300759910973e+00
2.065375530259102366e+00
2.057125278481399366e+00
2.057125278481399366e+00
2.000498550370799933e+00
2.000498550370799933e+00
2.011748893704031538e+00
2.111876949369793088e+00
2.111876949369793088e+00
2.173378826258125951e+00
2.173378826258125951e+00
2.213505050813318054e+00
2.107001800592058771e+00
2.107001800592058771e+00
2.016999053926206376e+00
1.986248115482039944e+00
1.986248115482039944e+00
2.017374065370647340e+00
2.017374065370647340e+00
2.090313791314432290e+00
2.090688802758873255e+00
2.090688802758873255e+00
2.025624317148350340e+00
2.025624317148350340e+00
2.038374706259346247e+00
2.034437086092715230e+00
2.034437086092715230e+00
2.056750267036957958e+00
2.056750267036957958e+00
2.096313974425489057e+00
2.088063722647786058e+00
2.088063722647786058e+00
2.178816492202520827e+00
2.178816492202520827e+00
2.119939695425275605e+00
2.125752372814111890e+00
2.125752372814111890e+00
2.143940427869502674e+00
2.104751731925412539e+00
2.104751731925412539e+00
2.064813013092440475e+00
2.064813013092440475e+00
1.988123172704245212e+00
2.015499008148442073e+00
2.015499008148442073e+00
2.074000793481246330e+00
1.973872737815485001e+00
1.973872737815485001e+00
1.981560472426526776e+00
1.901870540482802907e+00
1.901870540482802907e+00
1.964872463148899850e+00
1.964872463148899850e+00
2.071000701925717724e+00
2.207692373424482213e+00
2.207692373424482213e+00
2.375322489089632505e+00
2.375322489089632505e+00
2.098751548814355772e+00
1.911433332316049727e+00
1.911433332316049727e+00
2.046249946592608282e+00
2.046249946592608282e+00
2.062000427259132795e+00
2.047374980925931620e+00
2.047374980925931620e+00
2.007436262092959556e+00
2.114502029480880285e+00
2.114502029480880285e+00
2.075688344981231115e+00
2.075688344981231115e+00
2.140940336313974068e+00
2.257193884090700653e+00
2.257193884090700653e+00
2.149940610980559885e+00
2.149940610980559885e+00
2.004061159092989985e+00
2.090126285592211808e+00
2.090126285592211808e+00
2.056000244148076028e+00
2.059000335703604190e+00
2.059000335703604190e+00
2.026936857203894160e+00
2.026936857203894160e+00
1.975560289315469786e+00
1.971997680593279956e+00
1.971997680593279956e+00
2.014936490981780626e+00
2.014936490981780626e+00
2.012311410870692985e+00
2.077750907925656865e+00
2.077750907925656865e+00
2.047187475203710694e+00
2.047187475203710694e+00
2.042499832148198191e+00
2.063875484481338063e+00
2.063875484481338063e+00
2.113376995147556947e+00
2.078125919370098273e+00
2.078125919370098273e+00
2.083376079592272667e+00
2.083376079592272667e+00
2.073813287759025847e+00
2.133627613147373925e+00
2.133627613147373925e+00
2.111876949369793088e+00
2.111876949369793088e+00
2.060687887203588975e+00
2.080750999481185470e+00
2.080750999481185470e+00
2.082626056703390294e+00
2.082626056703390294e+00
2.092751365703299449e+00
2.127439924314096675e+00
2.127439924314096675e+00
2.050750083925901190e+00
2.050750083925901190e+00
1.979122898037659839e+00
1.969372600482192537e+00
1.969372600482192537e+00
2.030311960203863730e+00
2.047187475203710694e+00
2.047187475203710694e+00
2.044374889370403459e+00
2.044374889370403459e+00
2.149378093813898438e+00
2.164566057313760616e+00
2.164566057313760616e+00
2.042312326425977265e+00
2.042312326425977265e+00
2.077750907925656865e+00
2.113564500869777874e+00
2.113564500869777874e+00
2.093876400036621899e+00
2.087688711203345093e+00
2.087688711203345093e+00
2.086376171147801273e+00
2.086376171147801273e+00
2.053375164036988387e+00
2.060312875759148010e+00
2.060312875759148010e+00
2.051875118259224084e+00
2.051875118259224084e+00
2.011748893704031538e+00
2.038562211981566730e+00
2.038562211981566730e+00
2.058812829981383707e+00
2.058812829981383707e+00
2.079063447981200685e+00
2.103439191869869163e+00
2.103439191869869163e+00
2.091251319925535146e+00
2.128939970091860534e+00
2.128939970091860534e+00
2.096688985869930022e+00
2.096688985869930022e+00
2.101939146092104860e+00
2.049437543870357370e+00
2.049437543870357370e+00
1.958872280037843083e+00
1.958872280037843083e+00
2.124439832758568070e+00
2.074750816370128703e+00
2.074750816370128703e+00
2.027311868648335125e+00
2.027311868648335125e+00
2.044374889370403459e+00
2.088251228370006540e+00
2.088251228370006540e+00
2.073813287759025847e+00
2.073813287759025847e+00
2.054687704092532208e+00
2.063312967314676172e+00
2.063312967314676172e+00
2.091063814203314664e+00
2.091063814203314664e+00
2.092001342814417075e+00
2.071563219092379615e+00
2.071563219092379615e+00
2.084688619647816488e+00
2.067438093203528116e+00
2.067438093203528116e+00
2.101751640369884377e+00
2.101751640369884377e+00
2.111126926480910715e+00
1.991873287148655747e+00
1.991873287148655747e+00
1.992810815759758380e+00
1.992810815759758380e+00
2.039874752037110550e+00
2.046062440870388244e+00
2.046062440870388244e+00
2.059562852870265637e+00
2.056375255592516993e+00
2.056375255592516993e+00
2.050375072481459782e+00
2.050375072481459782e+00
2.085063631092257452e+00
2.085626148258918899e+00
2.085626148258918899e+00
2.119752189703054679e+00
2.119752189703054679e+00
2.125939878536332373e+00
2.060500381481368493e+00
2.060500381481368493e+00
2.031436994537187068e+00
2.031436994537187068e+00
2.052625141148106458e+00
2.090313791314432290e+00
2.090313791314432290e+00
2.077375896481215900e+00
2.077375896481215900e+00
2.067063081759087151e+00
2.064438001647999510e+00
2.064438001647999510e+00
2.053562669759208870e+00
2.059000335703604190e+00
2.059000335703604190e+00
2.075125827814569668e+00
2.075125827814569668e+00
2.062375438703573760e+00
2.079438459425641650e+00
2.079438459425641650e+00
2.082626056703390294e+00
2.082626056703390294e+00
2.067438093203528116e+00
2.039499740592669585e+00
2.039499740592669585e+00
2.061250404370250422e+00
2.061250404370250422e+00
2.015499008148442073e+00
2.029936948759422766e+00
2.029936948759422766e+00
2.057312784203619849e+00
2.057312784203619849e+00
2.076250862147892562e+00
2.040624774925992480e+00
2.040624774925992480e+00
2.063125461592455689e+00
2.063125461592455689e+00
2.033687063203833301e+00
2.026749351481673678e+00
2.026749351481673678e+00
2.060312875759148010e+00
2.070250679036835795e+00
2.070250679036835795e+00
2.072313241981261545e+00
2.072313241981261545e+00
2.085626148258918899e+00
2.114502029480880285e+00
2.114502029480880285e+00
2.097439008758812395e+00
2.097439008758812395e+00
2.053000152592547423e+00
2.068000610370189563e+00
2.068000610370189563e+00
2.074375804925687294e+00
2.074375804925687294e+00
2.075313333536790150e+00
2.074188299203466812e+00
2.074188299203466812e+00
2.070813196203497242e+00
2.070813196203497242e+00
2.078125919370098273e+00
2.083001068147831703e+00
2.083001068147831703e+00
2.092938871425519931e+00
2.074750816370128703e+00
2.074750816370128703e+00
2.083001068147831703e+00
2.083001068147831703e+00
2.060500381481368493e+00
2.064438001647999510e+00
2.064438001647999510e+00
2.054875209814752690e+00
2.054875209814752690e+00
2.048312509537034032e+00
2.061062898648029940e+00
2.061062898648029940e+00
2.067438093203528116e+00
2.067438093203528116e+00
2.079813470870083059e+00
2.069688161870173904e+00
2.069688161870173904e+00
2.089376262703329878e+00
2.085813653981139382e+00
2.085813653981139382e+00
2.085251136814477935e+00
2.085251136814477935e+00
2.002748619037446165e+00
1.995998413037507468e+00
1.995998413037507468e+00
2.052437635425885976e+00
2.052437635425885976e+00
2.102314157536546269e+00
2.069875667592394830e+00
2.069875667592394830e+00
2.047562486648152102e+00
2.047562486648152102e+00
2.080938505203405953e+00
2.038749717703787212e+00
2.038749717703787212e+00
2.067625598925748598e+00
2.067625598925748598e+00
2.111126926480910715e+00
2.060500381481368493e+00
2.060500381481368493e+00
2.032749534592730889e+00
2.023374248481704107e+00
2.023374248481704107e+00
2.052250129703665493e+00
2.052250129703665493e+00
2.041937314981536300e+00
2.017749076815088305e+00
2.017749076815088305e+00
2.024311777092806519e+00
2.024311777092806519e+00
2.039312234870449103e+00
2.101564134647663895e+00
2.101564134647663895e+00
2.176566423535874595e+00
2.176566423535874595e+00
2.143377910702841227e+00
2.092751365703299449e+00
2.092751365703299449e+00
2.087313699758903685e+00
2.087313699758903685e+00
2.049062532425916405e+00
2.060500381481368493e+00
2.060500381481368493e+00
2.051500106814783120e+00
2.051500106814783120e+00
2.071188207647938206e+00
2.071375713370158689e+00
2.071375713370158689e+00
2.056000244148076028e+00
2.049062532425916405e+00
2.049062532425916405e+00
2.042687337870418673e+00
2.042687337870418673e+00
2.045687429425947279e+00
2.057500289925840331e+00
2.057500289925840331e+00
2.049625049592577852e+00
2.049625049592577852e+00
2.074563310647907777e+00
2.023186742759483625e+00
2.023186742759483625e+00
2.038187200537125765e+00
2.038187200537125765e+00
2.070813196203497242e+00
2.082626056703390294e+00
2.082626056703390294e+00
2.083188573870052185e+00
2.051312601092562637e+00
2.051312601092562637e+00
2.004623676259651432e+00
2.004623676259651432e+00
2.036687154759361462e+00
2.093688894314401416e+00
2.093688894314401416e+00
2.100064088869899592e+00
2.100064088869899592e+00
2.029936948759422766e+00
2.076813379314554453e+00
2.076813379314554453e+00
2.106251777703176842e+00
2.106251777703176842e+00
2.060687887203588975e+00
2.054687704092532208e+00
2.054687704092532208e+00
2.065188024536881883e+00
2.065188024536881883e+00
2.070063173314615312e+00
2.064625507370219992e+00
2.064625507370219992e+00
2.071750724814600098e+00
2.071750724814600098e+00
2.065188024536881883e+00
2.069688161870173904e+00
2.069688161870173904e+00
2.066875576036866669e+00
2.054875209814752690e+00
2.054875209814752690e+00
2.074750816370128703e+00
2.074750816370128703e+00
2.056937772759178884e+00
2.082063539536728847e+00
2.082063539536728847e+00
