2.049812555314798335e+00
2.055812738425855546e+00
2.057687795648060813e+00
2.057687795648060813e+00
2.055250221259193655e+00
2.055250221259193655e+00
2.058437818536942299e+00
2.056000244148076028e+00
2.056000244148076028e+00
2.067438093203528116e+00
2.067438093203528116e+00
2.067063081759087151e+00
2.060500381481368493e+00
2.060500381481368493e+00
2.060875392925809457e+00
2.060875392925809457e+00
2.061250404370250422e+00
2.061625415814691387e+00
2.061625415814691387e+00
2.064250495925779028e+00
2.072125736259041062e+00
2.072125736259041062e+00
2.072688253425702509e+00
2.072688253425702509e+00
2.068938138981292418e+00
2.059000335703604190e+00
2.059000335703604190e+00
2.059375347148045154e+00
2.059375347148045154e+00
2.056562761314737475e+00
2.054500198370311725e+00
2.054500198370311725e+00
2.052062623981445011e+00
2.052250129703665493e+00
2.052250129703665493e+00
2.071750724814600098e+00
2.071938230536820580e+00
2.071938230536820580e+00
2.055062715536973172e+00
2.055062715536973172e+00
2.052812646870326940e+00
2.055062715536973172e+00
2.055062715536973172e+00
2.058437818536942299e+00
2.058437818536942299e+00
2.065000518814661401e+00
2.062937955870235207e+00
2.062937955870235207e+00
2.061062898648029940e+00
2.064438001647999510e+00
2.064438001647999510e+00
2.057500289925840331e+00
2.057500289925840331e+00
2.058437818536942299e+00
2.064813013092440475e+00
2.064813013092440475e+00
2.061062898648029940e+00
2.061062898648029940e+00
2.061437910092470904e+00
2.060312875759148010e+00
2.060312875759148010e+00
2.061812921536912313e+00
2.061812921536912313e+00
2.065563035981322848e+00
2.061625415814691387e+00
2.061625415814691387e+00
2.055437726981414581e+00
2.064062990203558545e+00
2.064062990203558545e+00
2.057687795648060813e+00
2.057687795648060813e+00
2.061062898648029940e+00
2.062375438703573760e+00
2.062375438703573760e+00
2.062000427259132795e+00
2.067625598925748598e+00
2.067625598925748598e+00
2.072500747703482027e+00
2.072500747703482027e+00
2.061437910092470904e+00
2.058625324259163225e+00
2.058625324259163225e+00
2.051500106814783120e+00
2.051500106814783120e+00
1.946871913815729327e+00
2.090313791314432290e+00
2.090313791314432290e+00
2.077375896481215900e+00
2.077375896481215900e+00
2.080938505203405953e+00
2.083001068147831703e+00
2.083001068147831703e+00
2.065375530259102366e+00
2.060312875759148010e+00
2.060312875759148010e+00
2.065000518814661401e+00
2.065000518814661401e+00
2.074375804925687294e+00
2.066125553147984295e+00
2.066125553147984295e+00
2.070250679036835795e+00
2.070250679036835795e+00
2.068750633259071936e+00
2.054500198370311725e+00
2.054500198370311725e+00
2.054312692648091243e+00
2.054312692648091243e+00
2.052437635425885976e+00
2.055625232703635064e+00
2.055625232703635064e+00
2.061437910092470904e+00
2.060125370036927084e+00
2.060125370036927084e+00
2.060500381481368493e+00
2.060500381481368493e+00
2.063687978759117581e+00
2.067438093203528116e+00
2.067438093203528116e+00
2.063500473036897098e+00
2.063500473036897098e+00
2.056937772759178884e+00
2.058812829981383707e+00
2.058812829981383707e+00
2.061250404370250422e+00
2.061250404370250422e+00
2.061062898648029940e+00
2.055812738425855546e+00
2.055812738425855546e+00
2.059375347148045154e+00
2.059375347148045154e+00
2.072313241981261545e+00
2.068188116092410045e+00
2.068188116092410045e+00
2.064625507370219992e+00
2.069125644703512901e+00
2.069125644703512901e+00
2.063312967314676172e+00
2.063312967314676172e+00
2.059937864314706601e+00
2.065000518814661401e+00
2.065000518814661401e+00
2.068188116092410045e+00
2.068188116092410045e+00
2.069688161870173904e+00
2.071750724814600098e+00
2.071750724814600098e+00
2.007811273537400520e+00
2.007811273537400520e+00
2.082626056703390294e+00
2.060125370036927084e+00
2.060125370036927084e+00
2.058250312814721816e+00
2.058250312814721816e+00
2.059000335703604190e+00
2.063125461592455689e+00
2.063125461592455689e+00
2.065938047425763813e+00
2.060312875759148010e+00
2.060312875759148010e+00
2.065375530259102366e+00
2.065375530259102366e+00
2.069688161870173904e+00
2.079625965147862576e+00
2.079625965147862576e+00
2.064250495925779028e+00
2.064250495925779028e+00
2.052625141148106458e+00
2.063500473036897098e+00
2.063500473036897098e+00
2.056750267036957958e+00
2.056750267036957958e+00
2.045687429425947279e+00
2.048312509537034032e+00
2.048312509537034032e+00
2.052812646870326940e+00
2.052812646870326940e+00
2.058625324259163225e+00
2.059187841425824672e+00
2.059187841425824672e+00
2.067813104647969080e+00
2.067813104647969080e+00
2.072125736259041062e+00
2.069500656147953865e+00
2.069500656147953865e+00
2.057687795648060813e+00
2.050375072481459782e+00
2.050375072481459782e+00
2.052062623981445011e+00
2.052062623981445011e+00
2.057312784203619849e+00
2.057687795648060813e+00
2.057687795648060813e+00
2.061625415814691387e+00
2.061625415814691387e+00
2.066875576036866669e+00
2.072313241981261545e+00
2.072313241981261545e+00
2.067813104647969080e+00
2.067813104647969080e+00
2.058250312814721816e+00
2.059937864314706601e+00
2.059937864314706601e+00
2.053750175481429796e+00
2.047187475203710694e+00
2.047187475203710694e+00
2.055062715536973172e+00
2.055062715536973172e+00
2.055062715536973172e+00
2.062562944425794242e+00
2.062562944425794242e+00
2.068188116092410045e+00
2.068188116092410045e+00
2.063312967314676172e+00
2.061437910092470904e+00
2.061437910092470904e+00
2.060875392925809457e+00
2.057125278481399366e+00
2.057125278481399366e+00
2.055437726981414581e+00
2.055437726981414581e+00
2.052250129703665493e+00
2.061250404370250422e+00
2.061250404370250422e+00
2.053750175481429796e+00
2.053750175481429796e+00
2.057312784203619849e+00
2.057500289925840331e+00
2.057500289925840331e+00
2.062000427259132795e+00
2.062000427259132795e+00
2.063125461592455689e+00
2.058625324259163225e+00
2.058625324259163225e+00
2.071563219092379615e+00
2.074375804925687294e+00
2.074375804925687294e+00
2.072875759147922992e+00
2.072875759147922992e+00
2.067063081759087151e+00
2.066500564592425260e+00
2.066500564592425260e+00
2.065750541703543330e+00
2.065750541703543330e+00
2.066688070314646186e+00
2.069875667592394830e+00
2.069875667592394830e+00
2.062187932981353278e+00
2.061250404370250422e+00
2.061250404370250422e+00
2.056000244148076028e+00
2.056000244148076028e+00
2.054125186925870761e+00
2.066125553147984295e+00
2.066125553147984295e+00
2.061250404370250422e+00
2.061250404370250422e+00
2.060875392925809457e+00
2.069313150425733383e+00
2.069313150425733383e+00
2.073250770592364400e+00
2.073250770592364400e+00
2.061250404370250422e+00
2.060875392925809457e+00
2.060875392925809457e+00
2.060125370036927084e+00
2.060125370036927084e+00
2.065938047425763813e+00
2.072688253425702509e+00
2.072688253425702509e+00
2.066313058870204777e+00
2.066313058870204777e+00
2.061437910092470904e+00
2.056562761314737475e+00
2.056562761314737475e+00
2.053375164036988387e+00
2.053375164036988387e+00
2.065000518814661401e+00
2.057687795648060813e+00
2.057687795648060813e+00
2.058062807092501334e+00
2.055812738425855546e+00
2.055812738425855546e+00
2.057875301370280852e+00
2.057875301370280852e+00
2.050000061037018817e+00
2.050562578203680708e+00
2.050562578203680708e+00
2.059375347148045154e+00
2.059375347148045154e+00
2.095001434369945237e+00
2.069688161870173904e+00
2.069688161870173904e+00
2.030686971648304695e+00
2.030686971648304695e+00
2.028061891537217498e+00
2.035562120426038124e+00
2.035562120426038124e+00
2.063312967314676172e+00
2.063312967314676172e+00
2.099876583147679110e+00
2.103251686147648680e+00
2.103251686147648680e+00
2.080750999481185470e+00
2.080750999481185470e+00
2.085813653981139382e+00
2.085626148258918899e+00
2.085626148258918899e+00
2.071750724814600098e+00
2.060125370036927084e+00
2.060125370036927084e+00
2.060687887203588975e+00
2.060687887203588975e+00
2.054500198370311725e+00
2.071563219092379615e+00
2.071563219092379615e+00
2.052625141148106458e+00
2.052625141148106458e+00
2.044937406537064906e+00
2.031624500259407551e+00
2.031624500259407551e+00
2.030686971648304695e+00
2.030686971648304695e+00
2.038937223426007694e+00
2.046249946592608282e+00
2.046249946592608282e+00
2.084501113925596005e+00
2.084501113925596005e+00
2.108126834925382109e+00
2.084313608203375079e+00
2.084313608203375079e+00
2.096313974425489057e+00
2.096313974425489057e+00
2.072688253425702509e+00
2.066313058870204777e+00
2.066313058870204777e+00
2.043249855037080120e+00
2.055437726981414581e+00
2.055437726981414581e+00
2.072688253425702509e+00
2.072688253425702509e+00
2.074000793481246330e+00
2.065000518814661401e+00
2.065000518814661401e+00
2.070063173314615312e+00
2.070063173314615312e+00
2.069313150425733383e+00
2.078688436536759720e+00
2.078688436536759720e+00
2.061250404370250422e+00
2.061250404370250422e+00
2.046249946592608282e+00
2.044937406537064906e+00
2.044937406537064906e+00
2.039312234870449103e+00
2.039312234870449103e+00
2.032937040314951371e+00
2.061250404370250422e+00
2.061250404370250422e+00
2.074000793481246330e+00
2.093501388592180934e+00
2.093501388592180934e+00
2.095751457258827610e+00
2.095751457258827610e+00
2.078688436536759720e+00
2.057687795648060813e+00
2.057687795648060813e+00
2.045874935148167761e+00
2.045874935148167761e+00
2.047749992370372585e+00
2.062187932981353278e+00
2.062187932981353278e+00
2.068188116092410045e+00
2.068188116092410045e+00
2.083751091036713632e+00
2.088813745536667987e+00
2.088813745536667987e+00
2.062750450148014725e+00
2.062750450148014725e+00
2.034249580370494748e+00
2.069313150425733383e+00
2.069313150425733383e+00
2.074938322092349186e+00
2.071188207647938206e+00
2.071188207647938206e+00
2.076813379314554453e+00
2.076813379314554453e+00
2.089563768425550361e+00
2.067625598925748598e+00
2.067625598925748598e+00
2.050562578203680708e+00
2.050562578203680708e+00
2.063312967314676172e+00
2.045124912259285388e+00
2.045124912259285388e+00
2.018311593981750196e+00
2.018311593981750196e+00
2.047187475203710694e+00
2.075688344981231115e+00
2.075688344981231115e+00
2.067063081759087151e+00
2.067063081759087151e+00
2.070063173314615312e+00
2.084313608203375079e+00
2.084313608203375079e+00
2.066500564592425260e+00
2.066500564592425260e+00
2.037812189092684800e+00
1.999936033204138486e+00
1.999936033204138486e+00
2.029186925870540392e+00
2.099876583147679110e+00
2.099876583147679110e+00
2.108501846369823074e+00
2.108501846369823074e+00
2.136815210425123013e+00
2.149753105258339403e+00
2.149753105258339403e+00
2.092751365703299449e+00
2.092751365703299449e+00
2.078875942258980203e+00
2.071563219092379615e+00
2.071563219092379615e+00
2.010061342204047197e+00
2.010061342204047197e+00
2.034624591814935712e+00
2.058062807092501334e+00
2.058062807092501334e+00
2.080000976592303541e+00
2.077375896481215900e+00
2.077375896481215900e+00
2.055437726981414581e+00
2.055437726981414581e+00
2.053000152592547423e+00
2.054687704092532208e+00
2.054687704092532208e+00
2.076625873592333971e+00
2.076625873592333971e+00
2.093313882869960452e+00
2.066688070314646186e+00
2.066688070314646186e+00
2.050375072481459782e+00
2.050375072481459782e+00
2.033687063203833301e+00
2.038187200537125765e+00
2.038187200537125765e+00
2.027499374370555607e+00
2.027499374370555607e+00
2.086751182592242237e+00
2.090876308481094181e+00
2.090876308481094181e+00
2.101376628925443413e+00
2.101376628925443413e+00
2.089001251258888470e+00
2.078500930814539238e+00
2.078500930814539238e+00
2.035562120426038124e+00
2.007436262092959556e+00
2.007436262092959556e+00
2.039874752037110550e+00
2.039874752037110550e+00
2.098751548814355772e+00
2.094626422925504272e+00
2.094626422925504272e+00
2.072313241981261545e+00
2.072313241981261545e+00
2.025249305703909375e+00
2.028999420148319910e+00
2.028999420148319910e+00
2.070250679036835795e+00
2.070250679036835795e+00
2.059375347148045154e+00
2.059750358592486119e+00
2.059750358592486119e+00
2.105126743369853504e+00
2.128564958647419569e+00
2.128564958647419569e+00
2.077000885036774935e+00
2.077000885036774935e+00
1.998435987426374183e+00
2.031624500259407551e+00
2.031624500259407551e+00
2.074938322092349186e+00
2.074938322092349186e+00
2.071750724814600098e+00
2.054687704092532208e+00
2.054687704092532208e+00
2.040624774925992480e+00
2.040624774925992480e+00
2.040999786370433888e+00
2.042874843592639156e+00
2.042874843592639156e+00
2.048312509537034032e+00
2.048312509537034032e+00
2.046624958037049247e+00
2.031999511703848516e+00
2.031999511703848516e+00
2.038187200537125765e+00
2.051125095370342155e+00
2.051125095370342155e+00
2.066875576036866669e+00
2.066875576036866669e+00
2.087501205481124167e+00
2.064250495925779028e+00
2.064250495925779028e+00
2.067625598925748598e+00
2.067625598925748598e+00
2.075125827814569668e+00
2.056375255592516993e+00
2.056375255592516993e+00
2.029561937314981801e+00
2.029561937314981801e+00
1.989248207037568328e+00
1.985310586870937088e+00
1.985310586870937088e+00
2.042499832148198191e+00
2.051312601092562637e+00
2.051312601092562637e+00
2.087501205481124167e+00
2.087501205481124167e+00
2.141315347758415477e+00
2.155565782647175688e+00
2.155565782647175688e+00
2.115064546647541732e+00
2.115064546647541732e+00
2.106814294869838289e+00
2.065375530259102366e+00
2.065375530259102366e+00
2.057125278481399366e+00
2.015311502426221590e+00
2.015311502426221590e+00
1.976310312204351938e+00
1.976310312204351938e+00
1.968997589037751350e+00
2.016999053926206376e+00
2.016999053926206376e+00
2.059375347148045154e+00
2.059375347148045154e+00
2.068750633259071936e+00
2.113376995147556947e+00
2.113376995147556947e+00
2.106064271980956359e+00
2.106064271980956359e+00
2.067813104647969080e+00
2.049437543870357370e+00
2.049437543870357370e+00
2.077750907925656865e+00
2.077750907925656865e+00
2.065750541703543330e+00
2.071375713370158689e+00
2.071375713370158689e+00
2.048687520981474997e+00
2.048687520981474997e+00
2.054312692648091243e+00
2.025249305703909375e+00
2.025249305703909375e+00
2.005936216315195253e+00
2.031061983092746104e+00
2.031061983092746104e+00
2.062562944425794242e+00
2.062562944425794242e+00
2.067250587481307633e+00
2.082626056703390294e+00
2.082626056703390294e+00
2.041562303537095335e+00
2.041562303537095335e+00
2.026936857203894160e+00
2.068563127536851454e+00
2.068563127536851454e+00
2.070063173314615312e+00
2.070063173314615312e+00
2.110376903592028786e+00
2.076063356425672080e+00
2.076063356425672080e+00
2.044937406537064906e+00
2.044937406537064906e+00
2.040812280648213406e+00
2.051875118259224084e+00
2.051875118259224084e+00
2.042687337870418673e+00
2.042687337870418673e+00
2.031812005981628033e+00
2.040437269203771997e+00
2.040437269203771997e+00
2.007811273537400520e+00
2.017936582537308787e+00
2.017936582537308787e+00
2.094438917203283790e+00
2.094438917203283790e+00
2.098001525925473842e+00
2.087876216925565576e+00
2.087876216925565576e+00
2.066688070314646186e+00
2.066688070314646186e+00
2.068563127536851454e+00
2.085063631092257452e+00
2.085063631092257452e+00
2.090126285592211808e+00
2.090126285592211808e+00
2.058250312814721816e+00
2.034624591814935712e+00
2.034624591814935712e+00
2.025999328592791304e+00
2.025999328592791304e+00
1.992998321481978863e+00
2.011748893704031538e+00
2.011748893704031538e+00
2.011373882259590129e+00
2.070063173314615312e+00
2.070063173314615312e+00
2.080563493758964988e+00
2.080563493758964988e+00
2.046062440870388244e+00
2.076063356425672080e+00
2.076063356425672080e+00
2.100439100314340557e+00
2.100439100314340557e+00
2.096876491592150504e+00
2.071938230536820580e+00
2.071938230536820580e+00
2.096688985869930022e+00
2.096688985869930022e+00
2.063125461592455689e+00
2.052437635425885976e+00
2.052437635425885976e+00
2.070250679036835795e+00
2.070250679036835795e+00
2.047187475203710694e+00
2.032749534592730889e+00
2.032749534592730889e+00
2.037999694814905283e+00
2.037999694814905283e+00
2.030686971648304695e+00
2.040437269203771997e+00
2.040437269203771997e+00
2.114502029480880285e+00
2.095938962981048093e+00
2.095938962981048093e+00
2.078500930814539238e+00
2.078500930814539238e+00
2.077750907925656865e+00
2.075688344981231115e+00
2.075688344981231115e+00
2.043999877925962494e+00
2.053000152592547423e+00
2.053000152592547423e+00
2.001061067537461380e+00
2.001061067537461380e+00
2.031624500259407551e+00
2.032749534592730889e+00
2.032749534592730889e+00
2.024311777092806519e+00
2.024311777092806519e+00
1.968810083315530868e+00
2.008373790704061967e+00
2.008373790704061967e+00
2.036124637592700015e+00
2.036124637592700015e+00
2.120689718314157535e+00
2.123877315591906623e+00
2.123877315591906623e+00
2.112064455092013571e+00
2.112064455092013571e+00
2.059187841425824672e+00
2.081501022370067400e+00
2.081501022370067400e+00
2.087126194036683202e+00
2.087126194036683202e+00
2.055062715536973172e+00
2.083376079592272667e+00
2.083376079592272667e+00
2.116377086703085553e+00
2.110001892147587377e+00
2.110001892147587377e+00
2.079625965147862576e+00
2.079625965147862576e+00
2.046624958037049247e+00
2.084501113925596005e+00
2.084501113925596005e+00
2.161565965758232455e+00
2.161565965758232455e+00
2.054125186925870761e+00
1.942559282204657345e+00
1.942559282204657345e+00
1.935246559038056535e+00
1.935246559038056535e+00
1.967685048982207752e+00
1.978372875148777910e+00
1.978372875148777910e+00
2.058437818536942299e+00
2.058437818536942299e+00
2.155003265480513797e+00
2.127439924314096675e+00
2.127439924314096675e+00
2.104376720480972018e+00
2.111689443647572162e+00
2.111689443647572162e+00
2.084126102481154597e+00
2.084126102481154597e+00
2.032187017426068998e+00
2.017749076815088305e+00
2.017749076815088305e+00
2.052250129703665493e+00
2.052250129703665493e+00
2.116189580980865070e+00
2.159878414258247670e+00
2.159878414258247670e+00
2.033499557481612818e+00
2.033499557481612818e+00
1.983435529648732043e+00
2.017561571092867823e+00
2.017561571092867823e+00
2.008936307870723859e+00
2.008936307870723859e+00
2.107564317758720662e+00
2.108876857814264483e+00
2.108876857814264483e+00
2.073438276314584883e+00
2.092938871425519931e+00
2.092938871425519931e+00
2.110001892147587377e+00
2.110001892147587377e+00
2.097814020203253360e+00
2.043437360759300603e+00
2.043437360759300603e+00
1.917621021149327198e+00
1.917621021149327198e+00
1.964309945982238181e+00
2.095376445814386202e+00
2.095376445814386202e+00
2.110001892147587377e+00
2.110001892147587377e+00
2.079063447981200685e+00
2.084126102481154597e+00
2.084126102481154597e+00
2.085063631092257452e+00
2.085063631092257452e+00
2.040624774925992480e+00
2.058625324259163225e+00
2.058625324259163225e+00
2.122002258369701355e+00
2.091063814203314664e+00
2.091063814203314664e+00
2.057687795648060813e+00
2.057687795648060813e+00
2.039687246314890068e+00
2.084313608203375079e+00
2.033499557481612818e+00
2.033499557481612818e+00
2.002748619037446165e+00
2.077000885036774935e+00
2.077000885036774935e+00
2.193254432813501520e+00
2.193254432813501520e+00
2.184441663869136629e+00
2.139815301980651618e+00
2.139815301980651618e+00
2.069875667592394830e+00
2.069875667592394830e+00
1.992810815759758380e+00
2.013436445204016323e+00
2.013436445204016323e+00
2.041562303537095335e+00
2.041562303537095335e+00
2.047937498092593067e+00
2.057500289925840331e+00
2.057500289925840331e+00
2.160628437147130043e+00
2.166628620258186366e+00
2.166628620258186366e+00
2.067813104647969080e+00
2.067813104647969080e+00
2.158003357036042402e+00
2.158003357036042402e+00
2.069500656147953865e+00
2.014936490981780626e+00
2.014936490981780626e+00
2.057500289925840331e+00
2.057500289925840331e+00
2.061250404370250422e+00
1.944059327982421204e+00
1.944059327982421204e+00
1.939934202093569704e+00
1.939934202093569704e+00
1.996935941648609880e+00
2.062750450148014725e+00
2.062750450148014725e+00
2.005561204870754288e+00
1.975372783593249304e+00
1.975372783593249304e+00
1.923621204260383966e+00
1.923621204260383966e+00
2.100814111758781966e+00
2.249506149479659545e+00
2.249506149479659545e+00
2.184066652424695665e+00
2.184066652424695665e+00
2.080375988036744506e+00
1.977060335093234089e+00
1.977060335093234089e+00
1.933559007538071750e+00
2.114127018036439321e+00
2.114127018036439321e+00
2.156503311258278099e+00
2.170191228980376863e+00
2.170191228980376863e+00
2.047749992370372585e+00
2.047749992370372585e+00
1.952122074037903943e+00
2.010436353648488161e+00
2.010436353648488161e+00
2.007623767815180038e+00
2.136815210425123013e+00
2.136815210425123013e+00
2.252506241035188150e+00
2.252506241035188150e+00
2.109251869258705447e+00
2.053000152592547423e+00
2.053000152592547423e+00
2.028811914426099428e+00
2.010623859370708644e+00
2.010623859370708644e+00
2.065188024536881883e+00
2.065188024536881883e+00
2.084876125370036970e+00
2.171878780480361648e+00
2.171878780480361648e+00
2.137940244758446351e+00
2.137940244758446351e+00
2.124814844203009478e+00
2.152003173924985191e+00
2.152003173924985191e+00
2.111876949369793088e+00
2.111876949369793088e+00
1.955497177037873513e+00
1.997498458815271549e+00
1.997498458815271549e+00
2.074188299203466812e+00
2.082063539536728847e+00
2.082063539536728847e+00
2.142815393536179780e+00
2.142815393536179780e+00
2.079063447981200685e+00
2.070250679036835795e+00
2.070250679036835795e+00
2.179379009369182274e+00
2.179379009369182274e+00
2.095001434369945237e+00
1.976685323648793124e+00
1.976685323648793124e+00
1.855181615649891702e+00
1.855181615649891702e+00
1.822743125705740486e+00
2.005373699148533806e+00
2.005373699148533806e+00
2.147878048036134135e+00
2.147878048036134135e+00
2.083376079592272667e+00
2.072875759147922992e+00
2.072875759147922992e+00
2.100064088869899592e+00
1.919683584093752948e+00
1.919683584093752948e+00
1.892495254371776570e+00
1.892495254371776570e+00
2.004248664815210468e+00
1.972560197759941625e+00
1.972560197759941625e+00
1.541859553819391548e+00
1.541859553819391548e+00
1.855369121372112406e+00
2.503013885921811621e+00
2.503013885921811621e+00
2.554015442365794808e+00
2.554015442365794808e+00
2.362009582811975594e+00
2.205817316202276945e+00
2.205817316202276945e+00
2.093501388592180934e+00
1.995810907315286764e+00
1.995810907315286764e+00
1.977810357982116241e+00
1.977810357982116241e+00
1.977060335093234089e+00
2.054500198370311725e+00
2.054500198370311725e+00
2.037249671926022909e+00
2.174503860591448845e+00
2.174503860591448845e+00
2.152190679647205673e+00
2.152190679647205673e+00
2.214067567979979945e+00
2.102501663258766751e+00
2.102501663258766751e+00
2.015123996704001108e+00
2.015123996704001108e+00
2.086563676870021755e+00
2.068563127536851454e+00
2.068563127536851454e+00
2.054125186925870761e+00
1.994310861537522683e+00
1.994310861537522683e+00
1.929996398815881919e+00
1.929996398815881919e+00
1.878244819483016581e+00
1.969185094759971832e+00
2.021124179815057875e+00
2.021124179815057875e+00
2.024686788537247928e+00
2.113939512314218838e+00
2.113939512314218838e+00
2.295257545701467894e+00
2.111501937925351680e+00
2.111501937925351680e+00
2.142627887813959298e+00
2.142627887813959298e+00
2.203567247535630269e+00
2.020936674092837393e+00
2.020936674092837393e+00
1.907870723593859896e+00
1.907870723593859896e+00
1.926433790093691867e+00
1.911620838038270209e+00
1.911620838038270209e+00
1.929246375926999768e+00
1.929246375926999768e+00
2.030874477370525177e+00
2.175253883480330774e+00
2.175253883480330774e+00
2.042124820703756782e+00
2.042124820703756782e+00
2.167378643147068740e+00
2.320008301034577336e+00
2.320008301034577336e+00
2.312695577867977192e+00
2.175253883480330774e+00
2.175253883480330774e+00
2.059937864314706601e+00
2.059937864314706601e+00
1.952122074037903943e+00
1.956434705648976147e+00
1.956434705648976147e+00
2.016999053926206376e+00
2.016999053926206376e+00
2.068000610370189563e+00
2.021686696981719766e+00
2.021686696981719766e+00
1.965997497482223189e+00
1.995998413037507468e+00
1.995998413037507468e+00
2.128939970091860534e+00
2.128939970091860534e+00
2.077375896481215900e+00
2.048875026703695923e+00
2.048875026703695923e+00
1.821055574205755700e+00
1.821055574205755700e+00
1.966372508926664153e+00
2.080375988036744506e+00
2.080375988036744506e+00
2.103439191869869163e+00
1.945371868037965024e+00
1.945371868037965024e+00
2.099126560258797181e+00
2.099126560258797181e+00
2.066500564592425260e+00
2.233193151646474028e+00
2.233193151646474028e+00
2.158940885647145258e+00
2.158940885647145258e+00
2.198692098757896396e+00
2.359572008423108880e+00
2.359572008423108880e+00
2.064625507370219992e+00
1.947246925260170292e+00
1.947246925260170292e+00
1.874119693594164859e+00
1.874119693594164859e+00
1.938621662038026106e+00
2.035187108981597159e+00
2.035187108981597159e+00
1.996373424481948211e+00
1.996373424481948211e+00
2.030874477370525177e+00
2.245943540757469048e+00
2.245943540757469048e+00
2.031999511703848516e+00
2.031999511703848516e+00
2.233005645924253102e+00
2.302382763145847999e+00
2.302382763145847999e+00
2.106064271980956359e+00
2.106064271980956359e+00
1.899057954649495006e+00
1.849743949705496382e+00
1.849743949705496382e+00
2.091063814203314664e+00
2.187629261146885273e+00
2.187629261146885273e+00
2.080938505203405953e+00
2.080938505203405953e+00
1.946684408093508845e+00
1.986248115482039944e+00
1.986248115482039944e+00
1.986998138370922096e+00
1.986998138370922096e+00
1.988310678426465694e+00
1.919121066927091501e+00
1.919121066927091501e+00
2.084876125370036970e+00
2.084876125370036970e+00
2.126689901425214746e+00
2.191941892757957699e+00
2.191941892757957699e+00
2.179003997924741309e+00
2.210129947813348927e+00
2.210129947813348927e+00
2.044374889370403459e+00
2.044374889370403459e+00
1.843743766594439615e+00
2.022999237037263143e+00
2.022999237037263143e+00
2.051312601092562637e+00
2.051312601092562637e+00
2.206567339091158875e+00
2.153128208258308529e+00
2.153128208258308529e+00
1.979872920926541990e+00
1.979872920926541990e+00
1.822555619983520003e+00
1.777179235206152619e+00
1.777179235206152619e+00
1.896057863093966622e+00
1.896057863093966622e+00
2.080000976592303541e+00
2.326571001312295994e+00
2.326571001312295994e+00
2.339508896145511940e+00
2.457637501144443792e+00
2.217817682424390480e+00
2.217817682424390480e+00
2.407948484756004870e+00
2.420698873867000778e+00
2.420698873867000778e+00
1.954747154148991584e+00
1.954747154148991584e+00
1.738928067873165118e+00
1.543922116763817298e+00
1.543922116763817298e+00
1.674238593707083389e+00
1.674238593707083389e+00
1.808305185094760015e+00
2.076438367870113488e+00
2.076438367870113488e+00
2.006873744926298109e+00
2.006873744926298109e+00
1.970122623371074688e+00
2.175816400646992221e+00
2.175816400646992221e+00
2.459137546922208095e+00
2.293569994201483109e+00
2.293569994201483109e+00
2.019061616870632125e+00
2.019061616870632125e+00
1.839243629261146928e+00
1.802305001983703248e+00
1.802305001983703248e+00
2.164191045869319652e+00
2.164191045869319652e+00
2.068188116092410045e+00
1.933934018982512937e+00
1.933934018982512937e+00
1.997123447370830363e+00
1.997123447370830363e+00
2.221192785424360050e+00
2.173941343424787398e+00
2.173941343424787398e+00
2.085626148258918899e+00
2.271631824701681346e+00
2.271631824701681346e+00
2.194941984313486305e+00
1.970497634815515653e+00
1.970497634815515653e+00
1.922308664204840145e+00
1.922308664204840145e+00
2.360134525589770327e+00
2.378885097811823002e+00
2.378885097811823002e+00
1.872432142094180296e+00
1.872432142094180296e+00
1.723177587206640826e+00
1.865681936094241156e+00
1.865681936094241156e+00
1.977247840815454571e+00
1.977247840815454571e+00
1.934121524704733419e+00
2.136252693258461566e+00
2.136252693258461566e+00
2.274631916257209951e+00
2.198879604480116878e+00
2.198879604480116878e+00
2.057875301370280852e+00
2.057875301370280852e+00
1.919308572649311984e+00
2.042499832148198191e+00
2.042499832148198191e+00
2.231505600146489243e+00
2.231505600146489243e+00
2.200004638813440216e+00
2.200567155980101663e+00
2.200567155980101663e+00
2.262631550035096417e+00
2.262631550035096417e+00
1.796679830317087445e+00
1.630924771874141754e+00
1.630924771874141754e+00
1.736302987762077699e+00
1.736302987762077699e+00
2.105126743369853504e+00
2.281944639423810539e+00
2.281944639423810539e+00
2.180129032258064647e+00
1.985310586870937088e+00
1.985310586870937088e+00
2.023374248481704107e+00
2.023374248481704107e+00
2.094813928647724754e+00
1.972185186315500438e+00
1.972185186315500438e+00
2.398573198644978088e+00
2.398573198644978088e+00
2.057312784203619849e+00
2.128939970091860534e+00
2.128939970091860534e+00
1.914433423871578110e+00
1.914433423871578110e+00
1.649112826929532760e+00
2.013998962370677770e+00
2.013998962370677770e+00
2.422198919644764192e+00
2.422198919644764192e+00
2.730833338419751399e+00
2.195504501480147752e+00
2.195504501480147752e+00
1.751115939817499356e+00
1.852744041261024766e+00
2.004811181981871915e+00
1.922121158482619663e+00
1.922121158482619663e+00
1.823868160039063824e+00
1.823868160039063824e+00
2.144690450758385047e+00
2.242943449201941331e+00
2.242943449201941331e+00
2.086376171147801273e+00
1.982122989593188223e+00
1.982122989593188223e+00
2.360884548478652700e+00
2.360884548478652700e+00
2.252693746757408633e+00
1.993560838648640532e+00
1.993560838648640532e+00
1.901308023316141238e+00
1.901308023316141238e+00
1.934121524704733419e+00
1.941809259315775193e+00
1.941809259315775193e+00
2.012311410870692985e+00
2.012311410870692985e+00
2.048875026703695923e+00
1.897557908871730703e+00
2.107939329203161627e+00
2.091063814203314664e+00
2.091063814203314664e+00
2.136815210425123013e+00
2.172816309091464060e+00
2.172816309091464060e+00
2.210317453535568966e+00
2.210317453535568966e+00
2.052625141148106458e+00
2.097063997314370987e+00
2.097063997314370987e+00
2.040062257759331033e+00
1.934309030426953901e+00
1.934309030426953901e+00
1.760491225928525694e+00
1.760491225928525694e+00
2.024124271370586037e+00
2.590204046754356337e+00
2.590204046754356337e+00
2.289257362590411127e+00
2.289257362590411127e+00
2.013623950926236805e+00
1.796492324594866963e+00
1.796492324594866963e+00
1.917058503982665529e+00
1.917058503982665529e+00
1.785992004150517287e+00
1.890620197149571302e+00
1.890620197149571302e+00
2.180879055146946577e+00
2.615517319254127671e+00
2.615517319254127671e+00
2.305007843256935196e+00
1.911245826593829245e+00
1.911245826593829245e+00
2.093126377147739969e+00
1.995810907315286764e+00
1.995810907315286764e+00
1.909745780816064942e+00
1.909745780816064942e+00
2.129689992980742907e+00
2.094438917203283790e+00
2.094438917203283790e+00
1.958497268593401897e+00
1.980810449537644624e+00
1.980810449537644624e+00
1.897370403149510221e+00
1.897370403149510221e+00
2.010998870815149164e+00
2.124814844203009478e+00
2.124814844203009478e+00
2.197379558702353020e+00
2.197379558702353020e+00
2.161753471480452937e+00
1.997123447370830363e+00
1.997123447370830363e+00
2.136440198980682048e+00
2.136440198980682048e+00
2.055250221259193655e+00
2.006311227759636218e+00
2.006311227759636218e+00
2.049250038148136888e+00
2.187254249702444309e+00
2.187254249702444309e+00
2.083001068147831703e+00
2.083001068147831703e+00
1.964872463148899850e+00
1.916308481093783378e+00
1.916308481093783378e+00
2.050937589648121673e+00
2.050937589648121673e+00
2.093501388592180934e+00
2.070250679036835795e+00
2.070250679036835795e+00
2.335946287423322332e+00
2.335946287423322332e+00
2.214630085146641392e+00
2.133252601702932960e+00
2.133252601702932960e+00
2.232630634479812137e+00
1.842243720816675312e+00
1.842243720816675312e+00
1.908245735038300861e+00
1.908245735038300861e+00
1.887995117038483883e+00
1.987748161259804025e+00
1.987748161259804025e+00
2.196629535813471090e+00
2.196629535813471090e+00
2.195692007202368234e+00
2.092376354258858040e+00
2.092376354258858040e+00
2.066500564592425260e+00
2.066500564592425260e+00
1.968435071871089903e+00
1.887995117038483883e+00
1.887995117038483883e+00
1.810555253761406247e+00
1.944434339426862390e+00
1.944434339426862390e+00
2.019624134037293572e+00
2.019624134037293572e+00
2.198504593035676358e+00
2.194191961424603932e+00
2.194191961424603932e+00
2.347196630756553937e+00
2.311383037812433372e+00
2.029561937314981801e+00
2.029561937314981801e+00
2.021874202703940249e+00
2.021874202703940249e+00
2.035937131870479533e+00
1.951372051149021791e+00
1.951372051149021791e+00
2.024874294259468410e+00
2.024874294259468410e+00
2.045312417981505870e+00
2.165503585924863472e+00
2.165503585924863472e+00
2.055062715536973172e+00
2.005373699148533806e+00
2.005373699148533806e+00
2.049812555314798335e+00
2.049812555314798335e+00
2.207504867702261730e+00
2.187441755424664791e+00
2.187441755424664791e+00
1.966185003204443671e+00
1.966185003204443671e+00
1.874119693594164859e+00
2.027874385814997016e+00
2.027874385814997016e+00
2.117502121036408447e+00
2.117502121036408447e+00
2.008186284981841485e+00
1.994310861537522683e+00
1.994310861537522683e+00
2.006873744926298109e+00
2.006873744926298109e+00
1.901120517593920756e+00
2.074375804925687294e+00
2.074375804925687294e+00
2.082251045258949329e+00
2.082251045258949329e+00
2.151065645313883223e+00
2.074938322092349186e+00
2.074938322092349186e+00
2.081501022370067400e+00
2.081501022370067400e+00
2.302945280312509890e+00
2.199442121646778769e+00
2.199442121646778769e+00
2.060687887203588975e+00
2.007436262092959556e+00
2.007436262092959556e+00
2.002373607593005200e+00
2.002373607593005200e+00
1.834930997650074724e+00
2.071000701925717724e+00
2.071000701925717724e+00
2.288694845423749680e+00
2.288694845423749680e+00
2.063500473036897098e+00
2.071563219092379615e+00
2.071563219092379615e+00
2.099314065981017663e+00
2.099314065981017663e+00
2.068563127536851454e+00
2.088438734092227023e+00
2.088438734092227023e+00
2.067250587481307633e+00
2.079438459425641650e+00
2.079438459425641650e+00
2.074938322092349186e+00
2.074938322092349186e+00
2.076063356425672080e+00
2.027499374370555607e+00
2.027499374370555607e+00
1.987560655537583543e+00
1.987560655537583543e+00
2.221380291146580532e+00
2.144502945036164565e+00
2.144502945036164565e+00
1.977997863704336723e+00
1.977997863704336723e+00
2.111501937925351680e+00
2.052437635425885976e+00
2.052437635425885976e+00
2.111314432203131197e+00
2.111314432203131197e+00
1.990748252815332409e+00
1.843556260872219132e+00
1.843556260872219132e+00
1.878244819483016581e+00
2.044374889370403459e+00
2.044374889370403459e+00
2.080750999481185470e+00
2.080750999481185470e+00
2.175628894924771739e+00
2.170003723258155937e+00
2.170003723258155937e+00
2.037624683370464318e+00
2.037624683370464318e+00
1.999186010315256334e+00
1.946309396649067658e+00
1.946309396649067658e+00
2.096313974425489057e+00
2.096313974425489057e+00
2.129314981536301499e+00
2.084126102481154597e+00
2.084126102481154597e+00
1.917621021149327198e+00
1.917621021149327198e+00
1.973685232093264519e+00
2.390322946867275089e+00
2.390322946867275089e+00
2.224755394146549659e+00
1.998435987426374183e+00
1.998435987426374183e+00
1.981185460982085589e+00
1.981185460982085589e+00
2.032187017426068998e+00
2.080375988036744506e+00
2.080375988036744506e+00
2.075125827814569668e+00
2.075125827814569668e+00
2.112439466536454535e+00
2.089001251258888470e+00
2.089001251258888470e+00
1.953997131260109432e+00
1.953997131260109432e+00
2.098939054536576698e+00
2.124064821314127105e+00
2.124064821314127105e+00
2.092938871425519931e+00
2.036499649037140980e+00
2.036499649037140980e+00
2.093501388592180934e+00
2.093501388592180934e+00
2.000873561815240897e+00
2.028061891537217498e+00
2.028061891537217498e+00
2.078313425092318756e+00
2.188191778313547164e+00
2.188191778313547164e+00
2.116752098147526517e+00
2.116752098147526517e+00
1.965622486037782002e+00
1.914433423871578110e+00
1.914433423871578110e+00
1.974810266426587635e+00
1.974810266426587635e+00
1.992623310037537676e+00
2.094626422925504272e+00
2.094626422925504272e+00
2.187254249702444309e+00
2.187254249702444309e+00
2.156878322702719064e+00
2.064438001647999510e+00
2.064438001647999510e+00
2.007061250648518591e+00
2.007061250648518591e+00
2.051687612537003602e+00
2.004998687704092397e+00
2.004998687704092397e+00
2.036874660481581945e+00
2.049062532425916405e+00
2.054125186925870761e+00
2.054125186925870761e+00
2.253443769646290562e+00
2.261694021423993561e+00
2.261694021423993561e+00
2.037437177648243392e+00
2.037437177648243392e+00
1.892495254371776570e+00
1.978560380870998392e+00
1.978560380870998392e+00
2.021686696981719766e+00
2.021686696981719766e+00
2.069313150425733383e+00
2.019624134037293572e+00
2.019624134037293572e+00
2.023374248481704107e+00
2.068188116092410045e+00
2.068188116092410045e+00
2.040437269203771997e+00
2.040437269203771997e+00
2.053750175481429796e+00
2.050000061037018817e+00
2.050000061037018817e+00
2.083751091036713632e+00
2.083751091036713632e+00
2.072688253425702509e+00
2.010061342204047197e+00
2.010061342204047197e+00
2.025811822870570822e+00
2.025811822870570822e+00
2.056187749870296511e+00
2.020936674092837393e+00
2.020936674092837393e+00
2.088063722647786058e+00
1.953059602649006798e+00
1.953059602649006798e+00
2.087876216925565576e+00
2.087876216925565576e+00
2.153503219702749494e+00
2.075125827814569668e+00
2.075125827814569668e+00
2.068938138981292418e+00
2.063875484481338063e+00
2.063875484481338063e+00
1.993560838648640532e+00
1.993560838648640532e+00
2.110001892147587377e+00
1.994685872981963648e+00
1.994685872981963648e+00
2.080938505203405953e+00
2.080938505203405953e+00
2.061062898648029940e+00
2.038937223426007694e+00
2.038937223426007694e+00
2.030124454481643248e+00
2.010623859370708644e+00
2.010623859370708644e+00
2.009498825037385306e+00
2.009498825037385306e+00
2.014373973815118735e+00
1.998060975981932996e+00
1.998060975981932996e+00
2.104564226203192501e+00
2.104564226203192501e+00
2.130815027314065802e+00
2.115439558091983141e+00
2.115439558091983141e+00
2.204504776146733125e+00
2.204504776146733125e+00
2.258131412701803509e+00
2.085438642536698417e+00
2.085438642536698417e+00
1.967685048982207752e+00
1.967685048982207752e+00
1.904308114871669622e+00
1.970122623371074688e+00
1.970122623371074688e+00
2.056937772759178884e+00
2.064813013092440475e+00
2.064813013092440475e+00
2.002186101870784718e+00
2.002186101870784718e+00
2.009873836481826270e+00
2.085626148258918899e+00
2.085626148258918899e+00
2.155190771202734279e+00
2.155190771202734279e+00
2.165128574480422063e+00
2.097439008758812395e+00
2.097439008758812395e+00
2.035749626148258606e+00
2.035749626148258606e+00
2.052062623981445011e+00
2.039124729148228621e+00
2.039124729148228621e+00
2.002561113315225683e+00
2.002561113315225683e+00
1.940684224982451855e+00
2.005748710592974771e+00
2.005748710592974771e+00
2.037062166203802427e+00
2.037062166203802427e+00
2.117127109591967482e+00
2.076063356425672080e+00
2.076063356425672080e+00
2.024124271370586037e+00
1.991685781426435042e+00
2.023186742759483625e+00
2.100251594592120075e+00
2.100251594592120075e+00
2.142440382091738371e+00
2.124814844203009478e+00
2.124814844203009478e+00
2.083188573870052185e+00
2.083188573870052185e+00
2.078688436536759720e+00
2.022436719870601696e+00
2.022436719870601696e+00
1.978935392315439357e+00
1.978935392315439357e+00
2.105126743369853504e+00
2.128939970091860534e+00
2.128939970091860534e+00
2.013811456648457288e+00
2.013811456648457288e+00
1.961309854426709798e+00
2.083188573870052185e+00
2.083188573870052185e+00
2.107001800592058771e+00
2.107001800592058771e+00
2.107376812036500180e+00
2.061812921536912313e+00
2.079063447981200685e+00
2.070813196203497242e+00
2.070813196203497242e+00
2.065000518814661401e+00
2.059750358592486119e+00
2.059750358592486119e+00
2.055250221259193655e+00
2.055250221259193655e+00
2.075313333536790150e+00
2.034812097537156195e+00
2.034812097537156195e+00
2.030686971648304695e+00
2.030686971648304695e+00
1.966747520371105118e+00
2.015686513870662555e+00
2.015686513870662555e+00
2.080938505203405953e+00
2.061437910092470904e+00
2.061437910092470904e+00
2.054312692648091243e+00
2.054312692648091243e+00
2.081313516647846917e+00
2.162503494369335311e+00
2.162503494369335311e+00
2.093688894314401416e+00
2.093688894314401416e+00
2.073813287759025847e+00
2.063500473036897098e+00
2.063500473036897098e+00
1.998248481704153479e+00
1.998248481704153479e+00
1.995623401593066282e+00
2.095376445814386202e+00
2.095376445814386202e+00
2.087501205481124167e+00
2.087501205481124167e+00
2.066500564592425260e+00
2.026374340037232713e+00
2.026374340037232713e+00
2.050187566759239299e+00
2.060312875759148010e+00
2.060312875759148010e+00
2.130065004425183872e+00
2.130065004425183872e+00
2.064250495925779028e+00
2.000311044648579006e+00
2.000311044648579006e+00
2.005561204870754288e+00
2.005561204870754288e+00
2.057312784203619849e+00
2.087501205481124167e+00
2.087501205481124167e+00
2.065375530259102366e+00
2.065375530259102366e+00
2.045499923703726353e+00
2.014936490981780626e+00
2.014936490981780626e+00
2.037624683370464318e+00
2.037624683370464318e+00
2.058625324259163225e+00
2.073063264870143918e+00
2.073063264870143918e+00
1.994685872981963648e+00
1.994685872981963648e+00
2.033499557481612818e+00
2.120877224036378017e+00
2.120877224036378017e+00
2.152190679647205673e+00
2.132315073091830104e+00
2.132315073091830104e+00
2.059937864314706601e+00
2.059937864314706601e+00
1.978935392315439357e+00
2.031436994537187068e+00
2.031436994537187068e+00
2.064625507370219992e+00
2.064625507370219992e+00
2.059000335703604190e+00
2.031249488814966586e+00
2.031249488814966586e+00
1.949496993926816524e+00
1.949496993926816524e+00
1.929433881649220250e+00
1.989810724204229997e+00
1.989810724204229997e+00
2.093126377147739969e+00
2.164003540147099169e+00
2.164003540147099169e+00
2.148440565202795582e+00
2.148440565202795582e+00
2.110189397869807859e+00
2.080563493758964988e+00
2.080563493758964988e+00
2.040249763481551515e+00
2.040249763481551515e+00
2.034062074648274265e+00
2.011561387981810611e+00
2.011561387981810611e+00
2.071563219092379615e+00
2.071563219092379615e+00
2.096126468703268575e+00
2.065750541703543330e+00
2.065750541703543330e+00
2.044749900814844423e+00
2.044749900814844423e+00
2.039874752037110550e+00
2.040062257759331033e+00
2.040062257759331033e+00
2.043437360759300603e+00
2.031249488814966586e+00
2.031249488814966586e+00
2.013436445204016323e+00
2.013436445204016323e+00
1.992435804315317194e+00
2.042499832148198191e+00
2.042499832148198191e+00
2.094438917203283790e+00
2.094438917203283790e+00
2.126127384258552855e+00
2.079813470870083059e+00
2.079813470870083059e+00
2.034999603259376677e+00
2.034999603259376677e+00
2.025811822870570822e+00
2.096313974425489057e+00
2.096313974425489057e+00
2.110376903592028786e+00
2.066125553147984295e+00
2.066125553147984295e+00
2.024311777092806519e+00
2.024311777092806519e+00
2.016999053926206376e+00
2.024499282815027001e+00
2.024499282815027001e+00
2.068750633259071936e+00
2.062000427259132795e+00
2.062000427259132795e+00
2.068938138981292418e+00
2.077750907925656865e+00
2.077750907925656865e+00
2.011186376537369647e+00
2.011186376537369647e+00
2.020936674092837393e+00
2.070438184759056277e+00
2.070438184759056277e+00
2.041374797814874853e+00
2.041374797814874853e+00
2.064062990203558545e+00
2.096126468703268575e+00
2.096126468703268575e+00
2.123127292703024249e+00
2.123127292703024249e+00
2.093501388592180934e+00
2.077375896481215900e+00
2.077375896481215900e+00
2.101001617481002448e+00
2.092751365703299449e+00
2.092751365703299449e+00
2.090126285592211808e+00
2.090126285592211808e+00
2.040437269203771997e+00
1.945746879482405989e+00
1.945746879482405989e+00
2.019061616870632125e+00
2.019061616870632125e+00
1.997873470259712514e+00
2.008186284981841485e+00
2.008186284981841485e+00
2.024499282815027001e+00
2.024499282815027001e+00
2.029749443037202283e+00
2.002186101870784718e+00
2.002186101870784718e+00
1.978560380870998392e+00
2.023749259926145072e+00
2.023749259926145072e+00
2.124252327036347587e+00
2.124252327036347587e+00
2.116939603869747000e+00
2.060875392925809457e+00
2.060875392925809457e+00
2.027874385814997016e+00
2.027874385814997016e+00
2.059187841425824672e+00
2.072688253425702509e+00
2.072688253425702509e+00
2.071563219092379615e+00
2.071563219092379615e+00
2.040624774925992480e+00
2.050562578203680708e+00
2.050562578203680708e+00
2.083001068147831703e+00
2.083001068147831703e+00
2.069875667592394830e+00
2.009686330759605788e+00
2.009686330759605788e+00
2.068188116092410045e+00
2.068188116092410045e+00
2.059000335703604190e+00
2.062375438703573760e+00
2.062375438703573760e+00
2.057500289925840331e+00
2.056562761314737475e+00
2.056562761314737475e+00
2.089188756981108952e+00
2.089188756981108952e+00
2.077563402203436382e+00
2.055250221259193655e+00
2.055250221259193655e+00
2.037437177648243392e+00
2.037437177648243392e+00
2.025811822870570822e+00
1.995810907315286764e+00
1.995810907315286764e+00
2.038562211981566730e+00
2.038562211981566730e+00
2.025624317148350340e+00
1.995623401593066282e+00
1.995623401593066282e+00
2.030311960203863730e+00
2.030311960203863730e+00
2.113001983703115982e+00
2.063125461592455689e+00
2.063125461592455689e+00
2.081501022370067400e+00
2.081501022370067400e+00
2.048125003814813549e+00
2.037249671926022909e+00
2.037249671926022909e+00
2.034812097537156195e+00
2.058437818536942299e+00
2.058437818536942299e+00
2.151815668202764709e+00
2.151815668202764709e+00
2.146378002258369833e+00
2.065000518814661401e+00
2.065000518814661401e+00
2.034062074648274265e+00
2.034062074648274265e+00
2.041562303537095335e+00
2.086188665425580790e+00
2.086188665425580790e+00
2.092376354258858040e+00
2.005748710592974771e+00
2.005748710592974771e+00
1.974997772148808339e+00
1.974997772148808339e+00
1.990185735648670962e+00
2.053375164036988387e+00
2.053375164036988387e+00
2.064625507370219992e+00
2.064625507370219992e+00
2.069313150425733383e+00
2.071938230536820580e+00
2.071938230536820580e+00
2.027686880092776089e+00
2.027686880092776089e+00
2.046812463759269729e+00
2.062562944425794242e+00
2.062562944425794242e+00
2.047187475203710694e+00
2.042124820703756782e+00
2.042124820703756782e+00
2.059937864314706601e+00
2.059937864314706601e+00
2.054125186925870761e+00
2.043437360759300603e+00
2.043437360759300603e+00
2.061437910092470904e+00
2.061437910092470904e+00
2.073250770592364400e+00
2.073250770592364400e+00
2.071938230536820580e+00
2.066500564592425260e+00
2.066500564592425260e+00
2.069500656147953865e+00
2.069500656147953865e+00
2.057312784203619849e+00
2.061062898648029940e+00
2.061062898648029940e+00
2.027874385814997016e+00
2.073250770592364400e+00
2.073250770592364400e+00
2.105501754814294912e+00
2.105501754814294912e+00
2.060312875759148010e+00
2.038187200537125765e+00
2.038187200537125765e+00
2.061062898648029940e+00
2.061062898648029940e+00
2.048312509537034032e+00
2.060500381481368493e+00
2.060500381481368493e+00
2.056187749870296511e+00
2.056187749870296511e+00
2.080563493758964988e+00
2.063875484481338063e+00
2.063875484481338063e+00
2.092751365703299449e+00
2.092751365703299449e+00
2.077938413647877791e+00
2.049625049592577852e+00
2.049625049592577852e+00
2.049437543870357370e+00
2.063125461592455689e+00
2.063125461592455689e+00
2.086188665425580790e+00
2.086188665425580790e+00
2.089376262703329878e+00
2.076625873592333971e+00
2.076625873592333971e+00
2.053937681203650278e+00
2.053000152592547423e+00
2.053000152592547423e+00
2.052625141148106458e+00
2.052625141148106458e+00
2.074750816370128703e+00
2.085626148258918899e+00
2.085626148258918899e+00
2.076063356425672080e+00
2.076063356425672080e+00
2.055812738425855546e+00
2.059562852870265637e+00
2.059562852870265637e+00
2.059937864314706601e+00
2.059937864314706601e+00
2.060687887203588975e+00
2.060312875759148010e+00
2.060312875759148010e+00
2.084126102481154597e+00
2.084126102481154597e+00
2.066500564592425260e+00
2.032562028870509963e+00
2.032562028870509963e+00
2.042687337870418673e+00
2.049250038148136888e+00
2.049250038148136888e+00
2.046999969481490211e+00
2.046999969481490211e+00
2.046624958037049247e+00
2.056375255592516993e+00
2.056375255592516993e+00
2.076813379314554453e+00
2.076813379314554453e+00
2.049437543870357370e+00
2.076438367870113488e+00
2.076438367870113488e+00
2.088626239814447505e+00
2.088626239814447505e+00
2.069125644703512901e+00
2.048500015259254514e+00
2.048500015259254514e+00
2.066500564592425260e+00
2.066500564592425260e+00
2.057875301370280852e+00
2.045874935148167761e+00
2.045874935148167761e+00
2.020936674092837393e+00
2.020936674092837393e+00
2.006686239204077182e+00
2.021499191259499284e+00
2.021499191259499284e+00
2.085438642536698417e+00
2.103814203314310571e+00
2.103814203314310571e+00
2.070625690481276759e+00
2.070625690481276759e+00
2.049250038148136888e+00
2.073813287759025847e+00
2.073813287759025847e+00
2.106439283425397324e+00
2.106439283425397324e+00
2.056750267036957958e+00
2.033312051759392336e+00
2.033312051759392336e+00
2.046249946592608282e+00
2.054875209814752690e+00
2.080750999481185470e+00
2.078688436536759720e+00
2.078688436536759720e+00
2.056562761314737475e+00
2.056562761314737475e+00
2.057687795648060813e+00
2.065000518814661401e+00
2.065000518814661401e+00
2.063687978759117581e+00
2.063687978759117581e+00
2.081876033814508364e+00
2.056562761314737475e+00
2.056562761314737475e+00
2.041749809259315818e+00
2.041749809259315818e+00
2.044937406537064906e+00
2.041749809259315818e+00
2.041749809259315818e+00
2.053187658314767905e+00
2.071750724814600098e+00
2.071750724814600098e+00
2.087313699758903685e+00
2.087313699758903685e+00
2.085438642536698417e+00
2.063312967314676172e+00
2.056562761314737475e+00
2.056562761314737475e+00
2.053750175481429796e+00
2.046062440870388244e+00
2.046062440870388244e+00
2.023561754203924590e+00
2.023561754203924590e+00
2.048875026703695923e+00
2.070625690481276759e+00
2.070625690481276759e+00
2.061812921536912313e+00
2.061812921536912313e+00
2.082251045258949329e+00
2.090126285592211808e+00
2.090126285592211808e+00
2.082251045258949329e+00
2.082251045258949329e+00
2.038187200537125765e+00
2.053562669759208870e+00
2.053562669759208870e+00
2.076813379314554453e+00
2.024874294259468410e+00
2.024874294259468410e+00
2.044187383648182976e+00
2.044187383648182976e+00
2.059187841425824672e+00
2.065938047425763813e+00
2.065938047425763813e+00
2.076625873592333971e+00
2.079813470870083059e+00
2.079813470870083059e+00
2.073250770592364400e+00
2.080563493758964988e+00
2.080563493758964988e+00
2.068188116092410045e+00
2.068188116092410045e+00
2.051875118259224084e+00
2.067063081759087151e+00
2.067063081759087151e+00
2.041749809259315818e+00
2.029374431592760875e+00
2.029374431592760875e+00
2.033499557481612818e+00
2.033499557481612818e+00
2.027686880092776089e+00
2.048500015259254514e+00
2.048500015259254514e+00
2.067625598925748598e+00
2.067625598925748598e+00
2.074938322092349186e+00
2.089751274147770843e+00
2.089751274147770843e+00
2.075125827814569668e+00
2.075125827814569668e+00
2.049062532425916405e+00
2.039874752037110550e+00
2.039874752037110550e+00
2.050562578203680708e+00
2.058625324259163225e+00
2.058625324259163225e+00
2.046999969481490211e+00
2.046999969481490211e+00
2.085438642536698417e+00
2.097814020203253360e+00
2.097814020203253360e+00
2.080188482314524023e+00
2.080188482314524023e+00
2.067625598925748598e+00
2.063125461592455689e+00
2.063125461592455689e+00
2.059562852870265637e+00
2.059562852870265637e+00
2.076063356425672080e+00
2.087876216925565576e+00
2.087876216925565576e+00
2.059375347148045154e+00
2.059375347148045154e+00
2.039312234870449103e+00
1.957747245704519745e+00
1.957747245704519745e+00
2.087126194036683202e+00
2.048500015259254514e+00
2.048500015259254514e+00
2.026186834315011787e+00
2.026186834315011787e+00
2.052625141148106458e+00
2.048687520981474997e+00
2.048687520981474997e+00
2.073625782036805365e+00
2.073625782036805365e+00
2.075313333536790150e+00
2.040624774925992480e+00
2.040624774925992480e+00
2.043249855037080120e+00
2.043249855037080120e+00
2.047749992370372585e+00
2.074938322092349186e+00
2.074938322092349186e+00
2.072313241981261545e+00
2.072313241981261545e+00
2.056937772759178884e+00
2.043812372203741567e+00
2.043812372203741567e+00
2.037999694814905283e+00
2.059937864314706601e+00
2.059937864314706601e+00
2.060125370036927084e+00
2.060125370036927084e+00
2.064062990203558545e+00
2.072125736259041062e+00
2.072125736259041062e+00
2.046437452314828764e+00
2.046437452314828764e+00
2.038562211981566730e+00
2.067063081759087151e+00
2.067063081759087151e+00
2.093313882869960452e+00
2.093313882869960452e+00
2.046437452314828764e+00
2.034249580370494748e+00
2.034249580370494748e+00
2.061812921536912313e+00
2.065000518814661401e+00
2.065000518814661401e+00
2.075875850703451597e+00
2.075875850703451597e+00
2.097439008758812395e+00
2.084688619647816488e+00
2.084688619647816488e+00
2.059187841425824672e+00
2.059187841425824672e+00
2.056937772759178884e+00
2.047562486648152102e+00
2.031249488814966586e+00
2.031249488814966586e+00
2.026186834315011787e+00
2.026186834315011787e+00
2.034249580370494748e+00
2.058062807092501334e+00
2.058062807092501334e+00
2.077938413647877791e+00
2.093126377147739969e+00
2.093126377147739969e+00
2.086001159703360308e+00
2.086001159703360308e+00
2.061062898648029940e+00
2.033874568926053783e+00
2.033874568926053783e+00
2.050000061037018817e+00
2.050000061037018817e+00
2.078688436536759720e+00
2.081688528092287882e+00
2.081688528092287882e+00
2.034812097537156195e+00
2.034812097537156195e+00
2.027311868648335125e+00
2.045124912259285388e+00
2.045124912259285388e+00
2.049812555314798335e+00
2.049812555314798335e+00
2.079063447981200685e+00
2.081126010925626435e+00
2.081126010925626435e+00
2.066500564592425260e+00
2.023936765648365554e+00
2.023936765648365554e+00
2.097251503036591469e+00
2.097251503036591469e+00
2.085251136814477935e+00
2.069500656147953865e+00
2.069500656147953865e+00
2.069500656147953865e+00
2.069500656147953865e+00
2.042687337870418673e+00
2.065750541703543330e+00
2.065750541703543330e+00
2.061812921536912313e+00
2.061812921536912313e+00
2.045687429425947279e+00
2.030311960203863730e+00
2.030311960203863730e+00
2.041187292092654371e+00
2.058062807092501334e+00
2.058062807092501334e+00
2.067438093203528116e+00
2.067438093203528116e+00
2.074375804925687294e+00
2.059000335703604190e+00
2.059000335703604190e+00
2.053750175481429796e+00
2.053750175481429796e+00
2.055812738425855546e+00
2.068000610370189563e+00
2.068000610370189563e+00
2.059187841425824672e+00
2.059187841425824672e+00
2.043812372203741567e+00
2.059375347148045154e+00
2.059375347148045154e+00
2.075125827814569668e+00
2.075125827814569668e+00
2.066688070314646186e+00
2.041562303537095335e+00
2.041562303537095335e+00
2.044937406537064906e+00
2.044937406537064906e+00
2.074563310647907777e+00
2.074563310647907777e+00
2.074563310647907777e+00
2.074750816370128703e+00
2.074375804925687294e+00
2.074375804925687294e+00
2.050187566759239299e+00
2.050187566759239299e+00
2.027874385814997016e+00
2.030874477370525177e+00
2.030874477370525177e+00
2.044749900814844423e+00
2.044749900814844423e+00
2.093313882869960452e+00
2.147503036591693171e+00
2.147503036591693171e+00
2.112064455092013571e+00
2.112064455092013571e+00
2.036687154759361462e+00
2.013061433759574914e+00
2.013061433759574914e+00
2.016624042481765411e+00
2.016624042481765411e+00
2.045312417981505870e+00
2.046812463759269729e+00
2.046812463759269729e+00
2.058062807092501334e+00
2.066500564592425260e+00
2.066500564592425260e+00
2.053187658314767905e+00
2.053187658314767905e+00
2.029374431592760875e+00
2.041374797814874853e+00
2.041374797814874853e+00
2.040437269203771997e+00
2.040437269203771997e+00
2.061250404370250422e+00
2.078875942258980203e+00
2.078875942258980203e+00
2.065000518814661401e+00
2.083751091036713632e+00
2.083751091036713632e+00
2.121252235480818982e+00
2.121252235480818982e+00
2.084313608203375079e+00
2.053187658314767905e+00
2.053187658314767905e+00
2.069688161870173904e+00
2.069688161870173904e+00
2.065375530259102366e+00
2.038937223426007694e+00
2.038937223426007694e+00
2.050187566759239299e+00
2.050187566759239299e+00
2.035562120426038124e+00
2.028249397259437981e+00
2.028249397259437981e+00
2.042312326425977265e+00
2.042312326425977265e+00
2.068375621814630971e+00
2.069688161870173904e+00
2.059000335703604190e+00
2.031436994537187068e+00
2.031436994537187068e+00
2.051312601092562637e+00
2.049250038148136888e+00
2.049250038148136888e+00
2.117127109591967482e+00
2.117127109591967482e+00
2.131940061647389140e+00
2.054125186925870761e+00
2.054125186925870761e+00
2.030686971648304695e+00
2.030686971648304695e+00
2.028624408703878945e+00
2.051875118259224084e+00
2.051875118259224084e+00
2.083751091036713632e+00
2.083751091036713632e+00
2.079063447981200685e+00
2.062937955870235207e+00
2.062937955870235207e+00
2.054875209814752690e+00
2.054875209814752690e+00
2.082813562425611220e+00
2.110751915036469750e+00
2.110751915036469750e+00
2.098751548814355772e+00
2.098751548814355772e+00
2.031249488814966586e+00
2.009686330759605788e+00
2.009686330759605788e+00
2.003498641926328094e+00
2.035937131870479533e+00
2.035937131870479533e+00
2.076063356425672080e+00
2.076063356425672080e+00
2.064062990203558545e+00
2.062562944425794242e+00
2.062562944425794242e+00
2.076625873592333971e+00
2.076625873592333971e+00
2.046812463759269729e+00
2.037999694814905283e+00
2.037999694814905283e+00
2.027499374370555607e+00
2.004436170537430950e+00
2.004436170537430950e+00
2.049437543870357370e+00
2.049437543870357370e+00
2.104564226203192501e+00
2.122377269814142320e+00
2.122377269814142320e+00
2.072125736259041062e+00
2.072125736259041062e+00
2.014936490981780626e+00
2.026936857203894160e+00
2.026936857203894160e+00
2.053562669759208870e+00
2.062187932981353278e+00
2.062187932981353278e+00
2.041562303537095335e+00
2.041562303537095335e+00
2.041562303537095335e+00
2.063687978759117581e+00
2.063687978759117581e+00
2.039874752037110550e+00
2.039874752037110550e+00
2.033124546037171854e+00
2.036499649037140980e+00
2.036499649037140980e+00
2.046624958037049247e+00
2.046624958037049247e+00
2.053375164036988387e+00
2.053750175481429796e+00
2.053750175481429796e+00
2.081876033814508364e+00
2.081876033814508364e+00
2.060312875759148010e+00
2.054687704092532208e+00
2.054687704092532208e+00
2.054687704092532208e+00
2.062937955870235207e+00
2.062937955870235207e+00
2.072125736259041062e+00
2.072125736259041062e+00
2.080188482314524023e+00
2.072500747703482027e+00
2.072500747703482027e+00
2.030686971648304695e+00
2.030686971648304695e+00
2.045312417981505870e+00
2.072313241981261545e+00
2.072313241981261545e+00
2.071188207647938206e+00
2.071188207647938206e+00
2.048875026703695923e+00
2.034812097537156195e+00
2.034812097537156195e+00
2.043249855037080120e+00
2.043249855037080120e+00
2.027686880092776089e+00
2.027311868648335125e+00
2.027311868648335125e+00
2.100251594592120075e+00
2.072500747703482027e+00
2.072500747703482027e+00
2.074000793481246330e+00
2.074000793481246330e+00
2.108126834925382109e+00
2.107751823480941145e+00
2.069500656147953865e+00
2.047749992370372585e+00
2.047749992370372585e+00
1.998623493148594665e+00
1.998623493148594665e+00
2.008748802148503376e+00
2.055250221259193655e+00
2.055250221259193655e+00
2.095001434369945237e+00
2.095001434369945237e+00
2.110001892147587377e+00
2.102314157536546269e+00
2.102314157536546269e+00
2.035749626148258606e+00
2.007061250648518591e+00
2.007061250648518591e+00
2.012123905148472502e+00
2.012123905148472502e+00
2.006311227759636218e+00
2.049812555314798335e+00
2.049812555314798335e+00
2.052250129703665493e+00
2.052250129703665493e+00
2.045499923703726353e+00
2.045499923703726353e+00
2.012498916592913467e+00
2.067438093203528116e+00
2.067438093203528116e+00
2.131002533036286284e+00
2.131002533036286284e+00
2.124252327036347587e+00
2.086188665425580790e+00
2.086188665425580790e+00
2.084876125370036970e+00
2.084876125370036970e+00
2.051500106814783120e+00
2.018311593981750196e+00
2.018311593981750196e+00
2.015123996704001108e+00
2.015123996704001108e+00
2.073813287759025847e+00
2.082813562425611220e+00
2.082813562425611220e+00
2.077750907925656865e+00
2.018499099703970678e+00
2.018499099703970678e+00
2.052812646870326940e+00
2.052812646870326940e+00
2.074750816370128703e+00
2.102126651814325342e+00
2.102126651814325342e+00
2.073438276314584883e+00
2.073438276314584883e+00
2.036124637592700015e+00
2.031436994537187068e+00
2.046249946592608282e+00
2.046249946592608282e+00
2.013061433759574914e+00
2.013061433759574914e+00
2.032187017426068998e+00
2.057312784203619849e+00
2.057312784203619849e+00
2.086938688314462720e+00
2.086938688314462720e+00
2.068750633259071936e+00
2.041937314981536300e+00
2.041937314981536300e+00
2.012311410870692985e+00
2.009311319315164823e+00
2.009311319315164823e+00
2.035937131870479533e+00
2.035937131870479533e+00
2.093501388592180934e+00
2.112626972258675018e+00
2.112626972258675018e+00
2.117127109591967482e+00
2.117127109591967482e+00
2.098751548814355772e+00
2.053750175481429796e+00
2.053750175481429796e+00
2.058250312814721816e+00
2.058250312814721816e+00
2.041562303537095335e+00
2.062375438703573760e+00
2.062375438703573760e+00
2.092001342814417075e+00
2.092001342814417075e+00
2.054687704092532208e+00
2.037624683370464318e+00
2.037624683370464318e+00
2.016436536759544484e+00
1.996935941648609880e+00
1.996935941648609880e+00
2.031624500259407551e+00
2.031624500259407551e+00
2.092751365703299449e+00
2.105689260536515395e+00
2.105689260536515395e+00
2.051687612537003602e+00
2.051687612537003602e+00
2.074938322092349186e+00
2.027124362926114642e+00
2.027124362926114642e+00
2.143940427869502674e+00
2.143940427869502674e+00
2.042312326425977265e+00
2.065375530259102366e+00
2.065375530259102366e+00
2.056187749870296511e+00
2.056187749870296511e+00
2.000123538926358524e+00
1.961122348704489093e+00
1.961122348704489093e+00
1.948371959593493630e+00
2.076438367870113488e+00
2.076438367870113488e+00
2.162503494369335311e+00
2.162503494369335311e+00
2.116939603869747000e+00
2.062000427259132795e+00
2.062000427259132795e+00
2.037437177648243392e+00
2.037437177648243392e+00
2.050937589648121673e+00
2.070250679036835795e+00
2.070250679036835795e+00
2.104001709036531054e+00
2.104001709036531054e+00
2.111876949369793088e+00
2.080375988036744506e+00
2.080375988036744506e+00
2.041187292092654371e+00
2.022249214148381213e+00
2.053750175481429796e+00
2.053750175481429796e+00
2.044374889370403459e+00
2.044374889370403459e+00
2.051875118259224084e+00
2.050937589648121673e+00
2.050937589648121673e+00
2.075875850703451597e+00
2.075875850703451597e+00
2.091626331369976111e+00
2.063875484481338063e+00
2.063875484481338063e+00
2.067063081759087151e+00
2.062562944425794242e+00
2.062562944425794242e+00
2.119189672536393232e+00
2.119189672536393232e+00
2.131002533036286284e+00
2.113001983703115982e+00
2.113001983703115982e+00
2.089751274147770843e+00
2.089751274147770843e+00
2.081876033814508364e+00
2.060687887203588975e+00
2.019061616870632125e+00
2.019061616870632125e+00
2.019436628315073090e+00
2.042499832148198191e+00
2.042499832148198191e+00
2.041562303537095335e+00
2.041562303537095335e+00
2.035187108981597159e+00
2.032937040314951371e+00
2.032937040314951371e+00
2.017749076815088305e+00
2.017749076815088305e+00
2.083376079592272667e+00
2.056562761314737475e+00
2.056562761314737475e+00
2.090313791314432290e+00
2.090313791314432290e+00
2.061812921536912313e+00
2.019624134037293572e+00
2.019624134037293572e+00
2.058437818536942299e+00
2.058437818536942299e+00
2.085438642536698417e+00
2.055812738425855546e+00
2.055812738425855546e+00
2.066688070314646186e+00
2.056375255592516993e+00
2.056375255592516993e+00
2.062375438703573760e+00
2.062375438703573760e+00
2.108314340647602592e+00
2.028811914426099428e+00
2.028811914426099428e+00
2.084501113925596005e+00
2.084501113925596005e+00
2.116939603869747000e+00
2.057875301370280852e+00
2.057875301370280852e+00
2.029561937314981801e+00
2.029561937314981801e+00
2.025249305703909375e+00
2.049062532425916405e+00
2.049062532425916405e+00
2.109251869258705447e+00
2.101376628925443413e+00
2.101376628925443413e+00
2.018499099703970678e+00
2.018499099703970678e+00
1.976872829371013607e+00
2.056000244148076028e+00
2.056000244148076028e+00
2.082438550981169811e+00
2.082438550981169811e+00
2.036499649037140980e+00
2.042499832148198191e+00
2.042499832148198191e+00
2.099501571703238145e+00
2.099501571703238145e+00
2.156128299813837135e+00
2.078313425092318756e+00
2.078313425092318756e+00
2.028436902981658463e+00
2.028436902981658463e+00
2.017186559648426858e+00
1.991310769981994078e+00
1.991310769981994078e+00
2.027874385814997016e+00
2.027874385814997016e+00
2.033124546037171854e+00
2.101376628925443413e+00
2.101376628925443413e+00
2.191941892757957699e+00
2.165316080202642990e+00
2.165316080202642990e+00
2.091438825647755628e+00
2.091438825647755628e+00
2.091438825647755628e+00
2.075313333536790150e+00
2.075313333536790150e+00
2.053562669759208870e+00
2.053562669759208870e+00
1.988685689870906881e+00
2.013248939481795396e+00
2.013248939481795396e+00
2.075875850703451597e+00
2.075875850703451597e+00
2.096876491592150504e+00
2.020749168370616911e+00
2.020749168370616911e+00
1.888182622760704366e+00
1.888182622760704366e+00
1.977810357982116241e+00
2.180316537980285130e+00
2.180316537980285130e+00
2.130627521591845319e+00
2.108314340647602592e+00
2.108314340647602592e+00
2.107564317758720662e+00
2.107564317758720662e+00
2.080750999481185470e+00
2.127064912869655711e+00
2.127064912869655711e+00
2.071188207647938206e+00
2.071188207647938206e+00
2.015311502426221590e+00
2.014561479537339217e+00
2.014561479537339217e+00
1.970685140537736135e+00
1.970685140537736135e+00
1.954934659871212066e+00
2.108876857814264483e+00
2.108876857814264483e+00
2.177878963591417971e+00
2.179566515091402756e+00
2.179566515091402756e+00
2.065750541703543330e+00
2.065750541703543330e+00
1.977060335093234089e+00
2.028811914426099428e+00
2.028811914426099428e+00
2.082813562425611220e+00
2.082813562425611220e+00
2.020374156926175946e+00
2.172066286202582130e+00
2.172066286202582130e+00
2.200754661702322146e+00
2.200754661702322146e+00
2.108689352092044000e+00
2.034437086092715230e+00
2.034437086092715230e+00
1.895495345927304953e+00
1.895495345927304953e+00
1.994498367259743166e+00
2.062562944425794242e+00
2.062562944425794242e+00
2.131940061647389140e+00
2.131940061647389140e+00
2.162691000091555793e+00
2.034999603259376677e+00
2.034999603259376677e+00
2.091063814203314664e+00
2.091063814203314664e+00
2.132502578814050587e+00
2.063875484481338063e+00
2.063875484481338063e+00
2.037812189092684800e+00
2.037812189092684800e+00
2.040249763481551515e+00
2.014186468092898252e+00
2.014186468092898252e+00
2.017374065370647340e+00
2.017374065370647340e+00
1.923246192815943001e+00
2.016061525315103520e+00
2.016061525315103520e+00
2.112814477980895500e+00
2.111689443647572162e+00
2.111689443647572162e+00
2.139815301980651618e+00
2.139815301980651618e+00
2.094438917203283790e+00
2.058062807092501334e+00
2.058062807092501334e+00
1.954559648426770879e+00
1.954559648426770879e+00
2.022624225592822178e+00
2.038749717703787212e+00
2.038749717703787212e+00
2.201879696035645484e+00
2.201879696035645484e+00
2.093126377147739969e+00
2.089376262703329878e+00
2.089376262703329878e+00
2.123502304147465658e+00
2.123502304147465658e+00
2.038187200537125765e+00
2.037249671926022909e+00
2.037249671926022909e+00
2.106814294869838289e+00
2.042499832148198191e+00
2.042499832148198191e+00
2.074188299203466812e+00
2.074188299203466812e+00
2.113939512314218838e+00
2.053000152592547423e+00
2.053000152592547423e+00
2.086001159703360308e+00
2.082813562425611220e+00
2.082813562425611220e+00
2.076250862147892562e+00
2.076250862147892562e+00
2.080188482314524023e+00
1.974997772148808339e+00
1.974997772148808339e+00
2.032562028870509963e+00
2.032562028870509963e+00
2.086001159703360308e+00
2.085438642536698417e+00
2.085438642536698417e+00
2.105689260536515395e+00
2.105689260536515395e+00
2.125002349925229961e+00
2.008561296426282894e+00
2.008561296426282894e+00
1.895870357371746140e+00
1.895870357371746140e+00
2.056187749870296511e+00
2.145065462202826012e+00
2.145065462202826012e+00
2.131377544480727693e+00
2.131377544480727693e+00
1.913683400982696181e+00
1.953059602649006798e+00
1.953059602649006798e+00
2.046624958037049247e+00
2.090501297036652772e+00
2.090501297036652772e+00
2.113564500869777874e+00
2.113564500869777874e+00
2.266756675923947917e+00
2.182379100924710880e+00
2.182379100924710880e+00
2.079250953703421168e+00
2.079250953703421168e+00
2.058250312814721816e+00
2.002748619037446165e+00
2.002748619037446165e+00
1.933934018982512937e+00
1.933934018982512937e+00
1.838306100650044295e+00
2.044562395092623941e+00
2.044562395092623941e+00
2.208817407757805107e+00
2.208817407757805107e+00
2.068938138981292418e+00
2.016249031037324002e+00
2.016249031037324002e+00
2.093876400036621899e+00
2.127064912869655711e+00
2.127064912869655711e+00
2.159128391369365740e+00
2.159128391369365740e+00
1.977622852259895758e+00
1.997123447370830363e+00
1.997123447370830363e+00
1.989435712759789032e+00
2.102126651814325342e+00
2.102126651814325342e+00
2.158190862758262885e+00
2.158190862758262885e+00
2.196817041535691573e+00
2.374572466200750576e+00
2.374572466200750576e+00
2.224192876979888212e+00
2.224192876979888212e+00
1.966372508926664153e+00
1.873369670705282708e+00
1.873369670705282708e+00
1.883682485427411901e+00
1.883682485427411901e+00
2.006686239204077182e+00
1.958309762871181414e+00
1.958309762871181414e+00
1.837743583483382848e+00
2.012686422315133949e+00
2.012686422315133949e+00
1.948371959593493630e+00
2.188379284035767647e+00
2.228130497146519229e+00
2.228130497146519229e+00
2.267694204535050773e+00
2.267694204535050773e+00
2.230943082979827352e+00
2.119002166814172750e+00
2.119002166814172750e+00
2.048687520981474997e+00
2.006311227759636218e+00
2.006311227759636218e+00
1.905808160649433924e+00
1.905808160649433924e+00
1.856681661427655783e+00
2.042687337870418673e+00
2.042687337870418673e+00
2.144877956480605530e+00
2.144877956480605530e+00
2.166628620258186366e+00
2.230193060090945423e+00
2.230193060090945423e+00
2.070813196203497242e+00
2.070813196203497242e+00
1.965434980315561520e+00
1.994498367259743166e+00
1.994498367259743166e+00
2.011936399426252020e+00
2.011936399426252020e+00
2.112439466536454535e+00
2.209567430646687480e+00
2.209567430646687480e+00
2.049250038148136888e+00
1.942559282204657345e+00
1.942559282204657345e+00
2.071938230536820580e+00
2.071938230536820580e+00
2.146190496536149350e+00
2.143565416425061709e+00
2.143565416425061709e+00
2.103626697592089645e+00
2.103626697592089645e+00
2.093876400036621899e+00
2.073625782036805365e+00
2.073625782036805365e+00
1.989248207037568328e+00
2.099501571703238145e+00
2.099501571703238145e+00
2.094438917203283790e+00
2.094438917203283790e+00
2.029374431592760875e+00
2.117877132480849411e+00
2.117877132480849411e+00
2.067813104647969080e+00
1.895495345927304953e+00
1.895495345927304953e+00
1.906183172093875111e+00
1.906183172093875111e+00
1.888932645649586517e+00
2.056750267036957958e+00
2.056750267036957958e+00
1.989623218482009515e+00
1.989623218482009515e+00
2.037999694814905283e+00
1.998248481704153479e+00
1.998248481704153479e+00
2.094626422925504272e+00
2.094626422925504272e+00
2.211817499313333268e+00
2.224005371257667729e+00
2.224005371257667729e+00
2.146940519425031280e+00
2.146940519425031280e+00
2.063875484481338063e+00
2.119752189703054679e+00
2.119752189703054679e+00
2.246881069368571904e+00
2.058062807092501334e+00
2.058062807092501334e+00
2.062000427259132795e+00
2.062000427259132795e+00
1.851994018372142614e+00
1.865494430372020673e+00
1.865494430372020673e+00
1.975372783593249304e+00
1.975372783593249304e+00
1.979872920926541990e+00
2.124814844203009478e+00
2.124814844203009478e+00
2.243130954924161813e+00
2.243130954924161813e+00
2.193066927091281038e+00
2.082438550981169811e+00
2.082438550981169811e+00
2.253256263924070080e+00
2.253256263924070080e+00
2.130252510147404355e+00
1.968810083315530868e+00
1.968810083315530868e+00
1.894370311593981837e+00
2.035374614703817642e+00
2.035374614703817642e+00
1.886682576982940063e+00
1.886682576982940063e+00
1.911995849482711396e+00
2.077188390758995418e+00
2.077188390758995418e+00
2.244068483535264225e+00
2.244068483535264225e+00
2.283257179479354360e+00
2.230380565813165905e+00
1.919871089815973431e+00
1.884245002594073348e+00
1.884245002594073348e+00
2.202629718924527857e+00
2.251756218146305777e+00
2.251756218146305777e+00
2.096126468703268575e+00
2.096126468703268575e+00
1.990373241370891666e+00
1.909558275093844459e+00
1.909558275093844459e+00
1.866806970427564494e+00
1.866806970427564494e+00
2.003873653370769503e+00
2.057687795648060813e+00
2.057687795648060813e+00
1.999373516037476817e+00
1.999373516037476817e+00
2.123314798425245176e+00
2.110189397869807859e+00
2.110189397869807859e+00
1.908058229316080379e+00
1.908058229316080379e+00
1.972372692037720920e+00
2.079438459425641650e+00
2.200567155980101663e+00
2.200567155980101663e+00
2.233755668813135031e+00
2.114502029480880285e+00
2.114502029480880285e+00
2.002373607593005200e+00
2.002373607593005200e+00
1.920058595538193913e+00
1.884057496871852866e+00
1.884057496871852866e+00
2.195129490035706787e+00
2.195129490035706787e+00
2.150315622425000850e+00
1.871307107760856958e+00
1.871307107760856958e+00
1.871119602038636476e+00
1.871119602038636476e+00
1.941434247871334007e+00
2.146190496536149350e+00
2.146190496536149350e+00
2.486138370921964214e+00
2.314945646534623425e+00
2.314945646534623425e+00
2.269381756035035114e+00
2.269381756035035114e+00
2.186129215369121415e+00
1.964309945982238181e+00
1.964309945982238181e+00
1.860994293038728209e+00
1.860994293038728209e+00
2.004248664815210468e+00
2.031999511703848516e+00
2.031999511703848516e+00
2.140565324869533104e+00
2.140565324869533104e+00
2.242755943479720404e+00
2.204504776146733125e+00
2.204504776146733125e+00
2.040249763481551515e+00
2.040249763481551515e+00
1.882557451094088563e+00
2.023749259926145072e+00
2.023749259926145072e+00
2.209942442091128445e+00
2.096126468703268575e+00
2.096126468703268575e+00
1.785241981261635136e+00
1.785241981261635136e+00
1.817867976928006835e+00
1.902620563371684836e+00
1.902620563371684836e+00
2.121064729758598499e+00
2.121064729758598499e+00
2.135127658925138228e+00
2.079438459425641650e+00
2.079438459425641650e+00
2.081313516647846917e+00
2.081313516647846917e+00
1.844306283761101062e+00
2.019999145481734981e+00
2.019999145481734981e+00
2.223067842646564873e+00
2.100814111758781966e+00
2.100814111758781966e+00
1.960372325815607386e+00
1.960372325815607386e+00
1.927558824427014983e+00
2.147878048036134135e+00
2.147878048036134135e+00
2.305382854701376161e+00
2.305382854701376161e+00
2.272569353312784202e+00
2.383197729422894984e+00
2.383197729422894984e+00
2.114502029480880285e+00
2.114502029480880285e+00
2.037812189092684800e+00
1.866806970427564494e+00
1.866806970427564494e+00
1.856869167149876487e+00
1.856869167149876487e+00
2.009311319315164823e+00
2.009123813592944341e+00
2.009123813592944341e+00
1.993373332926419828e+00
2.021124179815057875e+00
2.021124179815057875e+00
1.851431501205481167e+00
1.851431501205481167e+00
2.062187932981353278e+00
2.170191228980376863e+00
2.170191228980376863e+00
1.956622211371196629e+00
1.956622211371196629e+00
2.270694296090578934e+00
2.326571001312295994e+00
2.326571001312295994e+00
2.037999694814905283e+00
2.037999694814905283e+00
1.966372508926664153e+00
2.211254982146671821e+00
2.211254982146671821e+00
2.127064912869655711e+00
2.127064912869655711e+00
2.081126010925626435e+00
2.140002807702871657e+00
2.140002807702871657e+00
1.977060335093234089e+00
1.973122714926602850e+00
1.966185003204443671e+00
1.966185003204443671e+00
1.979497909482100804e+00
1.979497909482100804e+00
2.047187475203710694e+00
1.983623035370952525e+00
1.983623035370952525e+00
2.115064546647541732e+00
2.115064546647541732e+00
1.970122623371074688e+00
1.925871272927030420e+00
1.925871272927030420e+00
2.326571001312295994e+00
2.326571001312295994e+00
2.287382305368205859e+00
2.071938230536820580e+00
2.071938230536820580e+00
2.111126926480910715e+00
2.191191869869075770e+00
2.191191869869075770e+00
2.117502121036408447e+00
2.117502121036408447e+00
1.998998504593035630e+00
1.836431043427839027e+00
1.916683492538224565e+00
1.916683492538224565e+00
2.155378276924954761e+00
2.155378276924954761e+00
2.224005371257667729e+00
2.092001342814417075e+00
2.092001342814417075e+00
1.996560930204168693e+00
1.996560930204168693e+00
2.073250770592364400e+00
1.947996948149052443e+00
1.947996948149052443e+00
1.962247383037812432e+00
2.069125644703512901e+00
2.069125644703512901e+00
2.101376628925443413e+00
2.101376628925443413e+00
2.071188207647938206e+00
2.071750724814600098e+00
2.071750724814600098e+00
2.035749626148258606e+00
2.035749626148258606e+00
2.093501388592180934e+00
1.966185003204443671e+00
1.966185003204443671e+00
2.013811456648457288e+00
2.013811456648457288e+00
2.056375255592516993e+00
2.063125461592455689e+00
2.063125461592455689e+00
2.300320200201422249e+00
2.202817224646748340e+00
2.202817224646748340e+00
1.940684224982451855e+00
1.940684224982451855e+00
2.003873653370769503e+00
1.910683309427167575e+00
1.910683309427167575e+00
1.957184728537858298e+00
1.957184728537858298e+00
1.987560655537583543e+00
2.068563127536851454e+00
2.068563127536851454e+00
2.065000518814661401e+00
2.065000518814661401e+00
2.118064638203069894e+00
2.356009399700918827e+00
2.356009399700918827e+00
2.309320474868007622e+00
2.123502304147465658e+00
2.123502304147465658e+00
2.008373790704061967e+00
2.008373790704061967e+00
1.778866786706137404e+00
1.768928983428449397e+00
1.768928983428449397e+00
1.847306375316629667e+00
1.847306375316629667e+00
2.229255531479842567e+00
2.236193243202001746e+00
2.236193243202001746e+00
2.272756859035004684e+00
2.272756859035004684e+00
2.179754020813623683e+00
2.199254615924558287e+00
2.199254615924558287e+00
2.193066927091281038e+00
2.007061250648518591e+00
2.007061250648518591e+00
1.736302987762077699e+00
1.736302987762077699e+00
1.849556443983275900e+00
2.023936765648365554e+00
2.023936765648365554e+00
1.946871913815729327e+00
1.946871913815729327e+00
2.154065736869411385e+00
1.976497817926572642e+00
1.976497817926572642e+00
2.148815576647236547e+00
2.148815576647236547e+00
2.420136356700338887e+00
2.101376628925443413e+00
2.101376628925443413e+00
2.107001800592058771e+00
2.107001800592058771e+00
2.067813104647969080e+00
1.939746696371349222e+00
1.939746696371349222e+00
1.979122898037659839e+00
1.979122898037659839e+00
2.177128940702536042e+00
2.155190771202734279e+00
2.155190771202734279e+00
2.220630268257698603e+00
2.220630268257698603e+00
2.003873653370769503e+00
2.047187475203710694e+00
2.047187475203710694e+00
1.793867244483779544e+00
1.889307657094027704e+00
1.889307657094027704e+00
2.057875301370280852e+00
2.057875301370280852e+00
2.075125827814569668e+00
2.085438642536698417e+00
2.085438642536698417e+00
2.088626239814447505e+00
2.088626239814447505e+00
2.053937681203650278e+00
1.853119052705465952e+00
1.813180333872493666e+00
1.882369945371868081e+00
1.882369945371868081e+00
1.995060884426404613e+00
1.995060884426404613e+00
2.077938413647877791e+00
2.314195623645741495e+00
2.314195623645741495e+00
2.186504226813562823e+00
2.186504226813562823e+00
2.049625049592577852e+00
2.071750724814600098e+00
2.071750724814600098e+00
2.145252967925046494e+00
2.398760704367198571e+00
2.398760704367198571e+00
2.277444502090518075e+00
2.277444502090518075e+00
2.068750633259071936e+00
1.871682119205298145e+00
1.871682119205298145e+00
1.954934659871212066e+00
1.954934659871212066e+00
1.924371227149266117e+00
1.924371227149266117e+00
2.220442762535478121e+00
2.254006286812952009e+00
2.254006286812952009e+00
2.059937864314706601e+00
2.004436170537430950e+00
2.004436170537430950e+00
2.119189672536393232e+00
2.119189672536393232e+00
2.023749259926145072e+00
1.955872188482314478e+00
1.955872188482314478e+00
1.932996490371410303e+00
1.932996490371410303e+00
1.979872920926541990e+00
2.007623767815180038e+00
2.007623767815180038e+00
2.207504867702261730e+00
2.207504867702261730e+00
2.144315439313944083e+00
2.147878048036134135e+00
2.147878048036134135e+00
2.163253517258217240e+00
2.163253517258217240e+00
2.036687154759361462e+00
2.001248573259681862e+00
2.001248573259681862e+00
1.900558000427259309e+00
1.992248298593096711e+00
1.992248298593096711e+00
1.962059877315591949e+00
2.036312143314920498e+00
2.036312143314920498e+00
2.121064729758598499e+00
2.234318185979796478e+00
2.234318185979796478e+00
2.086188665425580790e+00
2.086188665425580790e+00
2.134940153202917745e+00
2.216880153813287624e+00
2.216880153813287624e+00
2.091438825647755628e+00
2.017749076815088305e+00
2.017749076815088305e+00
2.020186651203955464e+00
2.167566148869289222e+00
2.167566148869289222e+00
1.883494979705191197e+00
1.883494979705191197e+00
1.776804223761711432e+00
1.846556352427747516e+00
1.846556352427747516e+00
2.063312967314676172e+00
2.063312967314676172e+00
2.247443586535233351e+00
2.056187749870296511e+00
2.056187749870296511e+00
1.857431684316537934e+00
1.857431684316537934e+00
2.003873653370769503e+00
2.242005920590838475e+00
2.242005920590838475e+00
2.220067751091036712e+00
2.093501388592180934e+00
2.093501388592180934e+00
2.227380474257637299e+00
2.227380474257637299e+00
2.223442854091006282e+00
2.208817407757805107e+00
2.208817407757805107e+00
2.197379558702353020e+00
2.197379558702353020e+00
2.082063539536728847e+00
1.942934293649098310e+00
1.942934293649098310e+00
1.986998138370922096e+00
1.986998138370922096e+00
1.939746696371349222e+00
1.833805963316751608e+00
1.833805963316751608e+00
2.089001251258888470e+00
2.089001251258888470e+00
2.171316263313699757e+00
2.131752555925168657e+00
2.131752555925168657e+00
1.941059236426893042e+00
2.065938047425763813e+00
2.065938047425763813e+00
2.001811090426343309e+00
2.001811090426343309e+00
2.037624683370464318e+00
2.070063173314615312e+00
2.070063173314615312e+00
2.024311777092806519e+00
2.024311777092806519e+00
1.910495803704947093e+00
2.070063173314615312e+00
2.070063173314615312e+00
2.063687978759117581e+00
2.063687978759117581e+00
2.100251594592120075e+00
2.171128757591479275e+00
2.171128757591479275e+00
2.240880886257515137e+00
2.240880886257515137e+00
1.955497177037873513e+00
1.962809900204474101e+00
1.962809900204474101e+00
2.089563768425550361e+00
2.056187749870296511e+00
2.056187749870296511e+00
1.951934568315683460e+00
1.951934568315683460e+00
2.105126743369853504e+00
2.057125278481399366e+00
2.057125278481399366e+00
2.091251319925535146e+00
2.045312417981505870e+00
2.045312417981505870e+00
2.081876033814508364e+00
2.081876033814508364e+00
2.105501754814294912e+00
2.136440198980682048e+00
2.136440198980682048e+00
2.061625415814691387e+00
2.061625415814691387e+00
2.039687246314890068e+00
2.150503128147221332e+00
2.150503128147221332e+00
2.074188299203466812e+00
1.937871639149143954e+00
1.962809900204474101e+00
1.962809900204474101e+00
2.007436262092959556e+00
2.116939603869747000e+00
2.116939603869747000e+00
2.025624317148350340e+00
2.025624317148350340e+00
2.019436628315073090e+00
2.127064912869655711e+00
2.127064912869655711e+00
2.053000152592547423e+00
2.053000152592547423e+00
1.984185552537614194e+00
2.125189855647450443e+00
2.125189855647450443e+00
2.257381389812921579e+00
2.257381389812921579e+00
2.118439649647511303e+00
2.111876949369793088e+00
2.111876949369793088e+00
2.044749900814844423e+00
2.044749900814844423e+00
2.016249031037324002e+00
2.087313699758903685e+00
2.087313699758903685e+00
2.092188848536637558e+00
1.976310312204351938e+00
1.976310312204351938e+00
2.038937223426007694e+00
2.038937223426007694e+00
2.121064729758598499e+00
2.071188207647938206e+00
2.071188207647938206e+00
2.122189764091921838e+00
2.122189764091921838e+00
2.101564134647663895e+00
1.963184911648915065e+00
1.963184911648915065e+00
2.012123905148472502e+00
2.012123905148472502e+00
2.113189489425336465e+00
2.183504135258034218e+00
2.167378643147068740e+00
2.167378643147068740e+00
2.020374156926175946e+00
2.020374156926175946e+00
1.952872096926786094e+00
1.946309396649067658e+00
1.946309396649067658e+00
1.990560747093111926e+00
1.990560747093111926e+00
1.817492965483565870e+00
1.944059327982421204e+00
1.944059327982421204e+00
2.151065645313883223e+00
2.151065645313883223e+00
2.208442396313364142e+00
2.080375988036744506e+00
2.080375988036744506e+00
2.022249214148381213e+00
2.022249214148381213e+00
2.043624866481521085e+00
2.050562578203680708e+00
2.050562578203680708e+00
2.181816583758049433e+00
2.081501022370067400e+00
2.081501022370067400e+00
2.002186101870784718e+00
2.002186101870784718e+00
1.980247932370982955e+00
1.962434888760032914e+00
1.962434888760032914e+00
1.964122440260017699e+00
1.964122440260017699e+00
2.007061250648518591e+00
2.149378093813898438e+00
2.149378093813898438e+00
2.125564867091891408e+00
2.125564867091891408e+00
2.029936948759422766e+00
2.024874294259468410e+00
2.024874294259468410e+00
1.974060243537705706e+00
1.974060243537705706e+00
2.064438001647999510e+00
2.174128849147007880e+00
2.174128849147007880e+00
2.123689809869686140e+00
2.130440015869624837e+00
2.130440015869624837e+00
2.106251777703176842e+00
2.106251777703176842e+00
2.076625873592333971e+00
2.049062532425916405e+00
2.049062532425916405e+00
1.956434705648976147e+00
1.956434705648976147e+00
1.947621936704611478e+00
2.072875759147922992e+00
2.072875759147922992e+00
2.131190038758506766e+00
2.131190038758506766e+00
2.159503402813806705e+00
2.074188299203466812e+00
2.074188299203466812e+00
2.043812372203741567e+00
2.043812372203741567e+00
2.034999603259376677e+00
2.104001709036531054e+00
2.104001709036531054e+00
2.096876491592150504e+00
2.043062349314859638e+00
2.043062349314859638e+00
2.044749900814844423e+00
2.044749900814844423e+00
2.131002533036286284e+00
2.051312601092562637e+00
2.051312601092562637e+00
2.094063905758842381e+00
2.018124088259529714e+00
2.018124088259529714e+00
1.970497634815515653e+00
1.970497634815515653e+00
1.970310129093295171e+00
2.004061159092989985e+00
2.004061159092989985e+00
2.022624225592822178e+00
2.022624225592822178e+00
2.012311410870692985e+00
2.083001068147831703e+00
2.083001068147831703e+00
2.091438825647755628e+00
2.091438825647755628e+00
2.144690450758385047e+00
2.144690450758385047e+00
2.064250495925779028e+00
2.064250495925779028e+00
2.098564043092135289e+00
2.059937864314706601e+00
2.059937864314706601e+00
1.968247566148869199e+00
1.968247566148869199e+00
2.001998596148564236e+00
2.112626972258675018e+00
2.112626972258675018e+00
2.066125553147984295e+00
2.066125553147984295e+00
2.066875576036866669e+00
2.075313333536790150e+00
2.075313333536790150e+00
2.005936216315195253e+00
2.005936216315195253e+00
1.957747245704519745e+00
2.101189123203222930e+00
2.101189123203222930e+00
2.182754112369151844e+00
2.074938322092349186e+00
2.074938322092349186e+00
2.040437269203771997e+00
2.040437269203771997e+00
1.940496719260231373e+00
1.965809991760002484e+00
1.965809991760002484e+00
2.088063722647786058e+00
2.088063722647786058e+00
2.094813928647724754e+00
2.032749534592730889e+00
2.032749534592730889e+00
2.042499832148198191e+00
2.042499832148198191e+00
2.041562303537095335e+00
2.046624958037049247e+00
2.046624958037049247e+00
2.098939054536576698e+00
2.098939054536576698e+00
2.106814294869838289e+00
2.062187932981353278e+00
2.062187932981353278e+00
2.039874752037110550e+00
2.077000885036774935e+00
2.077000885036774935e+00
2.117877132480849411e+00
2.117877132480849411e+00
2.065000518814661401e+00
2.091438825647755628e+00
2.091438825647755628e+00
2.062750450148014725e+00
2.062750450148014725e+00
2.068375621814630971e+00
2.070063173314615312e+00
2.070063173314615312e+00
1.971622669148838769e+00
1.971622669148838769e+00
2.001623584704122827e+00
2.092188848536637558e+00
2.092188848536637558e+00
2.057875301370280852e+00
2.057875301370280852e+00
2.101189123203222930e+00
2.072500747703482027e+00
2.072500747703482027e+00
2.017186559648426858e+00
1.924371227149266117e+00
1.924371227149266117e+00
2.001436078981902345e+00
2.001436078981902345e+00
2.089188756981108952e+00
2.092376354258858040e+00
2.092376354258858040e+00
2.077938413647877791e+00
2.077938413647877791e+00
2.061062898648029940e+00
2.096501480147709540e+00
2.096501480147709540e+00
2.081501022370067400e+00
2.081501022370067400e+00
1.998435987426374183e+00
2.005748710592974771e+00
2.005748710592974771e+00
2.055625232703635064e+00
2.055625232703635064e+00
2.093688894314401416e+00
2.086001159703360308e+00
2.086001159703360308e+00
2.067250587481307633e+00
2.044562395092623941e+00
2.044562395092623941e+00
2.025249305703909375e+00
2.025249305703909375e+00
2.127064912869655711e+00
2.134565141758476781e+00
2.134565141758476781e+00
2.107001800592058771e+00
2.107001800592058771e+00
2.060500381481368493e+00
2.010436353648488161e+00
2.010436353648488161e+00
1.985498092593157793e+00
1.985498092593157793e+00
1.976122806482131455e+00
1.979122898037659839e+00
1.979122898037659839e+00
2.059750358592486119e+00
2.059750358592486119e+00
2.051500106814783120e+00
2.017936582537308787e+00
2.016061525315103520e+00
2.067063081759087151e+00
2.067063081759087151e+00
2.156315805536057617e+00
2.156315805536057617e+00
2.036874660481581945e+00
2.065188024536881883e+00
2.065188024536881883e+00
2.146940519425031280e+00
2.143377910702841227e+00
2.143377910702841227e+00
2.064813013092440475e+00
2.064813013092440475e+00
2.058812829981383707e+00
2.064625507370219992e+00
2.064625507370219992e+00
2.084313608203375079e+00
2.084313608203375079e+00
2.055625232703635064e+00
2.011936399426252020e+00
1.997310953093050845e+00
2.036687154759361462e+00
2.036687154759361462e+00
2.020186651203955464e+00
2.010248847926267679e+00
2.010248847926267679e+00
2.011373882259590129e+00
2.011373882259590129e+00
2.059750358592486119e+00
2.044937406537064906e+00
2.044937406537064906e+00
2.016999053926206376e+00
2.016999053926206376e+00
2.044937406537064906e+00
2.073625782036805365e+00
2.073625782036805365e+00
2.089563768425550361e+00
2.089563768425550361e+00
2.088251228370006540e+00
2.056937772759178884e+00
2.056937772759178884e+00
2.035562120426038124e+00
2.035562120426038124e+00
2.057687795648060813e+00
2.031436994537187068e+00
2.031436994537187068e+00
2.013248939481795396e+00
2.046812463759269729e+00
2.046812463759269729e+00
2.091813837092196593e+00
2.091813837092196593e+00
2.090688802758873255e+00
2.055625232703635064e+00
2.055625232703635064e+00
2.050937589648121673e+00
2.066125553147984295e+00
2.066125553147984295e+00
2.097814020203253360e+00
2.060875392925809457e+00
2.060875392925809457e+00
2.082063539536728847e+00
2.082063539536728847e+00
2.063687978759117581e+00
2.068750633259071936e+00
2.068750633259071936e+00
2.063312967314676172e+00
2.040062257759331033e+00
2.040062257759331033e+00
2.014561479537339217e+00
1.999561021759697299e+00
1.999561021759697299e+00
2.035562120426038124e+00
2.035562120426038124e+00
2.075125827814569668e+00
2.074563310647907777e+00
2.074563310647907777e+00
2.067063081759087151e+00
2.067063081759087151e+00
2.052437635425885976e+00
2.050562578203680708e+00
2.050562578203680708e+00
2.071563219092379615e+00
2.071563219092379615e+00
2.076625873592333971e+00
2.057687795648060813e+00
2.057687795648060813e+00
2.068938138981292418e+00
2.055250221259193655e+00
2.055250221259193655e+00
2.036312143314920498e+00
2.036312143314920498e+00
2.038937223426007694e+00
2.055250221259193655e+00
2.055250221259193655e+00
2.043062349314859638e+00
2.043062349314859638e+00
2.073813287759025847e+00
2.035937131870479533e+00
2.035937131870479533e+00
2.032562028870509963e+00
2.053750175481429796e+00
2.053750175481429796e+00
2.019624134037293572e+00
2.019624134037293572e+00
2.114877040925321250e+00
2.113376995147556947e+00
2.113376995147556947e+00
2.078688436536759720e+00
2.078688436536759720e+00
2.093313882869960452e+00
2.029186925870540392e+00
2.029186925870540392e+00
2.036312143314920498e+00
2.036312143314920498e+00
2.005561204870754288e+00
2.005373699148533806e+00
2.005373699148533806e+00
2.063687978759117581e+00
2.082813562425611220e+00
2.082813562425611220e+00
2.043062349314859638e+00
2.043062349314859638e+00
2.001248573259681862e+00
2.039687246314890068e+00
2.039687246314890068e+00
2.076250862147892562e+00
2.076250862147892562e+00
2.060500381481368493e+00
2.108501846369823074e+00
2.108501846369823074e+00
2.130627521591845319e+00
2.086563676870021755e+00
2.086563676870021755e+00
2.074375804925687294e+00
2.074375804925687294e+00
2.035187108981597159e+00
2.033687063203833301e+00
2.033687063203833301e+00
2.034437086092715230e+00
2.034437086092715230e+00
2.040624774925992480e+00
2.061437910092470904e+00
2.061437910092470904e+00
2.078125919370098273e+00
2.078125919370098273e+00
2.095376445814386202e+00
2.081876033814508364e+00
2.081876033814508364e+00
2.027874385814997016e+00
2.027874385814997016e+00
2.048312509537034032e+00
2.010623859370708644e+00
2.010623859370708644e+00
2.064813013092440475e+00
2.064813013092440475e+00
2.078688436536759720e+00
2.078688436536759720e+00
2.040437269203771997e+00
2.024124271370586037e+00
2.024124271370586037e+00
2.043812372203741567e+00
2.043812372203741567e+00
2.043812372203741567e+00
2.005936216315195253e+00
2.005936216315195253e+00
2.079438459425641650e+00
2.079438459425641650e+00
2.065938047425763813e+00
2.092376354258858040e+00
2.092376354258858040e+00
2.055625232703635064e+00
2.083188573870052185e+00
2.083188573870052185e+00
2.071750724814600098e+00
2.071750724814600098e+00
2.049250038148136888e+00
2.058250312814721816e+00
2.058250312814721816e+00
2.048125003814813549e+00
2.048125003814813549e+00
2.068563127536851454e+00
2.056375255592516993e+00
2.056375255592516993e+00
2.050562578203680708e+00
2.050562578203680708e+00
2.056750267036957958e+00
2.079063447981200685e+00
2.079063447981200685e+00
2.080750999481185470e+00
2.080750999481185470e+00
2.052625141148106458e+00
2.089751274147770843e+00
2.089751274147770843e+00
2.075500839259010633e+00
2.040624774925992480e+00
2.040624774925992480e+00
2.022999237037263143e+00
2.058437818536942299e+00
2.058437818536942299e+00
2.065750541703543330e+00
2.065750541703543330e+00
2.062750450148014725e+00
2.066688070314646186e+00
2.066688070314646186e+00
2.052062623981445011e+00
2.052062623981445011e+00
2.078875942258980203e+00
2.103064180425428198e+00
2.103064180425428198e+00
2.106064271980956359e+00
2.106064271980956359e+00
2.076438367870113488e+00
2.042874843592639156e+00
2.042874843592639156e+00
2.037437177648243392e+00
2.037437177648243392e+00
2.076813379314554453e+00
2.048125003814813549e+00
2.048125003814813549e+00
2.041374797814874853e+00
2.049250038148136888e+00
2.049250038148136888e+00
2.037812189092684800e+00
2.037812189092684800e+00
2.045312417981505870e+00
2.046999969481490211e+00
2.046999969481490211e+00
2.068938138981292418e+00
2.068938138981292418e+00
2.078875942258980203e+00
2.057687795648060813e+00
2.057687795648060813e+00
2.054875209814752690e+00
2.054875209814752690e+00
2.057875301370280852e+00
2.080000976592303541e+00
2.080000976592303541e+00
2.065375530259102366e+00
2.065375530259102366e+00
2.055437726981414581e+00
2.084313608203375079e+00
2.084313608203375079e+00
2.026186834315011787e+00
2.026186834315011787e+00
2.062375438703573760e+00
2.036312143314920498e+00
2.036312143314920498e+00
2.026186834315011787e+00
2.053187658314767905e+00
2.053187658314767905e+00
2.061437910092470904e+00
2.061437910092470904e+00
2.056937772759178884e+00
2.079250953703421168e+00
2.079250953703421168e+00
2.090501297036652772e+00
2.090501297036652772e+00
2.087688711203345093e+00
2.077188390758995418e+00
2.077188390758995418e+00
2.051500106814783120e+00
2.051500106814783120e+00
2.043437360759300603e+00
2.076250862147892562e+00
2.076250862147892562e+00
2.060312875759148010e+00
2.067625598925748598e+00
2.067625598925748598e+00
2.043437360759300603e+00
2.043999877925962494e+00
2.043999877925962494e+00
2.065938047425763813e+00
2.065938047425763813e+00
2.062000427259132795e+00
2.037999694814905283e+00
2.037999694814905283e+00
2.030499465926084213e+00
2.030499465926084213e+00
2.054875209814752690e+00
2.063875484481338063e+00
2.063875484481338063e+00
2.053375164036988387e+00
2.053375164036988387e+00
2.062750450148014725e+00
2.057500289925840331e+00
2.057500289925840331e+00
2.059000335703604190e+00
2.070063173314615312e+00
2.070813196203497242e+00
2.070813196203497242e+00
2.037062166203802427e+00
2.037062166203802427e+00
2.057312784203619849e+00
2.081501022370067400e+00
2.081501022370067400e+00
2.071188207647938206e+00
2.071188207647938206e+00
2.052625141148106458e+00
2.056375255592516993e+00
2.068188116092410045e+00
2.068188116092410045e+00
2.081313516647846917e+00
2.081313516647846917e+00
2.071375713370158689e+00
2.050187566759239299e+00
2.050187566759239299e+00
2.073063264870143918e+00
2.066875576036866669e+00
2.066875576036866669e+00
2.090501297036652772e+00
2.090501297036652772e+00
2.045499923703726353e+00
2.044374889370403459e+00
2.044374889370403459e+00
2.074375804925687294e+00
2.074375804925687294e+00
2.067625598925748598e+00
2.052437635425885976e+00
2.052437635425885976e+00
2.068750633259071936e+00
2.068750633259071936e+00
2.071563219092379615e+00
2.034812097537156195e+00
2.034812097537156195e+00
2.042312326425977265e+00
2.064062990203558545e+00
2.064062990203558545e+00
2.073813287759025847e+00
2.073813287759025847e+00
2.091063814203314664e+00
2.059000335703604190e+00
2.059000335703604190e+00
2.047374980925931620e+00
2.047374980925931620e+00
2.060312875759148010e+00
2.082438550981169811e+00
2.082438550981169811e+00
2.062000427259132795e+00
2.058062807092501334e+00
2.058062807092501334e+00
2.071000701925717724e+00
2.071000701925717724e+00
2.077188390758995418e+00
2.062750450148014725e+00
2.062750450148014725e+00
2.038187200537125765e+00
2.038187200537125765e+00
2.054875209814752690e+00
2.065000518814661401e+00
2.065000518814661401e+00
2.077750907925656865e+00
2.077750907925656865e+00
2.050000061037018817e+00
2.015874019592883037e+00
2.015874019592883037e+00
2.033124546037171854e+00
2.033124546037171854e+00
2.056187749870296511e+00
2.067250587481307633e+00
2.067250587481307633e+00
2.061625415814691387e+00
2.065938047425763813e+00
2.065938047425763813e+00
2.085626148258918899e+00
2.085626148258918899e+00
2.064625507370219992e+00
2.055250221259193655e+00
2.055250221259193655e+00
2.072688253425702509e+00
2.072688253425702509e+00
2.056750267036957958e+00
2.050187566759239299e+00
2.050187566759239299e+00
2.051125095370342155e+00
2.051125095370342155e+00
2.057500289925840331e+00
2.070250679036835795e+00
2.070250679036835795e+00
2.068938138981292418e+00
2.068938138981292418e+00
2.076063356425672080e+00
2.066688070314646186e+00
2.066688070314646186e+00
2.074188299203466812e+00
2.074188299203466812e+00
2.066500564592425260e+00
2.050750083925901190e+00
2.050750083925901190e+00
2.057125278481399366e+00
2.069500656147953865e+00
2.069500656147953865e+00
2.079438459425641650e+00
2.079438459425641650e+00
2.083563585314493150e+00
2.067063081759087151e+00
2.067063081759087151e+00
2.064625507370219992e+00
2.064625507370219992e+00
2.048875026703695923e+00
2.065750541703543330e+00
2.065750541703543330e+00
2.058062807092501334e+00
2.082063539536728847e+00
2.082063539536728847e+00
2.079625965147862576e+00
2.079625965147862576e+00
2.046624958037049247e+00
2.054500198370311725e+00
2.054500198370311725e+00
2.069875667592394830e+00
2.069875667592394830e+00
2.060875392925809457e+00
2.054687704092532208e+00
2.054687704092532208e+00
2.061250404370250422e+00
2.072688253425702509e+00
2.072688253425702509e+00
2.069875667592394830e+00
2.069875667592394830e+00
2.064062990203558545e+00
2.067063081759087151e+00
2.067250587481307633e+00
2.055812738425855546e+00
2.055812738425855546e+00
2.040437269203771997e+00
2.040437269203771997e+00
2.047187475203710694e+00
2.074750816370128703e+00
2.074750816370128703e+00
2.086001159703360308e+00
2.068938138981292418e+00
2.068938138981292418e+00
2.056562761314737475e+00
2.056562761314737475e+00
2.066125553147984295e+00
2.065188024536881883e+00
2.065188024536881883e+00
2.064625507370219992e+00
2.064625507370219992e+00
2.058812829981383707e+00
2.069875667592394830e+00
2.069875667592394830e+00
2.070250679036835795e+00
2.070250679036835795e+00
2.046999969481490211e+00
2.056937772759178884e+00
2.056937772759178884e+00
2.072688253425702509e+00
2.064062990203558545e+00
2.064062990203558545e+00
2.051500106814783120e+00
2.051500106814783120e+00
2.050187566759239299e+00
2.069875667592394830e+00
2.069875667592394830e+00
2.069125644703512901e+00
2.069125644703512901e+00
2.061625415814691387e+00
2.063687978759117581e+00
2.063687978759117581e+00
2.053187658314767905e+00
2.053187658314767905e+00
2.051125095370342155e+00
2.059000335703604190e+00
2.059000335703604190e+00
2.076438367870113488e+00
2.058625324259163225e+00
2.058625324259163225e+00
2.065188024536881883e+00
2.065188024536881883e+00
2.080750999481185470e+00
2.065938047425763813e+00
2.065938047425763813e+00
2.056375255592516993e+00
2.056375255592516993e+00
2.053937681203650278e+00
2.054500198370311725e+00
2.054500198370311725e+00
2.048875026703695923e+00
2.048875026703695923e+00
2.064813013092440475e+00
2.073250770592364400e+00
2.073250770592364400e+00
2.055812738425855546e+00
2.055812738425855546e+00
2.060500381481368493e+00
2.067625598925748598e+00
2.067625598925748598e+00
2.073063264870143918e+00
2.073063264870143918e+00
2.067063081759087151e+00
2.071375713370158689e+00
2.071375713370158689e+00
2.066125553147984295e+00
2.071188207647938206e+00
2.071188207647938206e+00
2.055437726981414581e+00
2.055437726981414581e+00
2.061250404370250422e+00
2.072500747703482027e+00
2.072500747703482027e+00
2.051125095370342155e+00
2.051125095370342155e+00
2.046062440870388244e+00
2.053562669759208870e+00
2.053562669759208870e+00
2.054125186925870761e+00
2.054125186925870761e+00
2.051312601092562637e+00
2.059375347148045154e+00
2.059375347148045154e+00
2.060125370036927084e+00
2.060125370036927084e+00
2.065938047425763813e+00
2.071188207647938206e+00
2.071188207647938206e+00
2.061250404370250422e+00
2.066500564592425260e+00
2.066500564592425260e+00
2.073625782036805365e+00
2.073625782036805365e+00
2.062187932981353278e+00
2.075500839259010633e+00
2.075500839259010633e+00
2.067250587481307633e+00
2.067250587481307633e+00
2.062937955870235207e+00
2.055062715536973172e+00
2.055062715536973172e+00
2.045687429425947279e+00
2.045687429425947279e+00
2.060500381481368493e+00
2.058812829981383707e+00
2.058812829981383707e+00
2.057312784203619849e+00
2.059750358592486119e+00
2.059750358592486119e+00
2.034062074648274265e+00
2.034062074648274265e+00
2.042874843592639156e+00
2.067438093203528116e+00
2.067438093203528116e+00
2.049250038148136888e+00
2.049250038148136888e+00
2.080750999481185470e+00
2.076625873592333971e+00
2.076625873592333971e+00
2.068000610370189563e+00
2.068188116092410045e+00
2.068188116092410045e+00
2.062937955870235207e+00
2.062937955870235207e+00
2.071938230536820580e+00
2.059187841425824672e+00
2.039687246314890068e+00
2.037812189092684800e+00
2.037812189092684800e+00
2.053937681203650278e+00
2.053937681203650278e+00
2.063125461592455689e+00
2.056937772759178884e+00
2.056937772759178884e+00
2.065938047425763813e+00
2.065938047425763813e+00
2.069313150425733383e+00
2.063875484481338063e+00
2.063875484481338063e+00
2.051875118259224084e+00
2.051875118259224084e+00
2.075313333536790150e+00
2.076625873592333971e+00
2.076625873592333971e+00
2.068375621814630971e+00
2.054500198370311725e+00
2.054500198370311725e+00
2.068375621814630971e+00
2.068375621814630971e+00
2.050937589648121673e+00
2.082063539536728847e+00
2.082063539536728847e+00
2.073813287759025847e+00
2.073813287759025847e+00
2.047187475203710694e+00
2.037062166203802427e+00
2.037062166203802427e+00
2.060312875759148010e+00
2.060312875759148010e+00
2.074375804925687294e+00
2.050750083925901190e+00
2.050750083925901190e+00
2.060875392925809457e+00
2.076063356425672080e+00
2.076063356425672080e+00
2.056937772759178884e+00
2.056937772759178884e+00
2.043624866481521085e+00
2.055437726981414581e+00
2.055437726981414581e+00
2.071938230536820580e+00
2.061625415814691387e+00
2.061625415814691387e+00
2.071938230536820580e+00
2.071938230536820580e+00
2.075125827814569668e+00
2.069500656147953865e+00
2.069500656147953865e+00
2.082626056703390294e+00
2.082626056703390294e+00
2.057125278481399366e+00
2.043812372203741567e+00
2.043812372203741567e+00
2.040437269203771997e+00
2.040437269203771997e+00
2.044374889370403459e+00
2.030499465926084213e+00
2.030499465926084213e+00
2.050750083925901190e+00
2.050750083925901190e+00
2.065750541703543330e+00
2.071000701925717724e+00
2.071000701925717724e+00
2.073625782036805365e+00
2.073625782036805365e+00
2.090126285592211808e+00
2.083938596758934114e+00
2.083938596758934114e+00
2.067438093203528116e+00
2.049062532425916405e+00
2.049062532425916405e+00
2.054875209814752690e+00
2.054875209814752690e+00
2.044937406537064906e+00
2.029186925870540392e+00
2.029186925870540392e+00
2.039124729148228621e+00
2.039124729148228621e+00
2.082063539536728847e+00
2.093501388592180934e+00
2.093501388592180934e+00
2.080938505203405953e+00
2.080938505203405953e+00
2.074000793481246330e+00
2.064062990203558545e+00
2.064062990203558545e+00
2.079250953703421168e+00
2.079250953703421168e+00
2.068938138981292418e+00
2.070813196203497242e+00
2.070813196203497242e+00
2.063687978759117581e+00
2.063687978759117581e+00
2.043812372203741567e+00
2.038937223426007694e+00
2.038937223426007694e+00
2.057125278481399366e+00
2.041187292092654371e+00
2.041187292092654371e+00
2.027311868648335125e+00
2.027311868648335125e+00
2.053937681203650278e+00
2.057500289925840331e+00
2.057500289925840331e+00
2.074750816370128703e+00
2.074750816370128703e+00
2.074188299203466812e+00
2.082813562425611220e+00
2.082813562425611220e+00
2.099126560258797181e+00
2.099126560258797181e+00
2.052062623981445011e+00
2.037999694814905283e+00
2.037999694814905283e+00
2.032187017426068998e+00
2.032187017426068998e+00
2.020561662648396428e+00
2.019999145481734981e+00
2.019999145481734981e+00
2.042499832148198191e+00
2.073250770592364400e+00
2.073250770592364400e+00
2.059000335703604190e+00
2.059000335703604190e+00
2.075313333536790150e+00
2.070438184759056277e+00
2.070438184759056277e+00
2.064625507370219992e+00
2.064625507370219992e+00
2.049625049592577852e+00
2.116752098147526517e+00
2.115814569536424106e+00
2.115814569536424106e+00
2.067813104647969080e+00
2.067813104647969080e+00
2.026749351481673678e+00
2.029749443037202283e+00
2.029749443037202283e+00
2.039312234870449103e+00
2.039312234870449103e+00
2.055437726981414581e+00
2.077750907925656865e+00
2.077750907925656865e+00
2.076250862147892562e+00
2.049437543870357370e+00
2.049437543870357370e+00
2.053937681203650278e+00
2.053937681203650278e+00
2.079063447981200685e+00
2.092751365703299449e+00
2.092751365703299449e+00
2.058625324259163225e+00
2.058625324259163225e+00
2.047749992370372585e+00
2.031249488814966586e+00
2.031249488814966586e+00
2.015686513870662555e+00
2.047374980925931620e+00
2.047374980925931620e+00
2.083563585314493150e+00
2.083563585314493150e+00
2.106626789147617806e+00
2.099126560258797181e+00
2.099126560258797181e+00
2.086751182592242237e+00
2.086751182592242237e+00
2.072500747703482027e+00
2.050562578203680708e+00
2.050562578203680708e+00
2.026186834315011787e+00
2.026186834315011787e+00
2.083001068147831703e+00
2.097814020203253360e+00
2.097814020203253360e+00
2.092938871425519931e+00
2.015311502426221590e+00
2.015311502426221590e+00
2.004998687704092397e+00
2.065563035981322848e+00
2.065563035981322848e+00
2.072500747703482027e+00
2.072500747703482027e+00
2.078313425092318756e+00
2.062562944425794242e+00
2.062562944425794242e+00
2.056187749870296511e+00
2.056187749870296511e+00
2.052250129703665493e+00
2.041374797814874853e+00
2.041374797814874853e+00
2.026936857203894160e+00
2.026936857203894160e+00
2.066500564592425260e+00
2.087313699758903685e+00
2.087313699758903685e+00
2.058625324259163225e+00
2.029186925870540392e+00
2.029186925870540392e+00
2.060500381481368493e+00
2.060500381481368493e+00
2.103251686147648680e+00
2.043624866481521085e+00
2.043624866481521085e+00
2.071000701925717724e+00
2.071000701925717724e+00
2.073250770592364400e+00
2.039124729148228621e+00
2.039124729148228621e+00
2.020374156926175946e+00
2.020374156926175946e+00
2.046062440870388244e+00
2.089001251258888470e+00
2.089001251258888470e+00
2.078688436536759720e+00
2.078688436536759720e+00
2.065750541703543330e+00
2.084688619647816488e+00
2.084688619647816488e+00
2.062000427259132795e+00
2.062000427259132795e+00
2.046062440870388244e+00
2.069688161870173904e+00
2.069688161870173904e+00
2.077938413647877791e+00
2.077938413647877791e+00
2.041374797814874853e+00
2.022999237037263143e+00
2.022999237037263143e+00
2.032937040314951371e+00
2.072500747703482027e+00
2.072500747703482027e+00
2.070250679036835795e+00
2.070250679036835795e+00
2.032749534592730889e+00
2.046999969481490211e+00
2.046999969481490211e+00
2.064250495925779028e+00
2.064250495925779028e+00
2.049062532425916405e+00
2.059562852870265637e+00
2.059562852870265637e+00
2.098001525925473842e+00
2.081688528092287882e+00
2.107376812036500180e+00
2.058625324259163225e+00
2.058625324259163225e+00
2.069688161870173904e+00
2.069688161870173904e+00
2.052812646870326940e+00
2.051312601092562637e+00
2.051312601092562637e+00
2.021124179815057875e+00
2.042499832148198191e+00
2.042499832148198191e+00
2.019061616870632125e+00
2.019061616870632125e+00
2.046437452314828764e+00
2.083563585314493150e+00
2.083563585314493150e+00
2.068750633259071936e+00
2.068750633259071936e+00
2.056750267036957958e+00
2.060687887203588975e+00
2.060687887203588975e+00
2.031436994537187068e+00
2.031436994537187068e+00
2.050187566759239299e+00
2.054500198370311725e+00
2.054500198370311725e+00
2.082438550981169811e+00
2.082438550981169811e+00
2.059562852870265637e+00
2.061250404370250422e+00
2.061250404370250422e+00
2.086001159703360308e+00
2.080938505203405953e+00
2.080938505203405953e+00
2.078125919370098273e+00
2.078125919370098273e+00
2.049812555314798335e+00
2.041749809259315818e+00
2.041749809259315818e+00
2.027874385814997016e+00
2.027874385814997016e+00
2.091438825647755628e+00
2.117314615314187964e+00
2.117314615314187964e+00
2.058250312814721816e+00
2.058250312814721816e+00
2.045124912259285388e+00
2.067625598925748598e+00
2.067625598925748598e+00
2.097439008758812395e+00
2.097439008758812395e+00
2.081688528092287882e+00
2.047749992370372585e+00
2.037249671926022909e+00
2.037249671926022909e+00
2.044187383648182976e+00
2.044187383648182976e+00
2.051312601092562637e+00
2.051312601092562637e+00
2.051312601092562637e+00
2.058062807092501334e+00
2.058437818536942299e+00
2.058437818536942299e+00
2.042499832148198191e+00
2.029936948759422766e+00
2.029936948759422766e+00
2.020749168370616911e+00
2.020749168370616911e+00
2.085626148258918899e+00
2.066500564592425260e+00
2.066500564592425260e+00
2.069313150425733383e+00
2.069313150425733383e+00
2.083563585314493150e+00
2.079813470870083059e+00
2.079813470870083059e+00
2.076438367870113488e+00
2.076438367870113488e+00
2.062750450148014725e+00
2.061437910092470904e+00
2.061437910092470904e+00
2.089751274147770843e+00
2.089751274147770843e+00
2.099876583147679110e+00
2.061250404370250422e+00
2.061250404370250422e+00
2.020186651203955464e+00
2.024874294259468410e+00
2.024874294259468410e+00
2.033687063203833301e+00
2.033687063203833301e+00
2.035937131870479533e+00
2.059562852870265637e+00
2.059562852870265637e+00
2.092188848536637558e+00
2.092188848536637558e+00
2.054312692648091243e+00
2.039687246314890068e+00
2.039687246314890068e+00
2.051500106814783120e+00
2.051500106814783120e+00
1.995248390148625317e+00
2.133815118869594407e+00
2.133815118869594407e+00
2.051875118259224084e+00
2.051875118259224084e+00
2.032374523148289480e+00
2.063875484481338063e+00
2.063875484481338063e+00
2.082626056703390294e+00
2.083751091036713632e+00
2.083751091036713632e+00
2.090126285592211808e+00
2.090126285592211808e+00
2.115627063814203623e+00
2.134002624591814889e+00
2.134002624591814889e+00
2.080563493758964988e+00
2.080563493758964988e+00
2.051875118259224084e+00
2.033499557481612818e+00
2.033499557481612818e+00
2.003873653370769503e+00
2.003873653370769503e+00
1.947059419537949809e+00
2.047937498092593067e+00
2.047937498092593067e+00
2.117689626758628929e+00
2.117689626758628929e+00
2.106064271980956359e+00
2.112251960814234053e+00
2.112251960814234053e+00
2.046062440870388244e+00
2.050750083925901190e+00
2.050750083925901190e+00
2.067250587481307633e+00
2.071000701925717724e+00
2.071000701925717724e+00
2.109439374980925930e+00
2.109439374980925930e+00
2.090501297036652772e+00
2.050187566759239299e+00
2.050187566759239299e+00
2.013248939481795396e+00
2.013248939481795396e+00
2.008561296426282894e+00
2.058812829981383707e+00
2.058812829981383707e+00
2.004061159092989985e+00
2.004061159092989985e+00
2.062187932981353278e+00
2.107189306314279698e+00
2.077563402203436382e+00
2.058812829981383707e+00
2.058812829981383707e+00
2.043999877925962494e+00
2.025999328592791304e+00
2.025999328592791304e+00
2.072125736259041062e+00
2.072125736259041062e+00
2.089563768425550361e+00
2.043062349314859638e+00
2.043062349314859638e+00
2.025249305703909375e+00
2.025249305703909375e+00
2.031812005981628033e+00
2.031061983092746104e+00
2.031061983092746104e+00
2.024686788537247928e+00
2.024686788537247928e+00
2.070438184759056277e+00
2.081313516647846917e+00
2.081313516647846917e+00
2.139440290536210654e+00
2.142815393536179780e+00
2.142815393536179780e+00
2.071375713370158689e+00
2.071375713370158689e+00
2.049062532425916405e+00
2.097251503036591469e+00
2.097251503036591469e+00
2.097626514481032878e+00
2.097626514481032878e+00
2.080563493758964988e+00
2.058625324259163225e+00
2.058625324259163225e+00
2.020936674092837393e+00
2.020936674092837393e+00
2.065750541703543330e+00
2.095001434369945237e+00
2.095001434369945237e+00
2.061625415814691387e+00
2.061625415814691387e+00
2.053937681203650278e+00
2.073625782036805365e+00
2.073625782036805365e+00
2.081313516647846917e+00
2.079813470870083059e+00
2.079813470870083059e+00
2.063687978759117581e+00
2.063687978759117581e+00
2.065375530259102366e+00
2.068563127536851454e+00
2.068563127536851454e+00
2.072688253425702509e+00
2.072688253425702509e+00
2.072688253425702509e+00
2.007623767815180038e+00
2.007623767815180038e+00
2.032562028870509963e+00
2.026186834315011787e+00
2.026186834315011787e+00
2.026186834315011787e+00
2.026186834315011787e+00
2.002936124759666647e+00
1.988498184148686176e+00
1.988498184148686176e+00
2.109439374980925930e+00
2.109439374980925930e+00
2.118064638203069894e+00
2.139065279091769245e+00
2.139065279091769245e+00
2.087688711203345093e+00
2.087688711203345093e+00
2.042874843592639156e+00
2.013436445204016323e+00
2.013436445204016323e+00
2.048500015259254514e+00
2.048500015259254514e+00
2.049812555314798335e+00
2.082626056703390294e+00
2.082626056703390294e+00
2.083563585314493150e+00
2.121064729758598499e+00
2.121064729758598499e+00
2.148815576647236547e+00
2.148815576647236547e+00
2.056562761314737475e+00
1.977997863704336723e+00
1.977997863704336723e+00
2.009123813592944341e+00
2.009123813592944341e+00
1.990748252815332409e+00
2.059000335703604190e+00
2.059000335703604190e+00
2.066500564592425260e+00
2.066500564592425260e+00
2.114314523758659803e+00
2.118439649647511303e+00
2.118439649647511303e+00
2.089751274147770843e+00
2.089751274147770843e+00
2.092001342814417075e+00
2.089751274147770843e+00
2.089751274147770843e+00
2.070250679036835795e+00
2.036124637592700015e+00
2.036124637592700015e+00
2.028436902981658463e+00
2.028436902981658463e+00
1.993185827204199345e+00
2.040999786370433888e+00
2.040999786370433888e+00
2.025624317148350340e+00
2.025624317148350340e+00
2.016624042481765411e+00
2.070063173314615312e+00
2.070063173314615312e+00
2.096688985869930022e+00
2.134377636036255854e+00
2.134377636036255854e+00
2.143002899258400262e+00
2.143002899258400262e+00
2.084688619647816488e+00
2.108689352092044000e+00
2.108689352092044000e+00
2.152003173924985191e+00
2.152003173924985191e+00
2.107751823480941145e+00
2.065938047425763813e+00
2.065938047425763813e+00
2.025999328592791304e+00
2.025999328592791304e+00
2.017749076815088305e+00
2.048500015259254514e+00
2.051500106814783120e+00
2.094251411481063307e+00
2.094251411481063307e+00
2.122564775536362802e+00
2.122564775536362802e+00
2.129127475814081016e+00
2.143377910702841227e+00
2.143377910702841227e+00
2.079438459425641650e+00
2.079438459425641650e+00
2.033499557481612818e+00
2.014936490981780626e+00
2.014936490981780626e+00
1.970122623371074688e+00
1.970122623371074688e+00
2.058250312814721816e+00
2.095376445814386202e+00
2.095376445814386202e+00
2.051875118259224084e+00
2.051875118259224084e+00
2.090876308481094181e+00
2.104751731925412539e+00
2.104751731925412539e+00
2.138127750480666833e+00
2.138127750480666833e+00
2.127627430036317158e+00
2.089001251258888470e+00
2.089001251258888470e+00
2.027499374370555607e+00
1.971435163426618287e+00
1.971435163426618287e+00
1.927558824427014983e+00
1.927558824427014983e+00
1.976122806482131455e+00
2.058062807092501334e+00
2.058062807092501334e+00
2.131940061647389140e+00
2.131940061647389140e+00
2.111314432203131197e+00
2.047937498092593067e+00
2.047937498092593067e+00
2.042874843592639156e+00
2.042874843592639156e+00
2.084501113925596005e+00
2.112251960814234053e+00
2.112251960814234053e+00
1.987748161259804025e+00
2.065563035981322848e+00
2.065563035981322848e+00
2.199254615924558287e+00
2.151253151036103706e+00
2.151253151036103706e+00
2.065750541703543330e+00
2.065750541703543330e+00
2.003311136204107612e+00
2.059000335703604190e+00
2.059000335703604190e+00
2.055812738425855546e+00
2.055812738425855546e+00
2.078500930814539238e+00
2.096688985869930022e+00
2.096688985869930022e+00
2.182191595202490397e+00
2.182191595202490397e+00
2.088813745536667987e+00
2.032374523148289480e+00
2.032374523148289480e+00
2.122939786980803767e+00
2.008561296426282894e+00
2.008561296426282894e+00
1.976497817926572642e+00
1.976497817926572642e+00
2.023374248481704107e+00
2.076063356425672080e+00
2.076063356425672080e+00
2.134190130314035372e+00
2.134190130314035372e+00
2.131940061647389140e+00
2.126502395702994264e+00
2.126502395702994264e+00
2.053187658314767905e+00
2.053187658314767905e+00
2.113564500869777874e+00
2.105314249092073986e+00
2.105314249092073986e+00
2.070438184759056277e+00
2.070438184759056277e+00
2.182566606646931362e+00
2.172441297647023095e+00
2.172441297647023095e+00
1.969560106204413019e+00
1.913870906704916663e+00
1.913870906704916663e+00
1.926433790093691867e+00
1.926433790093691867e+00
2.006498733481856700e+00
2.107564317758720662e+00
2.107564317758720662e+00
2.188379284035767647e+00
2.188379284035767647e+00
2.046999969481490211e+00
2.114127018036439321e+00
2.114127018036439321e+00
2.046812463759269729e+00
2.046812463759269729e+00
2.015311502426221590e+00
1.970497634815515653e+00
1.970497634815515653e+00
2.062750450148014725e+00
2.062750450148014725e+00
2.134190130314035372e+00
2.118252143925290376e+00
2.118252143925290376e+00
2.108501846369823074e+00
2.168691183202612560e+00
2.065938047425763813e+00
2.062187932981353278e+00
2.062187932981353278e+00
2.070625690481276759e+00
2.136627704702902530e+00
2.136627704702902530e+00
2.119752189703054679e+00
2.119752189703054679e+00
2.074563310647907777e+00
2.146753013702810797e+00
2.146753013702810797e+00
2.137940244758446351e+00
2.137940244758446351e+00
1.994123355815301979e+00
1.949496993926816524e+00
1.949496993926816524e+00
1.958309762871181414e+00
1.959247291482284048e+00
1.923433698538163483e+00
2.062937955870235207e+00
2.062937955870235207e+00
2.073813287759025847e+00
2.006311227759636218e+00
2.006311227759636218e+00
2.093688894314401416e+00
2.093688894314401416e+00
2.098939054536576698e+00
2.143377910702841227e+00
2.143377910702841227e+00
2.038374706259346247e+00
2.038374706259346247e+00
2.036124637592700015e+00
2.089751274147770843e+00
2.089751274147770843e+00
2.133065095980712478e+00
2.133065095980712478e+00
2.079813470870083059e+00
2.119002166814172750e+00
2.119002166814172750e+00
2.174503860591448845e+00
2.174503860591448845e+00
2.101564134647663895e+00
1.937309121982482507e+00
1.937309121982482507e+00
1.948184453871272925e+00
2.139627796258431136e+00
2.139627796258431136e+00
