2.056187749870296511e+00
2.049062532425916405e+00
2.054875209814752690e+00
2.054875209814752690e+00
2.056937772759178884e+00
2.062375438703573760e+00
2.062375438703573760e+00
2.069125644703512901e+00
2.069125644703512901e+00
2.063875484481338063e+00
2.062937955870235207e+00
2.062937955870235207e+00
2.053562669759208870e+00
2.065188024536881883e+00
2.065188024536881883e+00
2.049625049592577852e+00
2.049625049592577852e+00
2.065188024536881883e+00
2.090313791314432290e+00
2.090313791314432290e+00
2.061812921536912313e+00
2.061812921536912313e+00
2.044374889370403459e+00
2.054500198370311725e+00
2.054500198370311725e+00
2.080188482314524023e+00
2.080188482314524023e+00
2.074188299203466812e+00
2.060687887203588975e+00
2.060687887203588975e+00
2.019999145481734981e+00
2.019999145481734981e+00
2.039687246314890068e+00
2.049625049592577852e+00
2.057312784203619849e+00
2.057312784203619849e+00
2.063687978759117581e+00
2.063687978759117581e+00
2.072688253425702509e+00
2.073813287759025847e+00
2.073813287759025847e+00
2.062000427259132795e+00
2.046999969481490211e+00
2.046999969481490211e+00
2.081688528092287882e+00
2.081688528092287882e+00
2.081501022370067400e+00
2.068563127536851454e+00
2.068563127536851454e+00
2.055250221259193655e+00
2.055250221259193655e+00
2.045687429425947279e+00
2.036312143314920498e+00
2.036312143314920498e+00
2.064250495925779028e+00
2.064250495925779028e+00
2.065375530259102366e+00
2.056562761314737475e+00
2.056562761314737475e+00
2.053375164036988387e+00
2.057875301370280852e+00
2.057875301370280852e+00
2.064625507370219992e+00
2.064625507370219992e+00
2.045499923703726353e+00
2.058812829981383707e+00
2.058812829981383707e+00
2.067625598925748598e+00
2.049625049592577852e+00
2.049625049592577852e+00
2.038749717703787212e+00
2.038749717703787212e+00
2.070438184759056277e+00
2.072688253425702509e+00
2.072688253425702509e+00
2.085813653981139382e+00
2.085813653981139382e+00
2.074188299203466812e+00
2.046624958037049247e+00
2.046624958037049247e+00
2.058250312814721816e+00
2.058250312814721816e+00
2.061250404370250422e+00
1.943496810815759979e+00
1.943496810815759979e+00
2.120877224036378017e+00
2.092001342814417075e+00
2.092001342814417075e+00
2.076813379314554453e+00
2.076813379314554453e+00
2.075875850703451597e+00
2.056000244148076028e+00
2.056000244148076028e+00
2.046812463759269729e+00
2.046812463759269729e+00
2.053562669759208870e+00
2.066688070314646186e+00
2.066688070314646186e+00
2.061437910092470904e+00
2.070625690481276759e+00
2.070625690481276759e+00
2.080375988036744506e+00
2.080375988036744506e+00
2.076250862147892562e+00
2.085438642536698417e+00
2.085438642536698417e+00
2.071188207647938206e+00
2.071188207647938206e+00
2.067813104647969080e+00
2.037999694814905283e+00
2.037999694814905283e+00
2.044937406537064906e+00
2.044937406537064906e+00
2.061437910092470904e+00
2.066125553147984295e+00
2.066125553147984295e+00
2.062187932981353278e+00
2.062187932981353278e+00
2.069125644703512901e+00
2.049812555314798335e+00
2.049812555314798335e+00
2.052625141148106458e+00
2.058062807092501334e+00
2.058062807092501334e+00
2.072500747703482027e+00
2.072500747703482027e+00
2.063875484481338063e+00
2.063875484481338063e+00
2.063875484481338063e+00
2.058437818536942299e+00
2.058437818536942299e+00
2.050562578203680708e+00
2.054312692648091243e+00
2.054312692648091243e+00
2.062187932981353278e+00
2.062187932981353278e+00
2.068750633259071936e+00
2.070625690481276759e+00
2.070625690481276759e+00
2.072500747703482027e+00
2.055250221259193655e+00
2.055250221259193655e+00
2.069688161870173904e+00
2.069688161870173904e+00
2.080750999481185470e+00
2.066125553147984295e+00
2.066125553147984295e+00
2.037249671926022909e+00
2.037249671926022909e+00
2.081126010925626435e+00
2.073250770592364400e+00
2.073250770592364400e+00
2.067063081759087151e+00
2.067063081759087151e+00
2.067438093203528116e+00
2.056562761314737475e+00
2.056562761314737475e+00
2.060687887203588975e+00
2.060687887203588975e+00
2.061250404370250422e+00
2.050937589648121673e+00
2.050937589648121673e+00
2.058625324259163225e+00
2.058625324259163225e+00
2.074188299203466812e+00
2.085813653981139382e+00
2.085813653981139382e+00
2.066125553147984295e+00
2.064250495925779028e+00
2.064250495925779028e+00
2.063687978759117581e+00
2.063687978759117581e+00
2.053562669759208870e+00
2.055812738425855546e+00
2.055812738425855546e+00
2.046999969481490211e+00
2.046999969481490211e+00
2.040999786370433888e+00
2.050000061037018817e+00
2.050000061037018817e+00
2.058625324259163225e+00
2.058625324259163225e+00
2.066500564592425260e+00
2.088626239814447505e+00
2.088626239814447505e+00
2.086188665425580790e+00
2.086188665425580790e+00
2.065938047425763813e+00
2.050562578203680708e+00
2.050562578203680708e+00
2.055250221259193655e+00
2.013998962370677770e+00
2.013998962370677770e+00
2.031812005981628033e+00
2.031812005981628033e+00
2.056375255592516993e+00
2.083751091036713632e+00
2.083751091036713632e+00
2.101939146092104860e+00
2.101939146092104860e+00
2.095751457258827610e+00
2.079438459425641650e+00
2.079438459425641650e+00
2.068000610370189563e+00
2.056750267036957958e+00
2.056750267036957958e+00
2.047374980925931620e+00
2.047374980925931620e+00
2.039499740592669585e+00
2.042874843592639156e+00
2.042874843592639156e+00
2.042312326425977265e+00
2.046812463759269729e+00
2.046812463759269729e+00
2.054125186925870761e+00
2.054125186925870761e+00
2.051312601092562637e+00
2.047374980925931620e+00
2.047374980925931620e+00
2.060687887203588975e+00
2.060687887203588975e+00
2.066125553147984295e+00
2.069688161870173904e+00
2.069688161870173904e+00
2.069313150425733383e+00
2.069313150425733383e+00
2.062750450148014725e+00
2.062375438703573760e+00
2.062375438703573760e+00
2.072875759147922992e+00
2.068750633259071936e+00
2.068750633259071936e+00
2.053562669759208870e+00
2.053562669759208870e+00
2.051312601092562637e+00
2.050375072481459782e+00
2.050375072481459782e+00
2.053375164036988387e+00
2.053375164036988387e+00
2.049625049592577852e+00
2.046624958037049247e+00
2.046624958037049247e+00
2.065375530259102366e+00
2.074750816370128703e+00
2.074750816370128703e+00
2.077750907925656865e+00
2.077750907925656865e+00
2.067063081759087151e+00
2.074188299203466812e+00
2.074188299203466812e+00
2.080563493758964988e+00
2.080563493758964988e+00
2.073063264870143918e+00
2.059937864314706601e+00
2.059937864314706601e+00
2.044374889370403459e+00
2.044374889370403459e+00
2.050187566759239299e+00
2.042124820703756782e+00
2.042124820703756782e+00
2.052250129703665493e+00
2.052250129703665493e+00
2.067250587481307633e+00
2.063125461592455689e+00
2.063125461592455689e+00
2.062375438703573760e+00
2.062375438703573760e+00
2.057500289925840331e+00
2.051687612537003602e+00
2.051687612537003602e+00
2.056187749870296511e+00
2.065563035981322848e+00
2.065563035981322848e+00
2.059187841425824672e+00
2.059187841425824672e+00
2.054687704092532208e+00
2.068188116092410045e+00
2.068188116092410045e+00
2.086001159703360308e+00
2.086001159703360308e+00
2.083001068147831703e+00
2.065938047425763813e+00
2.065938047425763813e+00
2.040437269203771997e+00
2.040437269203771997e+00
2.065938047425763813e+00
2.059187841425824672e+00
2.059187841425824672e+00
2.066875576036866669e+00
2.062187932981353278e+00
2.062187932981353278e+00
2.024124271370586037e+00
2.024124271370586037e+00
2.025624317148350340e+00
2.050750083925901190e+00
2.050750083925901190e+00
2.083563585314493150e+00
2.083563585314493150e+00
2.042499832148198191e+00
2.057875301370280852e+00
2.057875301370280852e+00
2.068750633259071936e+00
2.068750633259071936e+00
2.068375621814630971e+00
2.057687795648060813e+00
2.057687795648060813e+00
2.064625507370219992e+00
2.064625507370219992e+00
2.075125827814569668e+00
2.067813104647969080e+00
2.067813104647969080e+00
2.067813104647969080e+00
2.067813104647969080e+00
2.059375347148045154e+00
2.065938047425763813e+00
2.065938047425763813e+00
2.055625232703635064e+00
2.046062440870388244e+00
2.046062440870388244e+00
2.064062990203558545e+00
2.064062990203558545e+00
2.071563219092379615e+00
2.061625415814691387e+00
2.061625415814691387e+00
2.053375164036988387e+00
2.053375164036988387e+00
2.055062715536973172e+00
2.050187566759239299e+00
2.050187566759239299e+00
2.059000335703604190e+00
2.059000335703604190e+00
2.070250679036835795e+00
2.059750358592486119e+00
2.059750358592486119e+00
2.064813013092440475e+00
2.065938047425763813e+00
2.065938047425763813e+00
2.059562852870265637e+00
2.059562852870265637e+00
2.059000335703604190e+00
2.058437818536942299e+00
2.058437818536942299e+00
2.078875942258980203e+00
2.078875942258980203e+00
2.072875759147922992e+00
2.049437543870357370e+00
2.049437543870357370e+00
2.071750724814600098e+00
2.071750724814600098e+00
2.064438001647999510e+00
2.053562669759208870e+00
2.053562669759208870e+00
2.043249855037080120e+00
2.071188207647938206e+00
2.071188207647938206e+00
2.079625965147862576e+00
2.079625965147862576e+00
2.068750633259071936e+00
2.052250129703665493e+00
2.052250129703665493e+00
2.041374797814874853e+00
2.041374797814874853e+00
2.019624134037293572e+00
2.037812189092684800e+00
2.037812189092684800e+00
2.056750267036957958e+00
2.056750267036957958e+00
2.048875026703695923e+00
2.090876308481094181e+00
2.090876308481094181e+00
2.059000335703604190e+00
2.050000061037018817e+00
2.050000061037018817e+00
2.071563219092379615e+00
2.071563219092379615e+00
2.066313058870204777e+00
2.097439008758812395e+00
2.097439008758812395e+00
2.102876674703207716e+00
2.102876674703207716e+00
2.078688436536759720e+00
2.092376354258858040e+00
2.092376354258858040e+00
2.050187566759239299e+00
2.050187566759239299e+00
2.015123996704001108e+00
2.000686056093020415e+00
2.000686056093020415e+00
2.033312051759392336e+00
2.033312051759392336e+00
2.058812829981383707e+00
2.063875484481338063e+00
2.063875484481338063e+00
2.086188665425580790e+00
2.089001251258888470e+00
2.089001251258888470e+00
2.074000793481246330e+00
2.074000793481246330e+00
2.047562486648152102e+00
2.075500839259010633e+00
2.075500839259010633e+00
2.073813287759025847e+00
2.073813287759025847e+00
2.042874843592639156e+00
2.059562852870265637e+00
2.059562852870265637e+00
2.078875942258980203e+00
2.078875942258980203e+00
2.078875942258980203e+00
2.083001068147831703e+00
2.083001068147831703e+00
2.080375988036744506e+00
2.080375988036744506e+00
2.047749992370372585e+00
2.027124362926114642e+00
2.027124362926114642e+00
2.023186742759483625e+00
2.048875026703695923e+00
2.048875026703695923e+00
2.057875301370280852e+00
2.057875301370280852e+00
2.065000518814661401e+00
2.051687612537003602e+00
2.051687612537003602e+00
2.068563127536851454e+00
2.068563127536851454e+00
2.084876125370036970e+00
2.078875942258980203e+00
2.078875942258980203e+00
2.064250495925779028e+00
2.064250495925779028e+00
2.045687429425947279e+00
2.036312143314920498e+00
2.036312143314920498e+00
2.063875484481338063e+00
2.063875484481338063e+00
2.083188573870052185e+00
2.077375896481215900e+00
2.077375896481215900e+00
2.050562578203680708e+00
2.086376171147801273e+00
2.086376171147801273e+00
2.058062807092501334e+00
2.058062807092501334e+00
2.032937040314951371e+00
2.026561845759453195e+00
2.026561845759453195e+00
2.022436719870601696e+00
2.022436719870601696e+00
2.048125003814813549e+00
2.068188116092410045e+00
2.068188116092410045e+00
2.068563127536851454e+00
2.068563127536851454e+00
2.066688070314646186e+00
2.057687795648060813e+00
2.057687795648060813e+00
2.047374980925931620e+00
2.044749900814844423e+00
2.044749900814844423e+00
2.065563035981322848e+00
2.065563035981322848e+00
2.076063356425672080e+00
2.048500015259254514e+00
2.048500015259254514e+00
2.003686147648549021e+00
2.003686147648549021e+00
2.011186376537369647e+00
2.035187108981597159e+00
2.035187108981597159e+00
2.068375621814630971e+00
2.068375621814630971e+00
2.102126651814325342e+00
2.081688528092287882e+00
2.081688528092287882e+00
2.061625415814691387e+00
2.061625415814691387e+00
2.092001342814417075e+00
2.093876400036621899e+00
2.093876400036621899e+00
2.091063814203314664e+00
2.088251228370006540e+00
2.088251228370006540e+00
2.074000793481246330e+00
2.074000793481246330e+00
2.048687520981474997e+00
2.046812463759269729e+00
2.046812463759269729e+00
2.026374340037232713e+00
2.026374340037232713e+00
2.046249946592608282e+00
2.068188116092410045e+00
2.068188116092410045e+00
2.060125370036927084e+00
2.060125370036927084e+00
2.033124546037171854e+00
2.067813104647969080e+00
2.067813104647969080e+00
2.059562852870265637e+00
2.059562852870265637e+00
2.062562944425794242e+00
2.014373973815118735e+00
2.014373973815118735e+00
1.995810907315286764e+00
2.041374797814874853e+00
2.041374797814874853e+00
2.108126834925382109e+00
2.108126834925382109e+00
2.099689077425458628e+00
2.029936948759422766e+00
2.029936948759422766e+00
2.021499191259499284e+00
2.021499191259499284e+00
2.054500198370311725e+00
2.074563310647907777e+00
2.074563310647907777e+00
2.097814020203253360e+00
2.097814020203253360e+00
2.062000427259132795e+00
2.052437635425885976e+00
2.052437635425885976e+00
2.045124912259285388e+00
2.057875301370280852e+00
2.057875301370280852e+00
2.085438642536698417e+00
2.085438642536698417e+00
2.085251136814477935e+00
2.055812738425855546e+00
2.055812738425855546e+00
2.031812005981628033e+00
2.031812005981628033e+00
2.038749717703787212e+00
2.045499923703726353e+00
2.045499923703726353e+00
2.050750083925901190e+00
2.050750083925901190e+00
2.063687978759117581e+00
2.050562578203680708e+00
2.050562578203680708e+00
2.022061708426160731e+00
2.034062074648274265e+00
2.034062074648274265e+00
2.032937040314951371e+00
2.032937040314951371e+00
2.071188207647938206e+00
2.079625965147862576e+00
2.079625965147862576e+00
2.056000244148076028e+00
2.056000244148076028e+00
2.045499923703726353e+00
2.067063081759087151e+00
2.067063081759087151e+00
2.092563859981078966e+00
2.092563859981078966e+00
2.110939420758690233e+00
2.073438276314584883e+00
2.073438276314584883e+00
2.043999877925962494e+00
2.043999877925962494e+00
2.039687246314890068e+00
2.036312143314920498e+00
2.036312143314920498e+00
2.046062440870388244e+00
2.046062440870388244e+00
2.043624866481521085e+00
2.055250221259193655e+00
2.055250221259193655e+00
2.068938138981292418e+00
2.055250221259193655e+00
2.055250221259193655e+00
2.057687795648060813e+00
2.057687795648060813e+00
2.064813013092440475e+00
2.031436994537187068e+00
2.031436994537187068e+00
1.997873470259712514e+00
1.997873470259712514e+00
2.030686971648304695e+00
2.035749626148258606e+00
2.035749626148258606e+00
2.059375347148045154e+00
2.059375347148045154e+00
2.068563127536851454e+00
2.092938871425519931e+00
2.092938871425519931e+00
2.071000701925717724e+00
2.071000701925717724e+00
2.031624500259407551e+00
2.000873561815240897e+00
2.000873561815240897e+00
2.043437360759300603e+00
2.100626606036561483e+00
2.100626606036561483e+00
2.110564409314249268e+00
2.110564409314249268e+00
2.105876766258735877e+00
2.082813562425611220e+00
2.082813562425611220e+00
2.071938230536820580e+00
2.071938230536820580e+00
2.046624958037049247e+00
2.029561937314981801e+00
2.029561937314981801e+00
2.004998687704092397e+00
2.004998687704092397e+00
2.052250129703665493e+00
2.109251869258705447e+00
2.109251869258705447e+00
2.082813562425611220e+00
2.061250404370250422e+00
2.061250404370250422e+00
2.035937131870479533e+00
2.035937131870479533e+00
2.048125003814813549e+00
2.052625141148106458e+00
2.052625141148106458e+00
2.069125644703512901e+00
2.069125644703512901e+00
2.065000518814661401e+00
2.104001709036531054e+00
2.104001709036531054e+00
2.079625965147862576e+00
2.079625965147862576e+00
2.027499374370555607e+00
2.033312051759392336e+00
2.033312051759392336e+00
2.038374706259346247e+00
2.038374706259346247e+00
2.011748893704031538e+00
2.032562028870509963e+00
2.032562028870509963e+00
2.076063356425672080e+00
2.077938413647877791e+00
2.077938413647877791e+00
2.047749992370372585e+00
2.047749992370372585e+00
1.988873195593127363e+00
2.044374889370403459e+00
2.044374889370403459e+00
2.110001892147587377e+00
2.110001892147587377e+00
2.144502945036164565e+00
2.098564043092135289e+00
2.098564043092135289e+00
2.073250770592364400e+00
2.005186193426313324e+00
2.005186193426313324e+00
2.022624225592822178e+00
2.022624225592822178e+00
2.033124546037171854e+00
2.030499465926084213e+00
2.030499465926084213e+00
2.050562578203680708e+00
2.050562578203680708e+00
2.066500564592425260e+00
2.091813837092196593e+00
2.091813837092196593e+00
2.080750999481185470e+00
2.080750999481185470e+00
2.072313241981261545e+00
2.066688070314646186e+00
2.066688070314646186e+00
2.031061983092746104e+00
2.031061983092746104e+00
2.048125003814813549e+00
2.027874385814997016e+00
2.027874385814997016e+00
2.006873744926298109e+00
2.006873744926298109e+00
2.019624134037293572e+00
2.037437177648243392e+00
2.037437177648243392e+00
2.071938230536820580e+00
2.128189947202978605e+00
2.128189947202978605e+00
2.134002624591814889e+00
2.134002624591814889e+00
2.124439832758568070e+00
2.056000244148076028e+00
2.056000244148076028e+00
2.013248939481795396e+00
2.013248939481795396e+00
2.062375438703573760e+00
2.053000152592547423e+00
2.053000152592547423e+00
2.013623950926236805e+00
2.029374431592760875e+00
2.029374431592760875e+00
2.011936399426252020e+00
2.011936399426252020e+00
2.001061067537461380e+00
2.059750358592486119e+00
2.059750358592486119e+00
2.123127292703024249e+00
2.123127292703024249e+00
2.113564500869777874e+00
2.030686971648304695e+00
2.030686971648304695e+00
2.034999603259376677e+00
2.034999603259376677e+00
1.998060975981932996e+00
2.023749259926145072e+00
2.023749259926145072e+00
2.093126377147739969e+00
2.136440198980682048e+00
2.136440198980682048e+00
2.117689626758628929e+00
2.117689626758628929e+00
2.127627430036317158e+00
2.091063814203314664e+00
2.091063814203314664e+00
2.019811639759514499e+00
2.019811639759514499e+00
2.005373699148533806e+00
2.063125461592455689e+00
2.063125461592455689e+00
2.086563676870021755e+00
2.086563676870021755e+00
2.066688070314646186e+00
2.076438367870113488e+00
2.076438367870113488e+00
2.059562852870265637e+00
2.059562852870265637e+00
2.061625415814691387e+00
2.057687795648060813e+00
2.057687795648060813e+00
2.027499374370555607e+00
2.027499374370555607e+00
1.997685964537492032e+00
2.030499465926084213e+00
2.030499465926084213e+00
2.046062440870388244e+00
2.085251136814477935e+00
2.085251136814477935e+00
2.049625049592577852e+00
2.049625049592577852e+00
2.009686330759605788e+00
2.055437726981414581e+00
2.055437726981414581e+00
2.062000427259132795e+00
2.062000427259132795e+00
2.071188207647938206e+00
2.076625873592333971e+00
2.076625873592333971e+00
2.126502395702994264e+00
2.086563676870021755e+00
2.086563676870021755e+00
2.089938779869991325e+00
2.053375164036988387e+00
2.053375164036988387e+00
2.029374431592760875e+00
2.051687612537003602e+00
2.051687612537003602e+00
2.073813287759025847e+00
2.073813287759025847e+00
2.017374065370647340e+00
2.103251686147648680e+00
2.103251686147648680e+00
2.110751915036469750e+00
2.110751915036469750e+00
2.084501113925596005e+00
2.076625873592333971e+00
2.076625873592333971e+00
2.028811914426099428e+00
2.028811914426099428e+00
1.970872646259956840e+00
2.067063081759087151e+00
2.067063081759087151e+00
2.124252327036347587e+00
2.124252327036347587e+00
2.059562852870265637e+00
2.078688436536759720e+00
2.078688436536759720e+00
2.129127475814081016e+00
2.123689809869686140e+00
2.123689809869686140e+00
2.149565599536118921e+00
2.149565599536118921e+00
2.142627887813959298e+00
2.054500198370311725e+00
2.054500198370311725e+00
2.042874843592639156e+00
2.042874843592639156e+00
2.036499649037140980e+00
1.993560838648640532e+00
1.993560838648640532e+00
1.963934934537797217e+00
1.963934934537797217e+00
1.958497268593401897e+00
2.037062166203802427e+00
2.037062166203802427e+00
2.011373882259590129e+00
2.089188756981108952e+00
2.089188756981108952e+00
2.084501113925596005e+00
2.084501113925596005e+00
2.079625965147862576e+00
2.089563768425550361e+00
2.089563768425550361e+00
2.088813745536667987e+00
2.065563035981322848e+00
2.065563035981322848e+00
2.052812646870326940e+00
2.047187475203710694e+00
2.047187475203710694e+00
2.116189580980865070e+00
2.116189580980865070e+00
2.094251411481063307e+00
2.067063081759087151e+00
2.034999603259376677e+00
2.034999603259376677e+00
2.037999694814905283e+00
2.037999694814905283e+00
2.059375347148045154e+00
2.062375438703573760e+00
2.062375438703573760e+00
2.045499923703726353e+00
2.045499923703726353e+00
2.053937681203650278e+00
1.978560380870998392e+00
1.978560380870998392e+00
1.980435438093203437e+00
1.980435438093203437e+00
2.034062074648274265e+00
2.070438184759056277e+00
2.070438184759056277e+00
2.136440198980682048e+00
2.240880886257515137e+00
2.240880886257515137e+00
2.184816675313578038e+00
2.184816675313578038e+00
2.071563219092379615e+00
2.014748985259559699e+00
2.014748985259559699e+00
2.053375164036988387e+00
2.053375164036988387e+00
2.076625873592333971e+00
2.050375072481459782e+00
2.050375072481459782e+00
2.015123996704001108e+00
2.015123996704001108e+00
2.019811639759514499e+00
2.010623859370708644e+00
2.010623859370708644e+00
2.058625324259163225e+00
2.091438825647755628e+00
2.091438825647755628e+00
2.042124820703756782e+00
2.042124820703756782e+00
2.056187749870296511e+00
2.092188848536637558e+00
2.092188848536637558e+00
2.056000244148076028e+00
2.056000244148076028e+00
2.082438550981169811e+00
2.081313516647846917e+00
2.081313516647846917e+00
2.102314157536546269e+00
2.102314157536546269e+00
2.074375804925687294e+00
2.060125370036927084e+00
2.060125370036927084e+00
2.022811731315042216e+00
1.880307382427442331e+00
1.880307382427442331e+00
1.578048158207953300e+00
2.010248847926267679e+00
2.010248847926267679e+00
2.089938779869991325e+00
2.089938779869991325e+00
2.458950041199987613e+00
2.310258003479110034e+00
2.310258003479110034e+00
2.144315439313944083e+00
2.144315439313944083e+00
2.050000061037018817e+00
2.034249580370494748e+00
2.034249580370494748e+00
2.013436445204016323e+00
1.956997222815637594e+00
1.956997222815637594e+00
1.969372600482192537e+00
1.969372600482192537e+00
2.083188573870052185e+00
2.119377178258613714e+00
2.119377178258613714e+00
2.058062807092501334e+00
2.039874752037110550e+00
2.039874752037110550e+00
1.998998504593035630e+00
1.998998504593035630e+00
2.058250312814721816e+00
2.281194616534928166e+00
2.281194616534928166e+00
2.212380016479995160e+00
2.164003540147099169e+00
2.164003540147099169e+00
2.017186559648426858e+00
2.017186559648426858e+00
2.006686239204077182e+00
2.056000244148076028e+00
2.056000244148076028e+00
2.065938047425763813e+00
1.990935758537552891e+00
1.990935758537552891e+00
2.016811548203985893e+00
2.016811548203985893e+00
2.115064546647541732e+00
2.105126743369853504e+00
2.105126743369853504e+00
2.028999420148319910e+00
2.028999420148319910e+00
2.009123813592944341e+00
1.947434430982390996e+00
1.947434430982390996e+00
1.958497268593401897e+00
1.958497268593401897e+00
2.146378002258369833e+00
2.207129856257820322e+00
2.207129856257820322e+00
2.171316263313699757e+00
2.171316263313699757e+00
1.968997589037751350e+00
1.910308297982726611e+00
1.910308297982726611e+00
2.019624134037293572e+00
2.019624134037293572e+00
2.135877681814020157e+00
2.092188848536637558e+00
2.092188848536637558e+00
2.046812463759269729e+00
2.218380199591051927e+00
2.218380199591051927e+00
2.191191869869075770e+00
2.191191869869075770e+00
1.955872188482314478e+00
1.940496719260231373e+00
1.940496719260231373e+00
2.102876674703207716e+00
2.102876674703207716e+00
2.197004547257912055e+00
2.095001434369945237e+00
2.095001434369945237e+00
2.031812005981628033e+00
2.031812005981628033e+00
2.088438734092227023e+00
2.029186925870540392e+00
2.029186925870540392e+00
1.957934751426740450e+00
1.957934751426740450e+00
2.118814661091952267e+00
2.210129947813348927e+00
2.210129947813348927e+00
1.985685598315378275e+00
2.024124271370586037e+00
2.024124271370586037e+00
2.046249946592608282e+00
2.046249946592608282e+00
1.978185369426557427e+00
1.933371501815851268e+00
1.933371501815851268e+00
2.096876491592150504e+00
2.096876491592150504e+00
2.095751457258827610e+00
2.140190313425092139e+00
2.140190313425092139e+00
1.885557542649616947e+00
1.885557542649616947e+00
2.061250404370250422e+00
2.302007751701407035e+00
2.302007751701407035e+00
2.194566972869045340e+00
2.194566972869045340e+00
2.090126285592211808e+00
1.921558641315958216e+00
1.921558641315958216e+00
2.027686880092776089e+00
2.148253059480575100e+00
2.148253059480575100e+00
2.135315164647358710e+00
2.135315164647358710e+00
2.124814844203009478e+00
2.086376171147801273e+00
2.086376171147801273e+00
2.058812829981383707e+00
2.058812829981383707e+00
2.028624408703878945e+00
2.001623584704122827e+00
2.001623584704122827e+00
2.009686330759605788e+00
2.009686330759605788e+00
2.006123722037415735e+00
2.020749168370616911e+00
2.020749168370616911e+00
2.140377819147312621e+00
2.140377819147312621e+00
2.228505508590960638e+00
2.112814477980895500e+00
2.112814477980895500e+00
1.892120242927335383e+00
1.904683126316110808e+00
1.904683126316110808e+00
2.125752372814111890e+00
2.125752372814111890e+00
2.122752281258583285e+00
2.069125644703512901e+00
2.069125644703512901e+00
1.972185186315500438e+00
1.972185186315500438e+00
1.949872005371257710e+00
1.900933011871700273e+00
1.900933011871700273e+00
1.992248298593096711e+00
1.992248298593096711e+00
2.182566606646931362e+00
2.199629627368999252e+00
2.199629627368999252e+00
1.997873470259712514e+00
1.956622211371196629e+00
1.956622211371196629e+00
2.111689443647572162e+00
2.111689443647572162e+00
2.169253700369274007e+00
2.121439741203039464e+00
2.121439741203039464e+00
2.077375896481215900e+00
2.077375896481215900e+00
1.986998138370922096e+00
1.889495162816248186e+00
1.889495162816248186e+00
2.070625690481276759e+00
2.070625690481276759e+00
2.275944456312753772e+00
1.984373058259834677e+00
1.984373058259834677e+00
1.870182073427533842e+00
2.409261024811548246e+00
2.409261024811548246e+00
2.444512100589007364e+00
2.444512100589007364e+00
2.234505691702016961e+00
2.027311868648335125e+00
2.027311868648335125e+00
1.907120700704977745e+00
1.907120700704977745e+00
1.862494338816492068e+00
1.875057222205267493e+00
1.875057222205267493e+00
1.953809625537888728e+00
1.953809625537888728e+00
1.954747154148991584e+00
2.115064546647541732e+00
2.115064546647541732e+00
2.133440107425153442e+00
2.133440107425153442e+00
2.044937406537064906e+00
1.974435254982146670e+00
1.974435254982146670e+00
2.100814111758781966e+00
2.263006561479537382e+00
2.263006561479537382e+00
2.103439191869869163e+00
2.103439191869869163e+00
2.228318002868740155e+00
2.234130680257575996e+00
2.234130680257575996e+00
1.985310586870937088e+00
1.985310586870937088e+00
1.911245826593829245e+00
1.907120700704977745e+00
1.907120700704977745e+00
1.993748344370861014e+00
1.993748344370861014e+00
1.987373149815363060e+00
2.056000244148076028e+00
2.056000244148076028e+00
2.166816125980407293e+00
2.166816125980407293e+00
2.168691183202612560e+00
2.086563676870021755e+00
2.086563676870021755e+00
1.962247383037812432e+00
1.962247383037812432e+00
2.046437452314828764e+00
2.164566057313760616e+00
2.164566057313760616e+00
2.229630542924283532e+00
2.108501846369823074e+00
2.108501846369823074e+00
2.052250129703665493e+00
2.052250129703665493e+00
2.125002349925229961e+00
2.039124729148228621e+00
2.039124729148228621e+00
2.049812555314798335e+00
2.049812555314798335e+00
2.111501937925351680e+00
2.073250770592364400e+00
2.073250770592364400e+00
1.964497451704458886e+00
1.824243171483504788e+00
1.824243171483504788e+00
1.749615894039735275e+00
1.749615894039735275e+00
1.976122806482131455e+00
2.164378551591540134e+00
2.164378551591540134e+00
2.154628254036072832e+00
2.154628254036072832e+00
2.161003448591571008e+00
2.222880336924344391e+00
2.222880336924344391e+00
2.159128391369365740e+00
2.159128391369365740e+00
2.071563219092379615e+00
2.111689443647572162e+00
2.111689443647572162e+00
1.924933744315927786e+00
1.924933744315927786e+00
2.099689077425458628e+00
2.153878231147190458e+00
2.153878231147190458e+00
2.122189764091921838e+00
2.060500381481368493e+00
2.060500381481368493e+00
2.103626697592089645e+00
2.103626697592089645e+00
2.121064729758598499e+00
1.934684041871395088e+00
1.934684041871395088e+00
2.030311960203863730e+00
2.030311960203863730e+00
2.082438550981169811e+00
1.949684499649037006e+00
1.949684499649037006e+00
1.941059236426893042e+00
1.941059236426893042e+00
2.115064546647541732e+00
2.109626880703146412e+00
2.109626880703146412e+00
2.100626606036561483e+00
2.100626606036561483e+00
2.195129490035706787e+00
1.899620471816156453e+00
1.899620471816156453e+00
1.889495162816248186e+00
2.238630817590868904e+00
2.275381939146092325e+00
2.275381939146092325e+00
2.180316537980285130e+00
2.228130497146519229e+00
2.228130497146519229e+00
2.361822077089755112e+00
2.361822077089755112e+00
2.128377452925199087e+00
1.760866237372966880e+00
1.760866237372966880e+00
1.894182805871761355e+00
1.894182805871761355e+00
2.105876766258735877e+00
2.048312509537034032e+00
2.048312509537034032e+00
2.050562578203680708e+00
2.050562578203680708e+00
1.983998046815393712e+00
2.035187108981597159e+00
2.035187108981597159e+00
2.033874568926053783e+00
2.033874568926053783e+00
2.144877956480605530e+00
1.902433057649464576e+00
1.902433057649464576e+00
1.880307382427442331e+00
2.055812738425855546e+00
2.055812738425855546e+00
2.109439374980925930e+00
2.109439374980925930e+00
2.006873744926298109e+00
2.209379924924466998e+00
2.209379924924466998e+00
2.158753379924924776e+00
2.158753379924924776e+00
2.109251869258705447e+00
2.077188390758995418e+00
2.077188390758995418e+00
2.220067751091036712e+00
2.220067751091036712e+00
2.107564317758720662e+00
1.882932462538529750e+00
1.882932462538529750e+00
1.963372417371135548e+00
1.963372417371135548e+00
2.041749809259315818e+00
2.002373607593005200e+00
2.002373607593005200e+00
1.992623310037537676e+00
1.992623310037537676e+00
2.173191320535905025e+00
2.245006012146367080e+00
2.245006012146367080e+00
2.074938322092349186e+00
2.232068117313150690e+00
2.232068117313150690e+00
2.039687246314890068e+00
1.839056123538926224e+00
1.839056123538926224e+00
2.110751915036469750e+00
2.266194158757286470e+00
2.266194158757286470e+00
2.237318277535325084e+00
2.237318277535325084e+00
1.951747062593462978e+00
1.776991729483932136e+00
1.776991729483932136e+00
1.808492690816980719e+00
1.808492690816980719e+00
1.948746971037934594e+00
2.269569261757255596e+00
2.269569261757255596e+00
2.373447431867427682e+00
2.373447431867427682e+00
2.039499740592669585e+00
1.739490585039826565e+00
1.739490585039826565e+00
2.098376537369914807e+00
2.098376537369914807e+00
2.067813104647969080e+00
2.215005096591082356e+00
2.215005096591082356e+00
2.116564592425305591e+00
2.116564592425305591e+00
2.116564592425305591e+00
2.018686605426191161e+00
2.018686605426191161e+00
2.018686605426191161e+00
2.214067567979979945e+00
2.214067567979979945e+00
2.214067567979979945e+00
2.169628711813714972e+00
2.169628711813714972e+00
2.169628711813714972e+00
2.169628711813714972e+00
2.074750816370128703e+00
2.074750816370128703e+00
2.074750816370128703e+00
2.060687887203588975e+00
2.060687887203588975e+00
2.060687887203588975e+00
2.081126010925626435e+00
2.081126010925626435e+00
2.081126010925626435e+00
2.081126010925626435e+00
2.069125644703512901e+00
2.069125644703512901e+00
2.069125644703512901e+00
2.241630909146397510e+00
2.241630909146397510e+00
2.241630909146397510e+00
2.241630909146397510e+00
1.857244178594317452e+00
1.857244178594317452e+00
1.857244178594317452e+00
1.966747520371105118e+00
1.966747520371105118e+00
1.966747520371105118e+00
1.966747520371105118e+00
1.984373058259834677e+00
1.984373058259834677e+00
1.984373058259834677e+00
2.269194250312814631e+00
2.269194250312814631e+00
2.269194250312814631e+00
2.255506332590716312e+00
2.255506332590716312e+00
2.255506332590716312e+00
2.255506332590716312e+00
1.959622302926725235e+00
1.959622302926725235e+00
1.959622302926725235e+00
1.862869350260933254e+00
1.862869350260933254e+00
1.862869350260933254e+00
1.862869350260933254e+00
1.823118137150181672e+00
1.823118137150181672e+00
1.823118137150181672e+00
2.010436353648488161e+00
2.010436353648488161e+00
2.010436353648488161e+00
2.086751182592242237e+00
2.086751182592242237e+00
2.086751182592242237e+00
2.086751182592242237e+00
2.123314798425245176e+00
2.123314798425245176e+00
2.123314798425245176e+00
1.882369945371868081e+00
1.882369945371868081e+00
1.882369945371868081e+00
1.882369945371868081e+00
2.026561845759453195e+00
2.026561845759453195e+00
2.026561845759453195e+00
1.951934568315683460e+00
1.951934568315683460e+00
1.951934568315683460e+00
1.951934568315683460e+00
2.091813837092196593e+00
2.091813837092196593e+00
2.091813837092196593e+00
2.274444410534989469e+00
2.274444410534989469e+00
2.274444410534989469e+00
1.966185003204443671e+00
1.966185003204443671e+00
1.966185003204443671e+00
1.966185003204443671e+00
1.985873104037598758e+00
1.985873104037598758e+00
1.985873104037598758e+00
2.136065187536240639e+00
2.136065187536240639e+00
2.136065187536240639e+00
2.136065187536240639e+00
2.234880703146458369e+00
2.234880703146458369e+00
2.234880703146458369e+00
2.265069124423963132e+00
2.265069124423963132e+00
2.265069124423963132e+00
2.218755211035493335e+00
2.218755211035493335e+00
2.218755211035493335e+00
2.218755211035493335e+00
2.061250404370250422e+00
2.061250404370250422e+00
2.061250404370250422e+00
2.038187200537125765e+00
2.038187200537125765e+00
2.038187200537125765e+00
2.038187200537125765e+00
1.957747245704519745e+00
1.957747245704519745e+00
1.957747245704519745e+00
1.974247749259926188e+00
1.974247749259926188e+00
1.974247749259926188e+00
1.994498367259743166e+00
1.994498367259743166e+00
1.994498367259743166e+00
1.994498367259743166e+00
1.995623401593066282e+00
1.995623401593066282e+00
1.995623401593066282e+00
2.140752830591753586e+00
2.140752830591753586e+00
2.140752830591753586e+00
2.140752830591753586e+00
2.074938322092349186e+00
2.074938322092349186e+00
2.074938322092349186e+00
2.091813837092196593e+00
2.091813837092196593e+00
2.091813837092196593e+00
2.091813837092196593e+00
2.090501297036652772e+00
2.090501297036652772e+00
2.090501297036652772e+00
1.774929166539506165e+00
1.774929166539506165e+00
1.774929166539506165e+00
2.128377452925199087e+00
2.128377452925199087e+00
2.128377452925199087e+00
2.128377452925199087e+00
2.243318460646382295e+00
2.243318460646382295e+00
2.243318460646382295e+00
2.194754478591265823e+00
2.194754478591265823e+00
2.194754478591265823e+00
2.148253059480575100e+00
2.148253059480575100e+00
2.148253059480575100e+00
2.148253059480575100e+00
1.987935666982024729e+00
1.987935666982024729e+00
1.987935666982024729e+00
2.062937955870235207e+00
2.062937955870235207e+00
2.062937955870235207e+00
1.896995391705069034e+00
1.896995391705069034e+00
1.896995391705069034e+00
1.896995391705069034e+00
1.857619190038758417e+00
1.857619190038758417e+00
1.857619190038758417e+00
2.158565874202703849e+00
2.158565874202703849e+00
2.158565874202703849e+00
1.952684591204565612e+00
1.952684591204565612e+00
1.952684591204565612e+00
1.952684591204565612e+00
2.047187475203710694e+00
2.047187475203710694e+00
2.047187475203710694e+00
2.086751182592242237e+00
2.086751182592242237e+00
2.086751182592242237e+00
2.086751182592242237e+00
2.031249488814966586e+00
2.031249488814966586e+00
2.031249488814966586e+00
1.865869441816461860e+00
1.865869441816461860e+00
1.865869441816461860e+00
2.075688344981231115e+00
2.075688344981231115e+00
2.075688344981231115e+00
2.075688344981231115e+00
2.161003448591571008e+00
2.161003448591571008e+00
2.161003448591571008e+00
1.887245094149601732e+00
1.887245094149601732e+00
1.887245094149601732e+00
1.887245094149601732e+00
2.038374706259346247e+00
2.038374706259346247e+00
2.038374706259346247e+00
2.458387524033326166e+00
2.458387524033326166e+00
2.458387524033326166e+00
2.458387524033326166e+00
2.289444868312631609e+00
2.289444868312631609e+00
2.289444868312631609e+00
2.185004181035798521e+00
2.185004181035798521e+00
2.185004181035798521e+00
2.124627338480788552e+00
2.124627338480788552e+00
2.124627338480788552e+00
2.124627338480788552e+00
2.157440839869380955e+00
2.157440839869380955e+00
2.157440839869380955e+00
1.906933194982757040e+00
1.906933194982757040e+00
1.906933194982757040e+00
1.906933194982757040e+00
1.580298226874599310e+00
1.580298226874599310e+00
1.580298226874599310e+00
1.934496536149174606e+00
1.934496536149174606e+00
1.934496536149174606e+00
2.353196813867610704e+00
2.353196813867610704e+00
2.353196813867610704e+00
2.353196813867610704e+00
2.426511551255836618e+00
2.426511551255836618e+00
2.426511551255836618e+00
2.274256904812768987e+00
2.274256904812768987e+00
2.274256904812768987e+00
2.274256904812768987e+00
2.308007934812463802e+00
2.308007934812463802e+00
2.308007934812463802e+00
2.061812921536912313e+00
2.061812921536912313e+00
2.061812921536912313e+00
1.845431318094424178e+00
1.845431318094424178e+00
1.845431318094424178e+00
1.845431318094424178e+00
1.590986053041169690e+00
1.590986053041169690e+00
1.590986053041169690e+00
1.506420972319711948e+00
1.506420972319711948e+00
1.506420972319711948e+00
1.506420972319711948e+00
1.813180333872493666e+00
1.813180333872493666e+00
1.813180333872493666e+00
2.291507431257057803e+00
2.291507431257057803e+00
2.291507431257057803e+00
2.291507431257057803e+00
2.520451918088320475e+00
2.520451918088320475e+00
2.520451918088320475e+00
2.226255439924313961e+00
2.226255439924313961e+00
2.226255439924313961e+00
2.078688436536759720e+00
2.078688436536759720e+00
2.078688436536759720e+00
2.078688436536759720e+00
2.230755577257606870e+00
2.230755577257606870e+00
2.230755577257606870e+00
2.143190404980620745e+00
2.143190404980620745e+00
2.143190404980620745e+00
2.143190404980620745e+00
1.902058046205023389e+00
1.902058046205023389e+00
1.902058046205023389e+00
2.138690267647328280e+00
2.138690267647328280e+00
2.048500015259254514e+00
2.048500015259254514e+00
1.801929990539262283e+00
1.752428479873042955e+00
1.752428479873042955e+00
1.676488662373729621e+00
1.676488662373729621e+00
2.056375255592516993e+00
2.394823084200567997e+00
2.394823084200567997e+00
2.442449537644581614e+00
2.442449537644581614e+00
2.276881984923856628e+00
2.027686880092776089e+00
2.027686880092776089e+00
2.057125278481399366e+00
2.057125278481399366e+00
1.905433149204992960e+00
1.847868892483291114e+00
1.847868892483291114e+00
1.821993102816858334e+00
1.832118411816766823e+00
1.832118411816766823e+00
2.474700521866512126e+00
2.474700521866512126e+00
2.716582903530991633e+00
2.299382671590319838e+00
2.299382671590319838e+00
1.964122440260017699e+00
1.964122440260017699e+00
1.608799096652119731e+00
1.624174565874202836e+00
1.624174565874202836e+00
2.133440107425153442e+00
2.133440107425153442e+00
2.191754387035737217e+00
2.015874019592883037e+00
2.015874019592883037e+00
1.754866054261909891e+00
1.754866054261909891e+00
1.817305459761345388e+00
1.710802209540086105e+00
1.710802209540086105e+00
1.852744041261024766e+00
1.852744041261024766e+00
2.194941984313486305e+00
2.388072878200628413e+00
2.388072878200628413e+00
2.535827387310404024e+00
2.553827936643574326e+00
2.553827936643574326e+00
2.053562669759208870e+00
2.053562669759208870e+00
1.855556627094332889e+00
1.764616351817377193e+00
1.764616351817377193e+00
2.273319376201666131e+00
2.273319376201666131e+00
2.200379650257881181e+00
2.018124088259529714e+00
2.018124088259529714e+00
2.355259376812036454e+00
2.355259376812036454e+00
2.270694296090578934e+00
2.280069582201605716e+00
2.280069582201605716e+00
2.209192419202246516e+00
2.209192419202246516e+00
1.793304727317117875e+00
1.697676808984649233e+00
1.697676808984649233e+00
1.901120517593920756e+00
1.907495712149418710e+00
1.907495712149418710e+00
2.055812738425855546e+00
2.055812738425855546e+00
2.341383953367717208e+00
1.604111453596606340e+00
1.604111453596606340e+00
1.652300424207281626e+00
1.652300424207281626e+00
2.298632648701437464e+00
1.909558275093844459e+00
1.909558275093844459e+00
1.786179509872737770e+00
1.786179509872737770e+00
2.164941068758201581e+00
2.662956266975920805e+00
2.662956266975920805e+00
2.593391644032105425e+00
2.593391644032105425e+00
2.362197088534196077e+00
1.985310586870937088e+00
1.985310586870937088e+00
1.554797448652607939e+00
1.411543076876125458e+00
1.411543076876125458e+00
1.922308664204840145e+00
1.922308664204840145e+00
1.999561021759697299e+00
2.137752739036225869e+00
2.137752739036225869e+00
2.223067842646564873e+00
2.223067842646564873e+00
2.040624774925992480e+00
2.259256447035126847e+00
2.259256447035126847e+00
2.405510910367137711e+00
2.405510910367137711e+00
1.887432599871822214e+00
1.695426740318003000e+00
1.695426740318003000e+00
1.906370677816095593e+00
1.906370677816095593e+00
2.445824640644550740e+00
2.650393383587145824e+00
2.650393383587145824e+00
2.406073427533799602e+00
2.026186834315011787e+00
2.026186834315011787e+00
2.074188299203466812e+00
2.074188299203466812e+00
1.778116763817255253e+00
2.210317453535568966e+00
2.210317453535568966e+00
2.110564409314249268e+00
2.110564409314249268e+00
2.041374797814874853e+00
2.124814844203009478e+00
2.124814844203009478e+00
1.726365184484389914e+00
1.726365184484389914e+00
1.989998229926450479e+00
1.912370860927152361e+00
1.912370860927152361e+00
2.340633930478835278e+00
2.558515579699087716e+00
2.558515579699087716e+00
2.443012054811243061e+00
2.443012054811243061e+00
1.951934568315683460e+00
1.667863399151585657e+00
1.667863399151585657e+00
1.524421521652882472e+00
1.524421521652882472e+00
1.643300149540696475e+00
1.941434247871334007e+00
1.941434247871334007e+00
1.854244087038789068e+00
1.854244087038789068e+00
1.814492873928037486e+00
2.070250679036835795e+00
2.070250679036835795e+00
2.123127292703024249e+00
2.123127292703024249e+00
2.019249122592852608e+00
2.080750999481185470e+00
2.080750999481185470e+00
2.459137546922208095e+00
2.459137546922208095e+00
2.662206244087038876e+00
1.884807519760735017e+00
1.884807519760735017e+00
2.002561113315225683e+00
2.002561113315225683e+00
2.058625324259163225e+00
2.102689168980987233e+00
2.102689168980987233e+00
2.211817499313333268e+00
2.291132419812616394e+00
2.291132419812616394e+00
2.155753288369396170e+00
2.155753288369396170e+00
1.953809625537888728e+00
2.066125553147984295e+00
2.066125553147984295e+00
2.144315439313944083e+00
2.144315439313944083e+00
2.107376812036500180e+00
2.248193609424115724e+00
2.248193609424115724e+00
2.066875576036866669e+00
2.090501297036652772e+00
2.090501297036652772e+00
1.981185460982085589e+00
1.981185460982085589e+00
2.032562028870509963e+00
1.754116031373027740e+00
1.754116031373027740e+00
1.803992553483687811e+00
1.803992553483687811e+00
1.651737907040620179e+00
1.564360240485854758e+00
1.564360240485854758e+00
1.638800012207403789e+00
1.638800012207403789e+00
2.255506332590716312e+00
2.505076448866237371e+00
2.505076448866237371e+00
2.550077822199164235e+00
2.550077822199164235e+00
2.485575853755302767e+00
2.500763817255165389e+00
2.500763817255165389e+00
1.896057863093966622e+00
1.596048707541123823e+00
1.596048707541123823e+00
1.852369029816583801e+00
1.852369029816583801e+00
1.768928983428449397e+00
1.814492873928037486e+00
1.814492873928037486e+00
2.663143772698141731e+00
2.663143772698141731e+00
2.650205877864925341e+00
1.930183904538102402e+00
1.930183904538102402e+00
2.112626972258675018e+00
2.112626972258675018e+00
2.235068208868678852e+00
2.025249305703909375e+00
2.025249305703909375e+00
1.904495620593890104e+00
1.904495620593890104e+00
1.746803308206427152e+00
1.708364635151219391e+00
1.708364635151219391e+00
1.701801934873500954e+00
2.239755851924192243e+00
2.239755851924192243e+00
2.340071413312173831e+00
2.340071413312173831e+00
2.188754295480208611e+00
2.327508529923398850e+00
2.327508529923398850e+00
2.299757683034760802e+00
2.299757683034760802e+00
2.031249488814966586e+00
2.121252235480818982e+00
2.121252235480818982e+00
1.940496719260231373e+00
1.940496719260231373e+00
1.680801293984801825e+00
1.664863307596057052e+00
1.664863307596057052e+00
1.480920194097720133e+00
1.480920194097720133e+00
2.166066103091524919e+00
2.918901577806940040e+00
2.918901577806940040e+00
2.840149174474318805e+00
2.300507705923642732e+00
2.300507705923642732e+00
1.996935941648609880e+00
1.996935941648609880e+00
1.792367198706015241e+00
1.966185003204443671e+00
1.966185003204443671e+00
2.480700704977568893e+00
2.480700704977568893e+00
1.864931913205359004e+00
1.669175939207129034e+00
1.669175939207129034e+00
1.833243446150089939e+00
1.833243446150089939e+00
1.880682393871883296e+00
1.786929532761619921e+00
1.786929532761619921e+00
1.864744407483138522e+00
1.864744407483138522e+00
2.518951872310556173e+00
2.721833063753166471e+00
2.721833063753166471e+00
2.222505325479903426e+00
1.487107882930997604e+00
1.487107882930997604e+00
1.869057039094210726e+00
1.869057039094210726e+00
1.960559831537827868e+00
2.056000244148076028e+00
2.056000244148076028e+00
2.501138828699606353e+00
2.501138828699606353e+00
2.351696768089846401e+00
1.995060884426404613e+00
1.995060884426404613e+00
1.997123447370830363e+00
1.997123447370830363e+00
1.858744224372081755e+00
1.784304452650532724e+00
1.784304452650532724e+00
1.959809808648945717e+00
1.959809808648945717e+00
2.128377452925199087e+00
2.195692007202368234e+00
2.195692007202368234e+00
2.213130039368877089e+00
2.213130039368877089e+00
2.324133426923429280e+00
1.983998046815393712e+00
1.983998046815393712e+00
1.923808709982604448e+00
1.923808709982604448e+00
2.015123996704001108e+00
1.604111453596606340e+00
1.604111453596606340e+00
1.642362620929593842e+00
2.274069399090548504e+00
2.274069399090548504e+00
2.410573564867091623e+00
2.410573564867091623e+00
2.108876857814264483e+00
2.225317911313211550e+00
2.225317911313211550e+00
1.854431592761009551e+00
1.854431592761009551e+00
1.762553788872951444e+00
2.197379558702353020e+00
2.197379558702353020e+00
2.138502761925107798e+00
2.138502761925107798e+00
2.588704000976592479e+00
2.416761253700369316e+00
2.416761253700369316e+00
2.059937864314706601e+00
2.171128757591479275e+00
2.171128757591479275e+00
2.119752189703054679e+00
2.119752189703054679e+00
2.059000335703604190e+00
1.667488387707144470e+00
1.667488387707144470e+00
1.670300973540452372e+00
1.670300973540452372e+00
2.406823450422681532e+00
2.282507156590471986e+00
2.282507156590471986e+00
1.914433423871578110e+00
1.914433423871578110e+00
1.872994659260841743e+00
1.992998321481978863e+00
1.992998321481978863e+00
1.852369029816583801e+00
1.852369029816583801e+00
2.138315256202887316e+00
2.392385509811700839e+00
2.392385509811700839e+00
2.359572008423108880e+00
1.995810907315286764e+00
1.995810907315286764e+00
1.829118320261238440e+00
1.829118320261238440e+00
1.657550584429456464e+00
1.603548936429944671e+00
1.603548936429944671e+00
1.875244727927487975e+00
1.875244727927487975e+00
2.272006836146122755e+00
2.633705374309518454e+00
2.633705374309518454e+00
2.434386791589098653e+00
2.434386791589098653e+00
2.162128482924894346e+00
2.136252693258461566e+00
2.136252693258461566e+00
1.928121341593676652e+00
1.928121341593676652e+00
1.746803308206427152e+00
1.795554795983764329e+00
1.795554795983764329e+00
1.886870082705160767e+00
2.115064546647541732e+00
2.115064546647541732e+00
2.193066927091281038e+00
2.193066927091281038e+00
2.350946745200964472e+00
2.401573290200506694e+00
2.401573290200506694e+00
2.017561571092867823e+00
2.017561571092867823e+00
1.853119052705465952e+00
2.023374248481704107e+00
2.023374248481704107e+00
2.118814661091952267e+00
2.118814661091952267e+00
1.934496536149174606e+00
2.037249671926022909e+00
2.037249671926022909e+00
2.226067934202093479e+00
2.226067934202093479e+00
2.084876125370036970e+00
1.911995849482711396e+00
1.911995849482711396e+00
1.881807428205206412e+00
1.881807428205206412e+00
1.794992278817102660e+00
1.905245643482772255e+00
1.905245643482772255e+00
2.112439466536454535e+00
2.279132053590502860e+00
2.279132053590502860e+00
2.565453291421246895e+00
2.565453291421246895e+00
2.099126560258797181e+00
1.688864040040284564e+00
1.688864040040284564e+00
1.619299417096469185e+00
1.619299417096469185e+00
2.434761803033539618e+00
2.193066927091281038e+00
2.193066927091281038e+00
2.601454390087587942e+00
2.601454390087587942e+00
2.247443586535233351e+00
1.935996581926938687e+00
1.935996581926938687e+00
1.823680654316843119e+00
1.823680654316843119e+00
1.872619647816400779e+00
2.107001800592058771e+00
2.107001800592058771e+00
2.145252967925046494e+00
2.145252967925046494e+00
1.849181432538834935e+00
2.046249946592608282e+00
2.046249946592608282e+00
2.146940519425031280e+00
2.166816125980407293e+00
2.166816125980407293e+00
2.131002533036286284e+00
2.131002533036286284e+00
2.151065645313883223e+00
1.966935026093325822e+00
1.966935026093325822e+00
2.075500839259010633e+00
2.075500839259010633e+00
2.125939878536332373e+00
1.926433790093691867e+00
1.926433790093691867e+00
1.951747062593462978e+00
1.951747062593462978e+00
2.209004913480026033e+00
1.939934202093569704e+00
1.939934202093569704e+00
1.960184820093386682e+00
1.960184820093386682e+00
2.166066103091524919e+00
2.154253242591631867e+00
2.154253242591631867e+00
1.981935483870967740e+00
2.206754844813379357e+00
2.206754844813379357e+00
2.239380840479750834e+00
2.239380840479750834e+00
2.212942533646656607e+00
1.907495712149418710e+00
1.907495712149418710e+00
1.724490127262184647e+00
1.724490127262184647e+00
1.787492049928281590e+00
2.128564958647419569e+00
2.128564958647419569e+00
2.221755302591021497e+00
2.221755302591021497e+00
2.159690908536027187e+00
2.335383770256660885e+00
2.335383770256660885e+00
2.171128757591479275e+00
1.841681203650013865e+00
1.841681203650013865e+00
1.804180059205908293e+00
1.804180059205908293e+00
2.079625965147862576e+00
2.063687978759117581e+00
2.063687978759117581e+00
1.941059236426893042e+00
1.941059236426893042e+00
2.051312601092562637e+00
2.170003723258155937e+00
2.170003723258155937e+00
2.277444502090518075e+00
2.277444502090518075e+00
2.081688528092287882e+00
1.872807153538621261e+00
1.872807153538621261e+00
2.070063173314615312e+00
2.103251686147648680e+00
2.103251686147648680e+00
2.123127292703024249e+00
2.123127292703024249e+00
2.360697042756431774e+00
2.240505874813074172e+00
2.240505874813074172e+00
1.980060426648762473e+00
1.980060426648762473e+00
2.051875118259224084e+00
1.906558183538316076e+00
1.906558183538316076e+00
2.043812372203741567e+00
2.043812372203741567e+00
2.079063447981200685e+00
1.874494705038605824e+00
1.874494705038605824e+00
1.841306192205572678e+00
1.841306192205572678e+00
2.056937772759178884e+00
2.354696859645375007e+00
2.354696859645375007e+00
2.374009949034089573e+00
2.374009949034089573e+00
2.077188390758995418e+00
2.026749351481673678e+00
2.026749351481673678e+00
2.212567522202215642e+00
2.046999969481490211e+00
2.046999969481490211e+00
1.988873195593127363e+00
1.988873195593127363e+00
1.930746421704764071e+00
1.888370128482924848e+00
1.888370128482924848e+00
2.015686513870662555e+00
2.015686513870662555e+00
2.126127384258552855e+00
2.191004364146854844e+00
2.191004364146854844e+00
2.207129856257820322e+00
2.207129856257820322e+00
2.003686147648549021e+00
1.955122165593432548e+00
1.955122165593432548e+00
2.174316354869228363e+00
2.174316354869228363e+00
2.123502304147465658e+00
2.045124912259285388e+00
2.045124912259285388e+00
2.201879696035645484e+00
2.092188848536637558e+00
2.092188848536637558e+00
2.093688894314401416e+00
2.093688894314401416e+00
2.131940061647389140e+00
2.132877590258491995e+00
2.132877590258491995e+00
1.895870357371746140e+00
1.895870357371746140e+00
1.841306192205572678e+00
2.009686330759605788e+00
2.009686330759605788e+00
2.084688619647816488e+00
2.084688619647816488e+00
2.008748802148503376e+00
1.760116214484084729e+00
1.760116214484084729e+00
2.001061067537461380e+00
2.001061067537461380e+00
2.302757774590289408e+00
2.395948118533890892e+00
2.395948118533890892e+00
2.166441114535965884e+00
2.087876216925565576e+00
2.087876216925565576e+00
2.252693746757408633e+00
2.252693746757408633e+00
1.825555711539048609e+00
1.982685506759849892e+00
1.982685506759849892e+00
2.053750175481429796e+00
2.053750175481429796e+00
1.934309030426953901e+00
2.018311593981750196e+00
2.018311593981750196e+00
1.944059327982421204e+00
1.944059327982421204e+00
2.137002716147343495e+00
2.152003173924985191e+00
2.152003173924985191e+00
2.203004730368968822e+00
2.203004730368968822e+00
2.248006103701895242e+00
2.139815301980651618e+00
2.139815301980651618e+00
1.943684316537980239e+00
2.013436445204016323e+00
2.013436445204016323e+00
2.221567796868801015e+00
2.221567796868801015e+00
2.163628528702658205e+00
1.950997039704580827e+00
1.948559465315714112e+00
1.948559465315714112e+00
1.966372508926664153e+00
2.045312417981505870e+00
2.045312417981505870e+00
2.081126010925626435e+00
2.081126010925626435e+00
2.249693655201880027e+00
2.210879970702230857e+00
2.210879970702230857e+00
2.061625415814691387e+00
2.061625415814691387e+00
2.101001617481002448e+00
2.182941618091372327e+00
2.182941618091372327e+00
2.093501388592180934e+00
2.093501388592180934e+00
1.998060975981932996e+00
1.789929624317148527e+00
1.789929624317148527e+00
1.779429303872798851e+00
2.007436262092959556e+00
2.007436262092959556e+00
2.236568254646443155e+00
2.236568254646443155e+00
2.384135258033997840e+00
2.233755668813135031e+00
2.233755668813135031e+00
2.203004730368968822e+00
2.203004730368968822e+00
2.139252784813989727e+00
1.955497177037873513e+00
1.955497177037873513e+00
1.889870174260689151e+00
1.889870174260689151e+00
1.830430860316782260e+00
1.914245918149357406e+00
1.914245918149357406e+00
2.113564500869777874e+00
2.049812555314798335e+00
2.049812555314798335e+00
2.007248756370739073e+00
2.007248756370739073e+00
2.154628254036072832e+00
2.311195532090212890e+00
2.311195532090212890e+00
2.240880886257515137e+00
2.240880886257515137e+00
2.026749351481673678e+00
1.803055024872585177e+00
1.803055024872585177e+00
1.819180516983550655e+00
1.819180516983550655e+00
2.224567888424329176e+00
2.196067018646809643e+00
2.113376995147556947e+00
2.113376995147556947e+00
2.170003723258155937e+00
2.055625232703635064e+00
2.055625232703635064e+00
2.095001434369945237e+00
2.095001434369945237e+00
2.088063722647786058e+00
1.957184728537858298e+00
1.957184728537858298e+00
1.880494888149662813e+00
1.880494888149662813e+00
1.888370128482924848e+00
2.157065828424939546e+00
2.157065828424939546e+00
2.221755302591021497e+00
2.221755302591021497e+00
2.176003906369212704e+00
2.236568254646443155e+00
2.236568254646443155e+00
2.101939146092104860e+00
2.101939146092104860e+00
2.058625324259163225e+00
2.029749443037202283e+00
2.029749443037202283e+00
2.030311960203863730e+00
2.072875759147922992e+00
2.072875759147922992e+00
2.071750724814600098e+00
2.071750724814600098e+00
2.044374889370403459e+00
2.001623584704122827e+00
2.001623584704122827e+00
1.985123081148716606e+00
1.985123081148716606e+00
2.021874202703940249e+00
2.112814477980895500e+00
2.112814477980895500e+00
2.258318918424023991e+00
2.258318918424023991e+00
2.146002990813928868e+00
1.872057130649739110e+00
1.872057130649739110e+00
2.041374797814874853e+00
2.164003540147099169e+00
2.164003540147099169e+00
1.998060975981932996e+00
2.078500930814539238e+00
2.078500930814539238e+00
2.024311777092806519e+00
2.024311777092806519e+00
2.037249671926022909e+00
2.027686880092776089e+00
2.027686880092776089e+00
2.036124637592700015e+00
2.036124637592700015e+00
2.173378826258125951e+00
2.084313608203375079e+00
2.084313608203375079e+00
1.997498458815271549e+00
1.999186010315256334e+00
1.999186010315256334e+00
2.110001892147587377e+00
2.110001892147587377e+00
2.179379009369182274e+00
2.142440382091738371e+00
2.142440382091738371e+00
1.967685048982207752e+00
1.967685048982207752e+00
2.043062349314859638e+00
2.168878688924833043e+00
2.168878688924833043e+00
2.090313791314432290e+00
2.090313791314432290e+00
1.964684957426679368e+00
2.038374706259346247e+00
2.038374706259346247e+00
2.120689718314157535e+00
2.139440290536210654e+00
2.139440290536210654e+00
2.069500656147953865e+00
2.069500656147953865e+00
2.149940610980559885e+00
2.237505783257545566e+00
2.237505783257545566e+00
1.947621936704611478e+00
1.947621936704611478e+00
1.882932462538529750e+00
2.003311136204107612e+00
2.003311136204107612e+00
2.038562211981566730e+00
2.038562211981566730e+00
2.024499282815027001e+00
2.000873561815240897e+00
2.000873561815240897e+00
2.008186284981841485e+00
2.008186284981841485e+00
2.095751457258827610e+00
2.096876491592150504e+00
2.096876491592150504e+00
2.106814294869838289e+00
2.124064821314127105e+00
2.124064821314127105e+00
2.070063173314615312e+00
2.070063173314615312e+00
2.002561113315225683e+00
2.072313241981261545e+00
2.072313241981261545e+00
2.106064271980956359e+00
2.106064271980956359e+00
2.093126377147739969e+00
2.002186101870784718e+00
2.002186101870784718e+00
2.075500839259010633e+00
2.072688253425702509e+00
2.072688253425702509e+00
2.031999511703848516e+00
2.031999511703848516e+00
2.170003723258155937e+00
2.137940244758446351e+00
2.137940244758446351e+00
2.121064729758598499e+00
2.121064729758598499e+00
2.089938779869991325e+00
2.020561662648396428e+00
2.020561662648396428e+00
2.064625507370219992e+00
2.064625507370219992e+00
2.174128849147007880e+00
2.114877040925321250e+00
2.114877040925321250e+00
2.095751457258827610e+00
2.095751457258827610e+00
2.034437086092715230e+00
2.073250770592364400e+00
2.073250770592364400e+00
2.069500656147953865e+00
2.069500656147953865e+00
1.991123264259773595e+00
1.942371776482436641e+00
1.942371776482436641e+00
1.941621753593554489e+00
2.086188665425580790e+00
2.086188665425580790e+00
2.019999145481734981e+00
2.019999145481734981e+00
1.962997405926694583e+00
2.103626697592089645e+00
2.103626697592089645e+00
2.148815576647236547e+00
2.148815576647236547e+00
2.239568346201971760e+00
2.150128116702780368e+00
2.150128116702780368e+00
2.018874111148411643e+00
2.018874111148411643e+00
2.010248847926267679e+00
2.018311593981750196e+00
2.018311593981750196e+00
2.028999420148319910e+00
2.028999420148319910e+00
2.053187658314767905e+00
2.084313608203375079e+00
2.084313608203375079e+00
2.091813837092196593e+00
2.036687154759361462e+00
2.036687154759361462e+00
2.035374614703817642e+00
2.035374614703817642e+00
2.036687154759361462e+00
2.066688070314646186e+00
2.066688070314646186e+00
2.117314615314187964e+00
2.117314615314187964e+00
2.132877590258491995e+00
2.177878963591417971e+00
2.177878963591417971e+00
2.127814935758537640e+00
2.127814935758537640e+00
2.101751640369884377e+00
2.112439466536454535e+00
2.112439466536454535e+00
2.070813196203497242e+00
2.070813196203497242e+00
1.996935941648609880e+00
2.005186193426313324e+00
2.005186193426313324e+00
2.050187566759239299e+00
2.099876583147679110e+00
2.099876583147679110e+00
2.085251136814477935e+00
2.085251136814477935e+00
2.144315439313944083e+00
2.068188116092410045e+00
2.068188116092410045e+00
1.985123081148716606e+00
1.985123081148716606e+00
2.029374431592760875e+00
2.046249946592608282e+00
2.046249946592608282e+00
2.011748893704031538e+00
2.011748893704031538e+00
2.084876125370036970e+00
2.128377452925199087e+00
2.128377452925199087e+00
2.139440290536210654e+00
2.139440290536210654e+00
2.121252235480818982e+00
2.141690359202856442e+00
2.141690359202856442e+00
2.115439558091983141e+00
2.031249488814966586e+00
2.031249488814966586e+00
2.063312967314676172e+00
2.063312967314676172e+00
2.080563493758964988e+00
2.015311502426221590e+00
2.015311502426221590e+00
2.081688528092287882e+00
2.081688528092287882e+00
2.137752739036225869e+00
2.063875484481338063e+00
2.063875484481338063e+00
2.068938138981292418e+00
2.068938138981292418e+00
2.054875209814752690e+00
2.102126651814325342e+00
2.102126651814325342e+00
2.112251960814234053e+00
2.112251960814234053e+00
2.032374523148289480e+00
2.004623676259651432e+00
2.004623676259651432e+00
2.017936582537308787e+00
2.046437452314828764e+00
2.046437452314828764e+00
2.054687704092532208e+00
2.054687704092532208e+00
2.063875484481338063e+00
2.074375804925687294e+00
2.074375804925687294e+00
2.019436628315073090e+00
2.019436628315073090e+00
2.013436445204016323e+00
2.006498733481856700e+00
2.006498733481856700e+00
2.058625324259163225e+00
2.058625324259163225e+00
2.101189123203222930e+00
2.106626789147617806e+00
2.106626789147617806e+00
2.120689718314157535e+00
2.149753105258339403e+00
2.149753105258339403e+00
2.089188756981108952e+00
2.089188756981108952e+00
2.043249855037080120e+00
2.054687704092532208e+00
2.054687704092532208e+00
2.113376995147556947e+00
2.113376995147556947e+00
2.090126285592211808e+00
2.020374156926175946e+00
2.020374156926175946e+00
1.962247383037812432e+00
1.962247383037812432e+00
2.046812463759269729e+00
2.181066560869167059e+00
2.181066560869167059e+00
2.159315897091586223e+00
2.159315897091586223e+00
2.077563402203436382e+00
2.053187658314767905e+00
2.053187658314767905e+00
2.039312234870449103e+00
2.045124912259285388e+00
2.045124912259285388e+00
2.095001434369945237e+00
2.095001434369945237e+00
2.071000701925717724e+00
2.029561937314981801e+00
2.029561937314981801e+00
2.063687978759117581e+00
2.063687978759117581e+00
2.114127018036439321e+00
2.121814752647480873e+00
2.121814752647480873e+00
2.037062166203802427e+00
2.037062166203802427e+00
2.103626697592089645e+00
2.075500839259010633e+00
2.075500839259010633e+00
2.069688161870173904e+00
2.069688161870173904e+00
2.104751731925412539e+00
2.067625598925748598e+00
2.067625598925748598e+00
2.041374797814874853e+00
2.041374797814874853e+00
2.031624500259407551e+00
2.068375621814630971e+00
2.068375621814630971e+00
2.114689535203100768e+00
2.072688253425702509e+00
2.072688253425702509e+00
2.049812555314798335e+00
2.049812555314798335e+00
2.025811822870570822e+00
2.042124820703756782e+00
2.042124820703756782e+00
2.023749259926145072e+00
2.023749259926145072e+00
2.086938688314462720e+00
2.157065828424939546e+00
2.157065828424939546e+00
2.067813104647969080e+00
2.067813104647969080e+00
2.050375072481459782e+00
2.041562303537095335e+00
2.041562303537095335e+00
2.038374706259346247e+00
2.083376079592272667e+00
2.083376079592272667e+00
2.106626789147617806e+00
2.106626789147617806e+00
2.076813379314554453e+00
2.053187658314767905e+00
2.053187658314767905e+00
2.045499923703726353e+00
2.045499923703726353e+00
2.018499099703970678e+00
2.062375438703573760e+00
2.062375438703573760e+00
2.084876125370036970e+00
2.084876125370036970e+00
2.088438734092227023e+00
2.068750633259071936e+00
2.068750633259071936e+00
2.019249122592852608e+00
2.019249122592852608e+00
2.017374065370647340e+00
2.092188848536637558e+00
2.092188848536637558e+00
2.099501571703238145e+00
2.053937681203650278e+00
2.053937681203650278e+00
2.027311868648335125e+00
2.042312326425977265e+00
2.042312326425977265e+00
2.086188665425580790e+00
2.099126560258797181e+00
2.099126560258797181e+00
2.062187932981353278e+00
2.062187932981353278e+00
2.088438734092227023e+00
2.086188665425580790e+00
2.086188665425580790e+00
2.082438550981169811e+00
2.082438550981169811e+00
2.059000335703604190e+00
2.068563127536851454e+00
2.068563127536851454e+00
2.068188116092410045e+00
2.062937955870235207e+00
2.062937955870235207e+00
2.033312051759392336e+00
2.033312051759392336e+00
1.998435987426374183e+00
2.037249671926022909e+00
2.037249671926022909e+00
2.068563127536851454e+00
2.068563127536851454e+00
2.134752647480697263e+00
2.164191045869319652e+00
2.164191045869319652e+00
2.109251869258705447e+00
2.057500289925840331e+00
2.057500289925840331e+00
2.044937406537064906e+00
2.044937406537064906e+00
2.062562944425794242e+00
2.056000244148076028e+00
2.056000244148076028e+00
2.095751457258827610e+00
2.095751457258827610e+00
2.101189123203222930e+00
2.089938779869991325e+00
2.089938779869991325e+00
2.071375713370158689e+00
2.071375713370158689e+00
2.056000244148076028e+00
2.070813196203497242e+00
2.070813196203497242e+00
2.072313241981261545e+00
2.072313241981261545e+00
2.067625598925748598e+00
2.066688070314646186e+00
2.066688070314646186e+00
2.073250770592364400e+00
2.073250770592364400e+00
2.067063081759087151e+00
2.069500656147953865e+00
2.069500656147953865e+00
2.071750724814600098e+00
2.066875576036866669e+00
2.066875576036866669e+00
2.056937772759178884e+00
2.039312234870449103e+00
2.039312234870449103e+00
2.059375347148045154e+00
1.989810724204229997e+00
1.989810724204229997e+00
2.048312509537034032e+00
2.048312509537034032e+00
2.191191869869075770e+00
2.109251869258705447e+00
2.109251869258705447e+00
2.110939420758690233e+00
2.110939420758690233e+00
2.063500473036897098e+00
2.030124454481643248e+00
2.030124454481643248e+00
2.062750450148014725e+00
2.062750450148014725e+00
2.089188756981108952e+00
2.077563402203436382e+00
2.077563402203436382e+00
2.063500473036897098e+00
2.089376262703329878e+00
2.089376262703329878e+00
2.093876400036621899e+00
2.093876400036621899e+00
2.098939054536576698e+00
2.087501205481124167e+00
2.087501205481124167e+00
2.073063264870143918e+00
2.057125278481399366e+00
2.057125278481399366e+00
2.057500289925840331e+00
2.057500289925840331e+00
2.021311685537278358e+00
2.071375713370158689e+00
2.071375713370158689e+00
2.062375438703573760e+00
2.062375438703573760e+00
2.059000335703604190e+00
2.062937955870235207e+00
2.062937955870235207e+00
2.047562486648152102e+00
2.047562486648152102e+00
2.079063447981200685e+00
1.960747337260048351e+00
1.960747337260048351e+00
2.085251136814477935e+00
2.085251136814477935e+00
2.120877224036378017e+00
2.116752098147526517e+00
2.116752098147526517e+00
2.080563493758964988e+00
2.122002258369701355e+00
2.122002258369701355e+00
2.137940244758446351e+00
2.137940244758446351e+00
2.052437635425885976e+00
2.040437269203771997e+00
2.040437269203771997e+00
2.019249122592852608e+00
2.019249122592852608e+00
2.033124546037171854e+00
2.079813470870083059e+00
2.079813470870083059e+00
2.089376262703329878e+00
2.089376262703329878e+00
2.025999328592791304e+00
2.033874568926053783e+00
2.033874568926053783e+00
2.064438001647999510e+00
2.064438001647999510e+00
2.114127018036439321e+00
2.113752006591998356e+00
2.113752006591998356e+00
2.069688161870173904e+00
2.056187749870296511e+00
2.056187749870296511e+00
2.002936124759666647e+00
2.002936124759666647e+00
2.001436078981902345e+00
2.087876216925565576e+00
2.087876216925565576e+00
2.112251960814234053e+00
2.112251960814234053e+00
2.097063997314370987e+00
2.110564409314249268e+00
2.110564409314249268e+00
2.106439283425397324e+00
2.106439283425397324e+00
2.065375530259102366e+00
2.059562852870265637e+00
2.059562852870265637e+00
2.058437818536942299e+00
2.058437818536942299e+00
2.067250587481307633e+00
2.076625873592333971e+00
2.076625873592333971e+00
2.061437910092470904e+00
2.061437910092470904e+00
2.052812646870326940e+00
2.053375164036988387e+00
2.053375164036988387e+00
2.077188390758995418e+00
2.102689168980987233e+00
2.102689168980987233e+00
2.074188299203466812e+00
2.074188299203466812e+00
2.071000701925717724e+00
2.080375988036744506e+00
2.080375988036744506e+00
2.055250221259193655e+00
2.055250221259193655e+00
2.065000518814661401e+00
2.060125370036927084e+00
2.060125370036927084e+00
2.074563310647907777e+00
2.089188756981108952e+00
2.089188756981108952e+00
2.028249397259437981e+00
2.028249397259437981e+00
2.065188024536881883e+00
2.055062715536973172e+00
2.055062715536973172e+00
2.071750724814600098e+00
2.071750724814600098e+00
2.057500289925840331e+00
2.055812738425855546e+00
2.055812738425855546e+00
2.085063631092257452e+00
2.085063631092257452e+00
2.072688253425702509e+00
2.073813287759025847e+00
2.073813287759025847e+00
2.071563219092379615e+00
2.071563219092379615e+00
2.087501205481124167e+00
2.080563493758964988e+00
2.080563493758964988e+00
2.076250862147892562e+00
2.071750724814600098e+00
2.071750724814600098e+00
2.065750541703543330e+00
2.065750541703543330e+00
2.065750541703543330e+00
2.093501388592180934e+00
2.093501388592180934e+00
2.082063539536728847e+00
2.082063539536728847e+00
2.071750724814600098e+00
2.071188207647938206e+00
2.071188207647938206e+00
2.053375164036988387e+00
2.053375164036988387e+00
2.062000427259132795e+00
2.085813653981139382e+00
2.085813653981139382e+00
2.084876125370036970e+00
2.084876125370036970e+00
2.066875576036866669e+00
2.063687978759117581e+00
2.063687978759117581e+00
2.052812646870326940e+00
2.065375530259102366e+00
2.065375530259102366e+00
2.074000793481246330e+00
2.074000793481246330e+00
2.066313058870204777e+00
2.098376537369914807e+00
2.098376537369914807e+00
2.100251594592120075e+00
2.100251594592120075e+00
2.077750907925656865e+00
2.010248847926267679e+00
2.010248847926267679e+00
2.028811914426099428e+00
2.028811914426099428e+00
2.044749900814844423e+00
2.081501022370067400e+00
2.081501022370067400e+00
2.080938505203405953e+00
2.080938505203405953e+00
2.085626148258918899e+00
2.082063539536728847e+00
2.082063539536728847e+00
2.096313974425489057e+00
2.101564134647663895e+00
2.101564134647663895e+00
2.077000885036774935e+00
2.077000885036774935e+00
2.063687978759117581e+00
2.044562395092623941e+00
2.044562395092623941e+00
2.023749259926145072e+00
2.023749259926145072e+00
2.043062349314859638e+00
2.034249580370494748e+00
2.034249580370494748e+00
2.082063539536728847e+00
2.082063539536728847e+00
2.097439008758812395e+00
2.091063814203314664e+00
2.091063814203314664e+00
2.057312784203619849e+00
2.057312784203619849e+00
2.043624866481521085e+00
2.053937681203650278e+00
2.053937681203650278e+00
2.063500473036897098e+00
2.097626514481032878e+00
2.097626514481032878e+00
2.071000701925717724e+00
2.071000701925717724e+00
2.039312234870449103e+00
2.053375164036988387e+00
2.053375164036988387e+00
2.105689260536515395e+00
2.105689260536515395e+00
2.078313425092318756e+00
2.107939329203161627e+00
2.107939329203161627e+00
2.140940336313974068e+00
2.086376171147801273e+00
2.086376171147801273e+00
2.076250862147892562e+00
2.076250862147892562e+00
2.073250770592364400e+00
2.059937864314706601e+00
2.059937864314706601e+00
2.063312967314676172e+00
2.063312967314676172e+00
2.059937864314706601e+00
2.046812463759269729e+00
2.046812463759269729e+00
2.068375621814630971e+00
2.068375621814630971e+00
2.092001342814417075e+00
2.070625690481276759e+00
2.070625690481276759e+00
2.058062807092501334e+00
2.050562578203680708e+00
2.050562578203680708e+00
2.055437726981414581e+00
2.055437726981414581e+00
2.082626056703390294e+00
2.060312875759148010e+00
2.060312875759148010e+00
2.025624317148350340e+00
2.025624317148350340e+00
2.049437543870357370e+00
2.076438367870113488e+00
2.076438367870113488e+00
2.097626514481032878e+00
2.097626514481032878e+00
2.108501846369823074e+00
2.089751274147770843e+00
2.089751274147770843e+00
2.060500381481368493e+00
2.060500381481368493e+00
2.068375621814630971e+00
2.025999328592791304e+00
2.025999328592791304e+00
2.023186742759483625e+00
2.090126285592211808e+00
2.090126285592211808e+00
2.109439374980925930e+00
2.109439374980925930e+00
2.073063264870143918e+00
2.081876033814508364e+00
2.081876033814508364e+00
2.118064638203069894e+00
2.118064638203069894e+00
2.053375164036988387e+00
2.014748985259559699e+00
2.014748985259559699e+00
2.033874568926053783e+00
2.033874568926053783e+00
2.074188299203466812e+00
2.083563585314493150e+00
2.083563585314493150e+00
2.092563859981078966e+00
2.092563859981078966e+00
2.082626056703390294e+00
2.064062990203558545e+00
2.064062990203558545e+00
2.037812189092684800e+00
2.037812189092684800e+00
2.049250038148136888e+00
2.078688436536759720e+00
2.078688436536759720e+00
2.109626880703146412e+00
2.125377361369670925e+00
2.125377361369670925e+00
2.136627704702902530e+00
2.136627704702902530e+00
2.080750999481185470e+00
2.065000518814661401e+00
2.065000518814661401e+00
2.056187749870296511e+00
2.056187749870296511e+00
2.028249397259437981e+00
2.017374065370647340e+00
2.017374065370647340e+00
2.043249855037080120e+00
2.070438184759056277e+00
2.070438184759056277e+00
2.087313699758903685e+00
2.087313699758903685e+00
2.076250862147892562e+00
2.059750358592486119e+00
2.059750358592486119e+00
2.089938779869991325e+00
2.089938779869991325e+00
2.079813470870083059e+00
2.064062990203558545e+00
2.064062990203558545e+00
2.073063264870143918e+00
2.073063264870143918e+00
2.040999786370433888e+00
2.029374431592760875e+00
2.029374431592760875e+00
2.039124729148228621e+00
2.039124729148228621e+00
1.989435712759789032e+00
2.006311227759636218e+00
2.006311227759636218e+00
2.031436994537187068e+00
2.031436994537187068e+00
2.068563127536851454e+00
2.074750816370128703e+00
2.074750816370128703e+00
2.124252327036347587e+00
2.163066011535996758e+00
2.163066011535996758e+00
2.155753288369396170e+00
2.155753288369396170e+00
2.053375164036988387e+00
2.044374889370403459e+00
2.044374889370403459e+00
2.072875759147922992e+00
2.072875759147922992e+00
2.088626239814447505e+00
2.071938230536820580e+00
2.071938230536820580e+00
2.089938779869991325e+00
2.089938779869991325e+00
2.079813470870083059e+00
2.064250495925779028e+00
2.064250495925779028e+00
2.053000152592547423e+00
2.043062349314859638e+00
2.043062349314859638e+00
2.053937681203650278e+00
2.053937681203650278e+00
2.062562944425794242e+00
2.026374340037232713e+00
2.026374340037232713e+00
2.071000701925717724e+00
2.071000701925717724e+00
2.083751091036713632e+00
2.088438734092227023e+00
2.088438734092227023e+00
2.092938871425519931e+00
2.092938871425519931e+00
2.091813837092196593e+00
2.044562395092623941e+00
2.044562395092623941e+00
2.055437726981414581e+00
2.055437726981414581e+00
2.047562486648152102e+00
2.076250862147892562e+00
2.076250862147892562e+00
2.044187383648182976e+00
2.046812463759269729e+00
2.046812463759269729e+00
2.068938138981292418e+00
2.068938138981292418e+00
2.077188390758995418e+00
2.070813196203497242e+00
2.070813196203497242e+00
2.052625141148106458e+00
2.052625141148106458e+00
2.034249580370494748e+00
2.037437177648243392e+00
2.037437177648243392e+00
2.076250862147892562e+00
2.075313333536790150e+00
2.075313333536790150e+00
2.116002075258644588e+00
2.116002075258644588e+00
2.119002166814172750e+00
2.062937955870235207e+00
2.062937955870235207e+00
2.032187017426068998e+00
2.032187017426068998e+00
2.043062349314859638e+00
2.070813196203497242e+00
2.070813196203497242e+00
2.084688619647816488e+00
2.084688619647816488e+00
2.067625598925748598e+00
2.082438550981169811e+00
2.082438550981169811e+00
2.111126926480910715e+00
2.111126926480910715e+00
2.083751091036713632e+00
2.069313150425733383e+00
2.069313150425733383e+00
2.037437177648243392e+00
2.027686880092776089e+00
2.027686880092776089e+00
2.025811822870570822e+00
2.025811822870570822e+00
2.043812372203741567e+00
2.074188299203466812e+00
2.074188299203466812e+00
2.094251411481063307e+00
2.094251411481063307e+00
2.069125644703512901e+00
2.061062898648029940e+00
2.061062898648029940e+00
2.063312967314676172e+00
2.063312967314676172e+00
2.102876674703207716e+00
2.071563219092379615e+00
2.071563219092379615e+00
2.051500106814783120e+00
2.051500106814783120e+00
2.053000152592547423e+00
2.016811548203985893e+00
2.016811548203985893e+00
2.009686330759605788e+00
2.033874568926053783e+00
2.033874568926053783e+00
2.059562852870265637e+00
2.059562852870265637e+00
2.081126010925626435e+00
2.093313882869960452e+00
2.093313882869960452e+00
2.133252601702932960e+00
2.133252601702932960e+00
2.104751731925412539e+00
2.042124820703756782e+00
2.042124820703756782e+00
1.997123447370830363e+00
1.997123447370830363e+00
2.096688985869930022e+00
2.111501937925351680e+00
2.111501937925351680e+00
2.098939054536576698e+00
2.098939054536576698e+00
2.084126102481154597e+00
2.071000701925717724e+00
2.071000701925717724e+00
2.088063722647786058e+00
2.149190588091677956e+00
2.149190588091677956e+00
2.145440473647266977e+00
2.145440473647266977e+00
2.058812829981383707e+00
2.039499740592669585e+00
2.039499740592669585e+00
2.043999877925962494e+00
2.043999877925962494e+00
2.064625507370219992e+00
2.061062898648029940e+00
2.061062898648029940e+00
2.075875850703451597e+00
2.075875850703451597e+00
2.039312234870449103e+00
2.033312051759392336e+00
2.033312051759392336e+00
2.059562852870265637e+00
2.059562852870265637e+00
2.056937772759178884e+00
2.026374340037232713e+00
2.026374340037232713e+00
2.044562395092623941e+00
2.044562395092623941e+00
2.056937772759178884e+00
2.073063264870143918e+00
2.073063264870143918e+00
2.062750450148014725e+00
2.016061525315103520e+00
2.016061525315103520e+00
2.014936490981780626e+00
1.993935850093081497e+00
1.993935850093081497e+00
2.050937589648121673e+00
2.050937589648121673e+00
2.068563127536851454e+00
2.107001800592058771e+00
2.107001800592058771e+00
2.090313791314432290e+00
2.090313791314432290e+00
2.067063081759087151e+00
2.039874752037110550e+00
2.039874752037110550e+00
2.071000701925717724e+00
2.071000701925717724e+00
2.104564226203192501e+00
2.099876583147679110e+00
2.099876583147679110e+00
2.088063722647786058e+00
2.088063722647786058e+00
2.098189031647694325e+00
2.072875759147922992e+00
2.072875759147922992e+00
2.046249946592608282e+00
2.048500015259254514e+00
2.048500015259254514e+00
2.089563768425550361e+00
2.089563768425550361e+00
2.071188207647938206e+00
2.040249763481551515e+00
2.040249763481551515e+00
2.074188299203466812e+00
2.074188299203466812e+00
2.048500015259254514e+00
2.035187108981597159e+00
2.035187108981597159e+00
2.055625232703635064e+00
2.055625232703635064e+00
2.082063539536728847e+00
2.060687887203588975e+00
2.060687887203588975e+00
2.065188024536881883e+00
2.059375347148045154e+00
2.059375347148045154e+00
2.051312601092562637e+00
2.051312601092562637e+00
2.058250312814721816e+00
2.093313882869960452e+00
2.093313882869960452e+00
2.082063539536728847e+00
2.082063539536728847e+00
2.054687704092532208e+00
2.005561204870754288e+00
2.005561204870754288e+00
2.008936307870723859e+00
2.008936307870723859e+00
2.045499923703726353e+00
2.063125461592455689e+00
2.063125461592455689e+00
2.056375255592516993e+00
2.056375255592516993e+00
2.028811914426099428e+00
2.105501754814294912e+00
2.105501754814294912e+00
2.140940336313974068e+00
2.109626880703146412e+00
2.109626880703146412e+00
2.068375621814630971e+00
2.068375621814630971e+00
2.081688528092287882e+00
2.067625598925748598e+00
2.067625598925748598e+00
2.064625507370219992e+00
2.064625507370219992e+00
2.068750633259071936e+00
2.045499923703726353e+00
2.045499923703726353e+00
2.050937589648121673e+00
2.055625232703635064e+00
2.055625232703635064e+00
2.068938138981292418e+00
2.068938138981292418e+00
2.089376262703329878e+00
2.110376903592028786e+00
2.110376903592028786e+00
2.107564317758720662e+00
2.107564317758720662e+00
2.071938230536820580e+00
2.044562395092623941e+00
2.044562395092623941e+00
2.060125370036927084e+00
2.060125370036927084e+00
2.051125095370342155e+00
2.062562944425794242e+00
2.062562944425794242e+00
2.055437726981414581e+00
2.055437726981414581e+00
1.967310037537766565e+00
1.995435895870845799e+00
1.995435895870845799e+00
2.016249031037324002e+00
2.080750999481185470e+00
2.080750999481185470e+00
2.116564592425305591e+00
2.116564592425305591e+00
2.092938871425519931e+00
2.116002075258644588e+00
2.116002075258644588e+00
2.108689352092044000e+00
2.108689352092044000e+00
2.067813104647969080e+00
2.053000152592547423e+00
2.053000152592547423e+00
2.061625415814691387e+00
2.061625415814691387e+00
2.051125095370342155e+00
2.053375164036988387e+00
2.053375164036988387e+00
2.052625141148106458e+00
2.052625141148106458e+00
2.051875118259224084e+00
2.072500747703482027e+00
2.072500747703482027e+00
2.056750267036957958e+00
2.056750267036957958e+00
2.026561845759453195e+00
2.010248847926267679e+00
2.010248847926267679e+00
1.980622943815424142e+00
2.004811181981871915e+00
2.004811181981871915e+00
2.070063173314615312e+00
2.070063173314615312e+00
2.117127109591967482e+00
2.122189764091921838e+00
2.122189764091921838e+00
2.136815210425123013e+00
2.136815210425123013e+00
2.116752098147526517e+00
2.029186925870540392e+00
2.029186925870540392e+00
1.990185735648670962e+00
1.990185735648670962e+00
2.030874477370525177e+00
2.088626239814447505e+00
2.088626239814447505e+00
2.088063722647786058e+00
2.088063722647786058e+00
2.028999420148319910e+00
2.025061799981688893e+00
2.025061799981688893e+00
2.039687246314890068e+00
2.094438917203283790e+00
2.094438917203283790e+00
2.089751274147770843e+00
2.089751274147770843e+00
2.102126651814325342e+00
2.104001709036531054e+00
2.104001709036531054e+00
2.071375713370158689e+00
2.071375713370158689e+00
2.050187566759239299e+00
2.034999603259376677e+00
2.034999603259376677e+00
2.070063173314615312e+00
2.070063173314615312e+00
2.128002441480758122e+00
2.089563768425550361e+00
2.089563768425550361e+00
2.062187932981353278e+00
1.996748435926389398e+00
1.996748435926389398e+00
1.955872188482314478e+00
1.955872188482314478e+00
2.023749259926145072e+00
2.101189123203222930e+00
2.101189123203222930e+00
2.100626606036561483e+00
2.100626606036561483e+00
2.126689901425214746e+00
2.116002075258644588e+00
2.116002075258644588e+00
2.089188756981108952e+00
2.089188756981108952e+00
2.071938230536820580e+00
2.059750358592486119e+00
2.059750358592486119e+00
2.033124546037171854e+00
2.022061708426160731e+00
2.022061708426160731e+00
2.034249580370494748e+00
2.034249580370494748e+00
2.040249763481551515e+00
2.057312784203619849e+00
2.057312784203619849e+00
2.064062990203558545e+00
2.064062990203558545e+00
2.054125186925870761e+00
2.047374980925931620e+00
2.047374980925931620e+00
2.037062166203802427e+00
2.037062166203802427e+00
2.068188116092410045e+00
2.101001617481002448e+00
2.101001617481002448e+00
2.123314798425245176e+00
2.123314798425245176e+00
2.156878322702719064e+00
2.078500930814539238e+00
2.078500930814539238e+00
2.050750083925901190e+00
2.075125827814569668e+00
2.075125827814569668e+00
2.044562395092623941e+00
2.044562395092623941e+00
2.041187292092654371e+00
2.068938138981292418e+00
2.068938138981292418e+00
2.077750907925656865e+00
2.077750907925656865e+00
2.070063173314615312e+00
2.053187658314767905e+00
2.053187658314767905e+00
2.052625141148106458e+00
2.052625141148106458e+00
2.040249763481551515e+00
2.059375347148045154e+00
2.059375347148045154e+00
2.066688070314646186e+00
2.066688070314646186e+00
2.073438276314584883e+00
2.062562944425794242e+00
2.062562944425794242e+00
2.105126743369853504e+00
2.126689901425214746e+00
2.126689901425214746e+00
2.044749900814844423e+00
2.044749900814844423e+00
2.068375621814630971e+00
2.044749900814844423e+00
2.044749900814844423e+00
2.080750999481185470e+00
2.080750999481185470e+00
2.065000518814661401e+00
2.023936765648365554e+00
2.023936765648365554e+00
2.085251136814477935e+00
2.085251136814477935e+00
2.110001892147587377e+00
2.099689077425458628e+00
2.099689077425458628e+00
2.118064638203069894e+00
2.118064638203069894e+00
2.092376354258858040e+00
2.056937772759178884e+00
2.056937772759178884e+00
2.056187749870296511e+00
2.056187749870296511e+00
2.052812646870326940e+00
2.045312417981505870e+00
2.045312417981505870e+00
2.077750907925656865e+00
2.087126194036683202e+00
2.087126194036683202e+00
2.171691274758141166e+00
2.171691274758141166e+00
2.105501754814294912e+00
2.041374797814874853e+00
2.041374797814874853e+00
1.953622119815668245e+00
1.987560655537583543e+00
1.987560655537583543e+00
2.044374889370403459e+00
2.076813379314554453e+00
2.076813379314554453e+00
2.028624408703878945e+00
2.028624408703878945e+00
2.036687154759361462e+00
2.057125278481399366e+00
2.057125278481399366e+00
2.030124454481643248e+00
2.081126010925626435e+00
2.081126010925626435e+00
2.109626880703146412e+00
2.109626880703146412e+00
2.054125186925870761e+00
2.034999603259376677e+00
2.034999603259376677e+00
2.081501022370067400e+00
2.081501022370067400e+00
2.061625415814691387e+00
2.091251319925535146e+00
2.091251319925535146e+00
2.087313699758903685e+00
2.106439283425397324e+00
2.106439283425397324e+00
2.107001800592058771e+00
2.107001800592058771e+00
2.109626880703146412e+00
2.086001159703360308e+00
2.086001159703360308e+00
2.094626422925504272e+00
2.094626422925504272e+00
2.071563219092379615e+00
2.059375347148045154e+00
2.059375347148045154e+00
2.022811731315042216e+00
2.022811731315042216e+00
2.003498641926328094e+00
2.037999694814905283e+00
2.037999694814905283e+00
2.055062715536973172e+00
2.055062715536973172e+00
2.048500015259254514e+00
2.067063081759087151e+00
2.067063081759087151e+00
2.134377636036255854e+00
2.089751274147770843e+00
2.089751274147770843e+00
2.077375896481215900e+00
2.077375896481215900e+00
2.044562395092623941e+00
2.019249122592852608e+00
2.019249122592852608e+00
2.063125461592455689e+00
2.017186559648426858e+00
2.017186559648426858e+00
1.994310861537522683e+00
2.021311685537278358e+00
2.021311685537278358e+00
1.984748069704275641e+00
1.984748069704275641e+00
2.189316812646870059e+00
2.170003723258155937e+00
2.170003723258155937e+00
2.105126743369853504e+00
2.098939054536576698e+00
2.098939054536576698e+00
2.075125827814569668e+00
2.075125827814569668e+00
2.077563402203436382e+00
2.079625965147862576e+00
2.079625965147862576e+00
2.068750633259071936e+00
2.068750633259071936e+00
2.042499832148198191e+00
2.105126743369853504e+00
2.105126743369853504e+00
2.110751915036469750e+00
2.110751915036469750e+00
2.087501205481124167e+00
2.191941892757957699e+00
2.191941892757957699e+00
2.146565507980590315e+00
1.998248481704153479e+00
1.998248481704153479e+00
1.945559373760185506e+00
1.945559373760185506e+00
2.098001525925473842e+00
2.122752281258583285e+00
2.122752281258583285e+00
2.026374340037232713e+00
2.026374340037232713e+00
2.037062166203802427e+00
2.052812646870326940e+00
2.052812646870326940e+00
2.073813287759025847e+00
2.073813287759025847e+00
2.065375530259102366e+00
2.059937864314706601e+00
2.059937864314706601e+00
2.017749076815088305e+00
2.017749076815088305e+00
1.998810998870815148e+00
2.081126010925626435e+00
2.081126010925626435e+00
2.193816949980162967e+00
2.195692007202368234e+00
2.195692007202368234e+00
2.168503677480392078e+00
2.168503677480392078e+00
2.010436353648488161e+00
2.054687704092532208e+00
2.054687704092532208e+00
2.018874111148411643e+00
2.018874111148411643e+00
1.933371501815851268e+00
1.891370220038453231e+00
1.891370220038453231e+00
2.056187749870296511e+00
2.056187749870296511e+00
2.224755394146549659e+00
2.250443678090761956e+00
2.250443678090761956e+00
2.127064912869655711e+00
2.127064912869655711e+00
1.972747703482162107e+00
1.965247474593341037e+00
1.965247474593341037e+00
2.125939878536332373e+00
2.125939878536332373e+00
2.164378551591540134e+00
2.106626789147617806e+00
2.106626789147617806e+00
2.020186651203955464e+00
2.037812189092684800e+00
2.037812189092684800e+00
2.051125095370342155e+00
2.051125095370342155e+00
2.120877224036378017e+00
2.140565324869533104e+00
2.140565324869533104e+00
2.141502853480635959e+00
2.141502853480635959e+00
2.176378917813653668e+00
2.090501297036652772e+00
2.090501297036652772e+00
2.031249488814966586e+00
2.031249488814966586e+00
2.066500564592425260e+00
2.155940794091616652e+00
2.155940794091616652e+00
2.053562669759208870e+00
2.053562669759208870e+00
1.811867793816950067e+00
1.909933286538285424e+00
1.909933286538285424e+00
1.958122257148960932e+00
2.013998962370677770e+00
2.013998962370677770e+00
2.016061525315103520e+00
2.016061525315103520e+00
2.251756218146305777e+00
2.325445966978973100e+00
2.325445966978973100e+00
2.153315713980529011e+00
2.153315713980529011e+00
2.150315622425000850e+00
2.123127292703024249e+00
2.123127292703024249e+00
2.069875667592394830e+00
2.069875667592394830e+00
1.976497817926572642e+00
1.893245277260658721e+00
2.002186101870784718e+00
2.002186101870784718e+00
2.031624500259407551e+00
2.031624500259407551e+00
1.948746971037934594e+00
2.019624134037293572e+00
2.019624134037293572e+00
2.070438184759056277e+00
2.070438184759056277e+00
2.090688802758873255e+00
2.086751182592242237e+00
2.086751182592242237e+00
2.024686788537247928e+00
2.109064363536484965e+00
2.109064363536484965e+00
2.107564317758720662e+00
2.107564317758720662e+00
1.999186010315256334e+00
2.007998779259621003e+00
2.007998779259621003e+00
2.135315164647358710e+00
2.135315164647358710e+00
2.195129490035706787e+00
2.253631275368511044e+00
2.253631275368511044e+00
2.133252601702932960e+00
2.133252601702932960e+00
1.967122531815546083e+00
2.052437635425885976e+00
2.052437635425885976e+00
2.069500656147953865e+00
2.069500656147953865e+00
2.116377086703085553e+00
2.115064546647541732e+00
2.115064546647541732e+00
2.023936765648365554e+00
2.098376537369914807e+00
2.098376537369914807e+00
2.004623676259651432e+00
2.004623676259651432e+00
2.020374156926175946e+00
2.043437360759300603e+00
2.043437360759300603e+00
2.141315347758415477e+00
2.141315347758415477e+00
2.184629169591357556e+00
2.079250953703421168e+00
2.079250953703421168e+00
1.973310220648823554e+00
1.973310220648823554e+00
2.029749443037202283e+00
2.049625049592577852e+00
2.049625049592577852e+00
1.917246009704886012e+00
1.917246009704886012e+00
1.996185918759727951e+00
1.993373332926419828e+00
1.993373332926419828e+00
2.089563768425550361e+00
2.089563768425550361e+00
2.174878872035889810e+00
2.209754936368907963e+00
2.209754936368907963e+00
2.016249031037324002e+00
1.927371318704794501e+00
1.927371318704794501e+00
1.930558915982543589e+00
1.930558915982543589e+00
1.966747520371105118e+00
2.101751640369884377e+00
2.101751640369884377e+00
2.181441572313608468e+00
2.181441572313608468e+00
2.162128482924894346e+00
2.084501113925596005e+00
2.084501113925596005e+00
2.024124271370586037e+00
2.024124271370586037e+00
2.050562578203680708e+00
2.045874935148167761e+00
2.045874935148167761e+00
2.070063173314615312e+00
2.070063173314615312e+00
1.968247566148869199e+00
1.945184362315744542e+00
1.945184362315744542e+00
2.137565233314004942e+00
2.137565233314004942e+00
2.186691732535783306e+00
2.039312234870449103e+00
2.039312234870449103e+00
2.006123722037415735e+00
1.950809533982360344e+00
1.950809533982360344e+00
2.107001800592058771e+00
2.107001800592058771e+00
2.161565965758232455e+00
2.182191595202490397e+00
2.182191595202490397e+00
2.017936582537308787e+00
2.017936582537308787e+00
2.087126194036683202e+00
2.146002990813928868e+00
2.146002990813928868e+00
2.103251686147648680e+00
2.103251686147648680e+00
2.087501205481124167e+00
2.173378826258125951e+00
2.173378826258125951e+00
2.090501297036652772e+00
2.090501297036652772e+00
2.039687246314890068e+00
2.049812555314798335e+00
2.049812555314798335e+00
2.115439558091983141e+00
1.991310769981994078e+00
1.991310769981994078e+00
2.016061525315103520e+00
2.016061525315103520e+00
2.071188207647938206e+00
2.119002166814172750e+00
2.119002166814172750e+00
2.047562486648152102e+00
2.047562486648152102e+00
1.944059327982421204e+00
1.953997131260109432e+00
1.953997131260109432e+00
1.954184636982329915e+00
1.954184636982329915e+00
2.097063997314370987e+00
2.093501388592180934e+00
2.093501388592180934e+00
2.090313791314432290e+00
2.155753288369396170e+00
2.155753288369396170e+00
2.179003997924741309e+00
2.179003997924741309e+00
1.992435804315317194e+00
1.999373516037476817e+00
1.999373516037476817e+00
1.923246192815943001e+00
1.923246192815943001e+00
2.116002075258644588e+00
2.116002075258644588e+00
2.116002075258644588e+00
2.005186193426313324e+00
2.005186193426313324e+00
2.067438093203528116e+00
2.059750358592486119e+00
2.059750358592486119e+00
2.223630359813226764e+00
2.223630359813226764e+00
2.141315347758415477e+00
2.116564592425305591e+00
2.116564592425305591e+00
2.095938962981048093e+00
2.095938962981048093e+00
2.044937406537064906e+00
2.095376445814386202e+00
2.095376445814386202e+00
2.037062166203802427e+00
1.857619190038758417e+00
1.857619190038758417e+00
1.840743675038911231e+00
1.840743675038911231e+00
2.018124088259529714e+00
2.199254615924558287e+00
2.199254615924558287e+00
2.167941160313730187e+00
2.167941160313730187e+00
2.083376079592272667e+00
2.070250679036835795e+00
2.070250679036835795e+00
2.067438093203528116e+00
2.067438093203528116e+00
1.995060884426404613e+00
1.980622943815424142e+00
1.980622943815424142e+00
2.108314340647602592e+00
2.108314340647602592e+00
2.098564043092135289e+00
2.143002899258400262e+00
2.143002899258400262e+00
2.233943174535355514e+00
2.194941984313486305e+00
2.194941984313486305e+00
1.948934476760155077e+00
1.948934476760155077e+00
1.990185735648670962e+00
2.265819147312845505e+00
2.265819147312845505e+00
2.225505417035432032e+00
2.225505417035432032e+00
2.145815485091708386e+00
2.010811365092929126e+00
2.010811365092929126e+00
1.842431226538896016e+00
1.842431226538896016e+00
1.970310129093295171e+00
1.961309854426709798e+00
1.961309854426709798e+00
1.964497451704458886e+00
1.964497451704458886e+00
2.060312875759148010e+00
2.046249946592608282e+00
2.046249946592608282e+00
2.026561845759453195e+00
2.086751182592242237e+00
2.086751182592242237e+00
2.189879329813531950e+00
2.189879329813531950e+00
1.885932554094057911e+00
2.130252510147404355e+00
2.130252510147404355e+00
2.385635303811762142e+00
2.385635303811762142e+00
2.314383129367961978e+00
1.980622943815424142e+00
1.980622943815424142e+00
1.944621845149082873e+00
1.944621845149082873e+00
2.090313791314432290e+00
2.158565874202703849e+00
2.158565874202703849e+00
2.060875392925809457e+00
2.026561845759453195e+00
2.026561845759453195e+00
1.950059511093478193e+00
1.950059511093478193e+00
1.941809259315775193e+00
1.958309762871181414e+00
1.958309762871181414e+00
2.020374156926175946e+00
2.134752647480697263e+00
2.134752647480697263e+00
2.133252601702932960e+00
2.078125919370098273e+00
2.078125919370098273e+00
2.081876033814508364e+00
2.081876033814508364e+00
2.183879146702475182e+00
2.116939603869747000e+00
2.116939603869747000e+00
1.966372508926664153e+00
1.966372508926664153e+00
1.815430402539139898e+00
2.135877681814020157e+00
2.135877681814020157e+00
2.430074159978026671e+00
2.332571184423352761e+00
2.332571184423352761e+00
2.147878048036134135e+00
2.147878048036134135e+00
2.142815393536179780e+00
1.883119968260750232e+00
1.883119968260750232e+00
1.825555711539048609e+00
1.825555711539048609e+00
2.003123630481887130e+00
1.964309945982238181e+00
1.964309945982238181e+00
1.778679280983916922e+00
1.757866145817438275e+00
1.757866145817438275e+00
1.888182622760704366e+00
1.888182622760704366e+00
2.133440107425153442e+00
2.013248939481795396e+00
2.013248939481795396e+00
2.367822260200811879e+00
2.367822260200811879e+00
2.476763084810937876e+00
2.066500564592425260e+00
2.066500564592425260e+00
2.067625598925748598e+00
2.067625598925748598e+00
2.142065370647297406e+00
2.197192052980132537e+00
2.197192052980132537e+00
2.065563035981322848e+00
2.140190313425092139e+00
2.140190313425092139e+00
2.136440198980682048e+00
2.136440198980682048e+00
1.969935117648853984e+00
2.024686788537247928e+00
2.024686788537247928e+00
2.086751182592242237e+00
1.897932920316171668e+00
1.897932920316171668e+00
1.911620838038270209e+00
2.163066011535996758e+00
2.163066011535996758e+00
1.912183355204931878e+00
1.912183355204931878e+00
2.129314981536301499e+00
2.133065095980712478e+00
2.133065095980712478e+00
2.165691091647083955e+00
2.165691091647083955e+00
2.206004821924497428e+00
2.027874385814997016e+00
2.027874385814997016e+00
1.927933835871455948e+00
2.094251411481063307e+00
2.094251411481063307e+00
2.011561387981810611e+00
2.011561387981810611e+00
1.914433423871578110e+00
2.222505325479903426e+00
2.222505325479903426e+00
2.286444776757103448e+00
2.286444776757103448e+00
2.237130771813104602e+00
2.106251777703176842e+00
2.106251777703176842e+00
1.889495162816248186e+00
1.889495162816248186e+00
1.873744682149723673e+00
1.856869167149876487e+00
1.856869167149876487e+00
2.039124729148228621e+00
2.101376628925443413e+00
2.101376628925443413e+00
2.057125278481399366e+00
2.057125278481399366e+00
2.013061433759574914e+00
2.039312234870449103e+00
2.039312234870449103e+00
2.073438276314584883e+00
2.073438276314584883e+00
2.153503219702749494e+00
2.381697683645130681e+00
2.381697683645130681e+00
2.347196630756553937e+00
2.347196630756553937e+00
1.923996215704825152e+00
1.864556901760918040e+00
1.864556901760918040e+00
2.008186284981841485e+00
1.993560838648640532e+00
1.993560838648640532e+00
2.143002899258400262e+00
2.143002899258400262e+00
2.095563951536606684e+00
2.017374065370647340e+00
2.017374065370647340e+00
2.012498916592913467e+00
2.012498916592913467e+00
1.977247840815454571e+00
1.896995391705069034e+00
1.896995391705069034e+00
1.924933744315927786e+00
1.924933744315927786e+00
2.264131595812860720e+00
2.210317453535568966e+00
2.210317453535568966e+00
1.905433149204992960e+00
1.906745689260536558e+00
1.906745689260536558e+00
2.054125186925870761e+00
2.054125186925870761e+00
2.216692648091067142e+00
2.161565965758232455e+00
2.161565965758232455e+00
2.202817224646748340e+00
2.202817224646748340e+00
2.102501663258766751e+00
1.820493057039094031e+00
1.820493057039094031e+00
1.787304544206060886e+00
1.787304544206060886e+00
2.179566515091402756e+00
2.263756584368419311e+00
2.263756584368419311e+00
2.186879238258003344e+00
2.186879238258003344e+00
2.239755851924192243e+00
2.109439374980925930e+00
2.109439374980925930e+00
2.193066927091281038e+00
2.193066927091281038e+00
2.236193243202001746e+00
1.724490127262184647e+00
1.724490127262184647e+00
1.906370677816095593e+00
1.859681752983184388e+00
1.859681752983184388e+00
1.966935026093325822e+00
1.966935026093325822e+00
1.883682485427411901e+00
1.856119144260994336e+00
1.856119144260994336e+00
2.266569170201727434e+00
2.266569170201727434e+00
2.324883449812311209e+00
2.225505417035432032e+00
2.225505417035432032e+00
2.263006561479537382e+00
2.126877407147435228e+00
2.126877407147435228e+00
2.177503952146977007e+00
2.177503952146977007e+00
2.247068575090792386e+00
2.203942258980071234e+00
2.203942258980071234e+00
1.990185735648670962e+00
1.990185735648670962e+00
1.825555711539048609e+00
1.872807153538621261e+00
1.872807153538621261e+00
1.705552049317911267e+00
1.705552049317911267e+00
1.833243446150089939e+00
2.088251228370006540e+00
2.088251228370006540e+00
1.966560014648884636e+00
1.966560014648884636e+00
2.070250679036835795e+00
2.227005462813196335e+00
2.227005462813196335e+00
2.080188482314524023e+00
2.080188482314524023e+00
2.205817316202276945e+00
2.380010132145145896e+00
2.380010132145145896e+00
2.142065370647297406e+00
1.997310953093050845e+00
1.997310953093050845e+00
1.930371410260322884e+00
1.930371410260322884e+00
1.934309030426953901e+00
2.008373790704061967e+00
2.008373790704061967e+00
2.033874568926053783e+00
2.033874568926053783e+00
2.025061799981688893e+00
1.989435712759789032e+00
1.989435712759789032e+00
1.977247840815454571e+00
1.977247840815454571e+00
2.184066652424695665e+00
2.198317087313455875e+00
2.198317087313455875e+00
2.126127384258552855e+00
2.126127384258552855e+00
2.102314157536546269e+00
2.101564134647663895e+00
2.101564134647663895e+00
2.017936582537308787e+00
2.017936582537308787e+00
2.058812829981383707e+00
2.007998779259621003e+00
2.007998779259621003e+00
1.984185552537614194e+00
1.810555253761406247e+00
1.810555253761406247e+00
1.991498275704214560e+00
1.991498275704214560e+00
2.306695394756919981e+00
2.123314798425245176e+00
2.123314798425245176e+00
1.972935209204382367e+00
1.972935209204382367e+00
2.339508896145511940e+00
2.045499923703726353e+00
2.045499923703726353e+00
2.089001251258888470e+00
2.089001251258888470e+00
2.252881252479629115e+00
2.233005645924253102e+00
2.233005645924253102e+00
2.101939146092104860e+00
1.952497085482345129e+00
1.952497085482345129e+00
1.844493789483321544e+00
1.844493789483321544e+00
2.024499282815027001e+00
2.060312875759148010e+00
2.060312875759148010e+00
2.000123538926358524e+00
2.000123538926358524e+00
2.057312784203619849e+00
2.053750175481429796e+00
2.053750175481429796e+00
1.928496353038117617e+00
1.928496353038117617e+00
1.952497085482345129e+00
2.220442762535478121e+00
2.220442762535478121e+00
2.183691640980254700e+00
2.183691640980254700e+00
2.199067110202337361e+00
2.036874660481581945e+00
2.036874660481581945e+00
2.367072237311929506e+00
2.098189031647694325e+00
2.098189031647694325e+00
1.677426190984832255e+00
1.677426190984832255e+00
1.574860560930204212e+00
1.661113193151646517e+00
1.661113193151646517e+00
2.328446058534500818e+00
2.328446058534500818e+00
2.211442487868892304e+00
2.136627704702902530e+00
2.136627704702902530e+00
1.979122898037659839e+00
1.979122898037659839e+00
1.983060518204291078e+00
2.249881160924100509e+00
2.249881160924100509e+00
2.712645283364360616e+00
2.544265144810327506e+00
2.544265144810327506e+00
2.003123630481887130e+00
2.003123630481887130e+00
1.488045411542100238e+00
1.431606189153721731e+00
1.431606189153721731e+00
1.993373332926419828e+00
1.993373332926419828e+00
1.964872463148899850e+00
1.994685872981963648e+00
1.994685872981963648e+00
2.518201849421674243e+00
2.275194433423871843e+00
2.275194433423871843e+00
2.258693929868464956e+00
2.258693929868464956e+00
2.028624408703878945e+00
1.863619373149815406e+00
1.863619373149815406e+00
1.642175115207373359e+00
1.642175115207373359e+00
1.815992919705801567e+00
2.265444135868404540e+00
2.265444135868404540e+00
2.392385509811700839e+00
2.392385509811700839e+00
2.147128025147251762e+00
2.326008484145634547e+00
2.326008484145634547e+00
2.037249671926022909e+00
2.037249671926022909e+00
2.107001800592058771e+00
2.438699423200171079e+00
2.438699423200171079e+00
2.223817865535447247e+00
2.223817865535447247e+00
1.724677632984405129e+00
1.682113834040345424e+00
1.682113834040345424e+00
2.031249488814966586e+00
2.137190221869563977e+00
2.137190221869563977e+00
1.968997589037751350e+00
1.968997589037751350e+00
2.201504684591204519e+00
2.254006286812952009e+00
2.254006286812952009e+00
2.007061250648518591e+00
2.007061250648518591e+00
1.867556993316446423e+00
2.140752830591753586e+00
2.140752830591753586e+00
2.194191961424603932e+00
2.194191961424603932e+00
2.005186193426313324e+00
1.801367473372600614e+00
1.801367473372600614e+00
1.755053559984130596e+00
1.755053559984130596e+00
1.770241523483992996e+00
2.117314615314187964e+00
2.117314615314187964e+00
2.343071504867702437e+00
2.200004638813440216e+00
2.200004638813440216e+00
1.485795342875454006e+00
1.485795342875454006e+00
1.842243720816675312e+00
1.922496169927060850e+00
1.922496169927060850e+00
2.269381756035035114e+00
2.269381756035035114e+00
2.327696035645618888e+00
2.279319559312723342e+00
2.279319559312723342e+00
2.071188207647938206e+00
2.071188207647938206e+00
2.124064821314127105e+00
2.615329813531907188e+00
2.615329813531907188e+00
2.179191503646961792e+00
2.179191503646961792e+00
2.343634022034363884e+00
2.603329447309793654e+00
2.603329447309793654e+00
2.187441755424664791e+00
1.940871730704672338e+00
1.940871730704672338e+00
1.901308023316141238e+00
1.901308023316141238e+00
1.474357493820001919e+00
1.434231269264809150e+00
1.434231269264809150e+00
1.857994201483199603e+00
1.857994201483199603e+00
2.180129032258064647e+00
1.951184545426801309e+00
1.951184545426801309e+00
2.129877498702963390e+00
2.129877498702963390e+00
1.918183538315988645e+00
1.901870540482802907e+00
1.901870540482802907e+00
2.379447614978484449e+00
2.379447614978484449e+00
2.290194891201513983e+00
2.475263039033173573e+00
2.475263039033173573e+00
2.305195348979155678e+00
2.305195348979155678e+00
1.923058687093722297e+00
1.503795892208624752e+00
1.503795892208624752e+00
1.775679189428388316e+00
2.061062898648029940e+00
2.061062898648029940e+00
2.210692464980010374e+00
2.210692464980010374e+00
2.041374797814874853e+00
2.463637684255501004e+00
2.463637684255501004e+00
2.446574663533433114e+00
2.446574663533433114e+00
2.102876674703207716e+00
1.923808709982604448e+00
1.923808709982604448e+00
2.180879055146946577e+00
2.180129032258064647e+00
2.180129032258064647e+00
1.909183263649403273e+00
1.909183263649403273e+00
1.614424268318735534e+00
1.783741935483871055e+00
1.783741935483871055e+00
2.034624591814935712e+00
2.034624591814935712e+00
1.875057222205267493e+00
2.137940244758446351e+00
2.137940244758446351e+00
2.201692190313425002e+00
2.201692190313425002e+00
2.239005829035309869e+00
1.820868068483535218e+00
1.820868068483535218e+00
2.477513107699820250e+00
2.335008758812219920e+00
2.335008758812219920e+00
2.063500473036897098e+00
2.063500473036897098e+00
2.197004547257912055e+00
1.846556352427747516e+00
1.846556352427747516e+00
1.493108066042054372e+00
1.493108066042054372e+00
1.800617450483718462e+00
2.128939970091860534e+00
2.128939970091860534e+00
2.549327799310281861e+00
2.549327799310281861e+00
2.359572008423108880e+00
2.040624774925992480e+00
2.040624774925992480e+00
2.097439008758812395e+00
2.097439008758812395e+00
2.468700338755454915e+00
1.956809717093417111e+00
1.956809717093417111e+00
1.711177220984527070e+00
2.061062898648029940e+00
2.061062898648029940e+00
1.858744224372081755e+00
1.858744224372081755e+00
1.780741843928342449e+00
1.774366649372844496e+00
1.774366649372844496e+00
2.115064546647541732e+00
2.115064546647541732e+00
2.489325968199713301e+00
1.946684408093508845e+00
1.946684408093508845e+00
2.166441114535965884e+00
2.166441114535965884e+00
2.344384044923245813e+00
2.188941801202429094e+00
2.188941801202429094e+00
1.803242530594805659e+00
1.803242530594805659e+00
1.579548203985717381e+00
1.996185918759727951e+00
1.996185918759727951e+00
2.696707296975615620e+00
2.378322580645161111e+00
2.378322580645161111e+00
1.955122165593432548e+00
1.955122165593432548e+00
1.756928617206335641e+00
1.774179143650624013e+00
1.774179143650624013e+00
1.920996124149296547e+00
1.920996124149296547e+00
2.168691183202612560e+00
2.155003265480513797e+00
2.155003265480513797e+00
2.467762810144352947e+00
2.467762810144352947e+00
2.463637684255501004e+00
2.124439832758568070e+00
2.124439832758568070e+00
1.901495529038361942e+00
1.901495529038361942e+00
1.989810724204229997e+00
1.841681203650013865e+00
1.841681203650013865e+00
1.895870357371746140e+00
1.957372234260078780e+00
1.957372234260078780e+00
2.051687612537003602e+00
2.051687612537003602e+00
1.885370036927396464e+00
2.019999145481734981e+00
2.019999145481734981e+00
1.923058687093722297e+00
1.923058687093722297e+00
1.776804223761711432e+00
2.017749076815088305e+00
2.017749076815088305e+00
2.311945554979094819e+00
2.311945554979094819e+00
2.179379009369182274e+00
2.028811914426099428e+00
2.028811914426099428e+00
2.219692739646595747e+00
2.523639515366069563e+00
2.523639515366069563e+00
2.149378093813898438e+00
2.149378093813898438e+00
2.055437726981414581e+00
1.902245551927244094e+00
1.902245551927244094e+00
2.461200109866634289e+00
2.461200109866634289e+00
1.873932187871944377e+00
1.813367839594714370e+00
1.813367839594714370e+00
1.931308938871425740e+00
1.931308938871425740e+00
2.263944090090640238e+00
2.148440565202795582e+00
2.148440565202795582e+00
2.321320841090121156e+00
2.321320841090121156e+00
1.950809533982360344e+00
1.682113834040345424e+00
1.682113834040345424e+00
1.922308664204840145e+00
2.376072511978514878e+00
2.376072511978514878e+00
2.008373790704061967e+00
2.008373790704061967e+00
1.779241798150578369e+00
2.155753288369396170e+00
2.155753288369396170e+00
2.654518509475997323e+00
2.654518509475997323e+00
2.025249305703909375e+00
1.829118320261238440e+00
1.829118320261238440e+00
1.852744041261024766e+00
1.852744041261024766e+00
2.136815210425123013e+00
2.256068849757378203e+00
2.256068849757378203e+00
2.206567339091158875e+00
2.206567339091158875e+00
1.984373058259834677e+00
1.759178685872982095e+00
1.759178685872982095e+00
1.669363444929349738e+00
1.800429944761497980e+00
1.800429944761497980e+00
2.179191503646961792e+00
2.179191503646961792e+00
2.113752006591998356e+00
2.109251869258705447e+00
2.109251869258705447e+00
1.918746055482650315e+00
1.918746055482650315e+00
2.165128574480422063e+00
2.233943174535355514e+00
2.233943174535355514e+00
2.507326517532883603e+00
2.358634479812006024e+00
2.358634479812006024e+00
2.083001068147831703e+00
2.083001068147831703e+00
2.082251045258949329e+00
2.439824457533493973e+00
2.439824457533493973e+00
1.855931638538773631e+00
1.855931638538773631e+00
1.899432966093935971e+00
1.775116672261726647e+00
1.775116672261726647e+00
1.543172093874935147e+00
1.543172093874935147e+00
1.990373241370891666e+00
2.270694296090578934e+00
2.270694296090578934e+00
2.333883724478896582e+00
2.333883724478896582e+00
2.175441389202551257e+00
1.914808435316019075e+00
1.914808435316019075e+00
1.831930906094546563e+00
2.006873744926298109e+00
2.006873744926298109e+00
2.336133793145542814e+00
2.336133793145542814e+00
2.425199011200292798e+00
2.240505874813074172e+00
2.240505874813074172e+00
2.104189214758751536e+00
2.104189214758751536e+00
1.930933927426984553e+00
1.720365001373333147e+00
1.720365001373333147e+00
1.672176030762657639e+00
1.672176030762657639e+00
1.791804681539353572e+00
2.235630726035340299e+00
2.235630726035340299e+00
2.249881160924100509e+00
2.249881160924100509e+00
1.916683492538224565e+00
2.033687063203833301e+00
2.033687063203833301e+00
2.158940885647145258e+00
2.380760155034028269e+00
2.380760155034028269e+00
2.102876674703207716e+00
2.102876674703207716e+00
1.743240699484237322e+00
1.948184453871272925e+00
1.948184453871272925e+00
2.497388714255195818e+00
2.497388714255195818e+00
2.398948210089419053e+00
2.089376262703329878e+00
2.089376262703329878e+00
1.856681661427655783e+00
1.856681661427655783e+00
1.732177861873226199e+00
1.765928891872921014e+00
1.765928891872921014e+00
1.912183355204931878e+00
1.912183355204931878e+00
2.313070589312418157e+00
2.696519791253395137e+00
2.696519791253395137e+00
2.329758598590044638e+00
1.978560380870998392e+00
1.978560380870998392e+00
1.857619190038758417e+00
1.857619190038758417e+00
1.977997863704336723e+00
2.049062532425916405e+00
2.049062532425916405e+00
1.970310129093295171e+00
1.970310129093295171e+00
1.972935209204382367e+00
2.093313882869960452e+00
2.093313882869960452e+00
1.867369487594225719e+00
1.867369487594225719e+00
2.158190862758262885e+00
2.169628711813714972e+00
2.169628711813714972e+00
2.013061433759574914e+00
2.013061433759574914e+00
2.097814020203253360e+00
1.799867427594836311e+00
1.799867427594836311e+00
1.615736808374278910e+00
1.890057679982909855e+00
1.890057679982909855e+00
2.232255623035371173e+00
2.232255623035371173e+00
2.438699423200171079e+00
2.320570818201239227e+00
2.320570818201239227e+00
2.251381206701864812e+00
2.251381206701864812e+00
2.127439924314096675e+00
2.058625324259163225e+00
2.058625324259163225e+00
2.168878688924833043e+00
1.946684408093508845e+00
1.946684408093508845e+00
1.817680471205786352e+00
1.817680471205786352e+00
2.131190038758506766e+00
2.121627246925260390e+00
2.121627246925260390e+00
1.963184911648915065e+00
1.963184911648915065e+00
2.020749168370616911e+00
2.344009033478804849e+00
2.344009033478804849e+00
2.299007660145878429e+00
2.262819055757316900e+00
2.262819055757316900e+00
2.183129123813593253e+00
2.183129123813593253e+00
1.839806146427808375e+00
1.811117770928067916e+00
1.811117770928067916e+00
1.855931638538773631e+00
1.855931638538773631e+00
1.951184545426801309e+00
1.961122348704489093e+00
1.961122348704489093e+00
2.021686696981719766e+00
2.021686696981719766e+00
2.206754844813379357e+00
2.035562120426038124e+00
2.035562120426038124e+00
2.115064546647541732e+00
2.070250679036835795e+00
2.070250679036835795e+00
2.266006653035065987e+00
2.266006653035065987e+00
2.216317636646626177e+00
2.028061891537217498e+00
2.028061891537217498e+00
2.309507980590228104e+00
2.309507980590228104e+00
2.200754661702322146e+00
2.179941526535844165e+00
2.179941526535844165e+00
1.767803949095126059e+00
1.767803949095126059e+00
1.775491683706167834e+00
1.788992095706045893e+00
1.788992095706045893e+00
1.705927060762352454e+00
1.705927060762352454e+00
2.015686513870662555e+00
2.238818323313089387e+00
2.238818323313089387e+00
2.178066469313638454e+00
2.178066469313638454e+00
1.979122898037659839e+00
1.890620197149571302e+00
1.890620197149571302e+00
2.481825739310891787e+00
2.331071138645588459e+00
2.331071138645588459e+00
2.116377086703085553e+00
2.116377086703085553e+00
1.858181707205420086e+00
2.046437452314828764e+00
2.046437452314828764e+00
2.071563219092379615e+00
2.071563219092379615e+00
1.999373516037476817e+00
2.090688802758873255e+00
2.090688802758873255e+00
2.244443494979705633e+00
2.244443494979705633e+00
1.972372692037720920e+00
1.830430860316782260e+00
1.830430860316782260e+00
2.110001892147587377e+00
2.110001892147587377e+00
2.358259468367565059e+00
2.060500381481368493e+00
2.060500381481368493e+00
2.061062898648029940e+00
2.061250404370250422e+00
2.061250404370250422e+00
2.109064363536484965e+00
2.109064363536484965e+00
2.021686696981719766e+00
1.957934751426740450e+00
1.957934751426740450e+00
2.107189306314279698e+00
2.107189306314279698e+00
2.177128940702536042e+00
2.198692098757896396e+00
2.198692098757896396e+00
2.061062898648029940e+00
2.061062898648029940e+00
2.077750907925656865e+00
2.110939420758690233e+00
2.110939420758690233e+00
1.885745048371837429e+00
1.926996307260353314e+00
1.926996307260353314e+00
2.032749534592730889e+00
2.032749534592730889e+00
2.108314340647602592e+00
1.988498184148686176e+00
1.988498184148686176e+00
1.973497726371044036e+00
1.973497726371044036e+00
2.048875026703695923e+00
2.320195806756797818e+00
2.320195806756797818e+00
2.250631183812982439e+00
2.250631183812982439e+00
2.025249305703909375e+00
1.907870723593859896e+00
1.907870723593859896e+00
1.948371959593493630e+00
1.948371959593493630e+00
1.919871089815973431e+00
2.129502487258521981e+00
2.129502487258521981e+00
2.169441206091494490e+00
2.229818048646504014e+00
2.229818048646504014e+00
2.321133335367900674e+00
2.321133335367900674e+00
2.145065462202826012e+00
2.059375347148045154e+00
2.059375347148045154e+00
2.001061067537461380e+00
2.001061067537461380e+00
2.029186925870540392e+00
1.988498184148686176e+00
1.863244361705374219e+00
1.863244361705374219e+00
2.040062257759331033e+00
2.040062257759331033e+00
2.110564409314249268e+00
2.231693105868709726e+00
2.231693105868709726e+00
2.017749076815088305e+00
2.017749076815088305e+00
1.991685781426435042e+00
1.946309396649067658e+00
1.946309396649067658e+00
2.200379650257881181e+00
2.304632831812494231e+00
2.304632831812494231e+00
2.049250038148136888e+00
2.049250038148136888e+00
1.957934751426740450e+00
2.131940061647389140e+00
2.131940061647389140e+00
2.185379192480239485e+00
2.185379192480239485e+00
2.032187017426068998e+00
2.010998870815149164e+00
2.010998870815149164e+00
1.942559282204657345e+00
1.942559282204657345e+00
2.028811914426099428e+00
2.101939146092104860e+00
2.101939146092104860e+00
2.080938505203405953e+00
2.209004913480026033e+00
2.209004913480026033e+00
2.173191320535905025e+00
2.173191320535905025e+00
2.127064912869655711e+00
1.977997863704336723e+00
1.977997863704336723e+00
1.921746147038178698e+00
1.921746147038178698e+00
1.952872096926786094e+00
2.060312875759148010e+00
2.060312875759148010e+00
2.005561204870754288e+00
2.005561204870754288e+00
2.036124637592700015e+00
2.131752555925168657e+00
2.131752555925168657e+00
2.059750358592486119e+00
2.093688894314401416e+00
2.093688894314401416e+00
2.089188756981108952e+00
2.089188756981108952e+00
1.911620838038270209e+00
1.950809533982360344e+00
1.950809533982360344e+00
2.161753471480452937e+00
2.143752922147282192e+00
2.143752922147282192e+00
2.124064821314127105e+00
2.042687337870418673e+00
2.042687337870418673e+00
2.039687246314890068e+00
2.039687246314890068e+00
2.003873653370769503e+00
1.918933561204870797e+00
1.918933561204870797e+00
1.978372875148777910e+00
1.978372875148777910e+00
2.179191503646961792e+00
2.350946745200964472e+00
2.350946745200964472e+00
2.193066927091281038e+00
2.193066927091281038e+00
2.106814294869838289e+00
2.040812280648213406e+00
2.040812280648213406e+00
2.264131595812860720e+00
2.089188756981108952e+00
2.089188756981108952e+00
2.028436902981658463e+00
2.028436902981658463e+00
1.981747978148747258e+00
2.024686788537247928e+00
2.024686788537247928e+00
2.015311502426221590e+00
2.015311502426221590e+00
2.205254799035615054e+00
2.120502212591937052e+00
2.120502212591937052e+00
1.994685872981963648e+00
1.894745323038422802e+00
1.894745323038422802e+00
2.061812921536912313e+00
2.061812921536912313e+00
2.142252876369517889e+00
2.070625690481276759e+00
2.070625690481276759e+00
2.062187932981353278e+00
2.062187932981353278e+00
2.120877224036378017e+00
1.963559923093356252e+00
1.963559923093356252e+00
1.995248390148625317e+00
1.995248390148625317e+00
2.108876857814264483e+00
2.348696676534318240e+00
2.348696676534318240e+00
2.132690084536271069e+00
2.052062623981445011e+00
2.052062623981445011e+00
1.958872280037843083e+00
1.958872280037843083e+00
1.988310678426465694e+00
1.995435895870845799e+00
1.995435895870845799e+00
1.903370586260566988e+00
1.903370586260566988e+00
2.067625598925748598e+00
2.101376628925443413e+00
2.101376628925443413e+00
2.129314981536301499e+00
2.129314981536301499e+00
2.148628070925016065e+00
2.035562120426038124e+00
2.035562120426038124e+00
2.036499649037140980e+00
2.036499649037140980e+00
2.046999969481490211e+00
2.123502304147465658e+00
2.123502304147465658e+00
2.145065462202826012e+00
2.145065462202826012e+00
2.014748985259559699e+00
1.954747154148991584e+00
1.954747154148991584e+00
2.039874752037110550e+00
2.073063264870143918e+00
2.073063264870143918e+00
2.105689260536515395e+00
2.105689260536515395e+00
2.163441022980437278e+00
1.980435438093203437e+00
1.980435438093203437e+00
2.101751640369884377e+00
2.101751640369884377e+00
2.154628254036072832e+00
2.099314065981017663e+00
2.099314065981017663e+00
1.991873287148655747e+00
1.991873287148655747e+00
2.077563402203436382e+00
2.064813013092440475e+00
2.064813013092440475e+00
2.065188024536881883e+00
2.152940702536088047e+00
2.152940702536088047e+00
2.054312692648091243e+00
2.054312692648091243e+00
1.941996765037995676e+00
2.063687978759117581e+00
2.063687978759117581e+00
1.986810632648701391e+00
1.986810632648701391e+00
2.128189947202978605e+00
2.138690267647328280e+00
2.138690267647328280e+00
2.033874568926053783e+00
2.033874568926053783e+00
2.071938230536820580e+00
2.102126651814325342e+00
2.102126651814325342e+00
2.188191778313547164e+00
1.976310312204351938e+00
1.976310312204351938e+00
1.999561021759697299e+00
1.999561021759697299e+00
2.040062257759331033e+00
2.077938413647877791e+00
2.077938413647877791e+00
2.071750724814600098e+00
2.071750724814600098e+00
2.066688070314646186e+00
2.024874294259468410e+00
2.024874294259468410e+00
2.140377819147312621e+00
2.140377819147312621e+00
2.115252052369762659e+00
2.063500473036897098e+00
2.063500473036897098e+00
2.078875942258980203e+00
2.001998596148564236e+00
2.001998596148564236e+00
1.977810357982116241e+00
1.977810357982116241e+00
2.086938688314462720e+00
2.072313241981261545e+00
2.072313241981261545e+00
2.011936399426252020e+00
2.011936399426252020e+00
2.000123538926358524e+00
2.003686147648549021e+00
2.003686147648549021e+00
1.958684774315622379e+00
1.958684774315622379e+00
2.083938596758934114e+00
2.170003723258155937e+00
2.170003723258155937e+00
2.339696401867732423e+00
2.186691732535783306e+00
2.186691732535783306e+00
1.997310953093050845e+00
1.997310953093050845e+00
2.074188299203466812e+00
2.175253883480330774e+00
2.175253883480330774e+00
2.118252143925290376e+00
2.118252143925290376e+00
2.104376720480972018e+00
2.019436628315073090e+00
2.019436628315073090e+00
1.852931546983245470e+00
1.852931546983245470e+00
2.007248756370739073e+00
2.147503036591693171e+00
2.147503036591693171e+00
2.027874385814997016e+00
2.027874385814997016e+00
1.984373058259834677e+00
2.031061983092746104e+00
2.031061983092746104e+00
2.059375347148045154e+00
2.065188024536881883e+00
2.065188024536881883e+00
2.048875026703695923e+00
2.048875026703695923e+00
2.138315256202887316e+00
2.223442854091006282e+00
2.223442854091006282e+00
2.172628803369243577e+00
2.172628803369243577e+00
2.129877498702963390e+00
2.097626514481032878e+00
2.097626514481032878e+00
2.041562303537095335e+00
2.041562303537095335e+00
1.965997497482223189e+00
2.004998687704092397e+00
2.004998687704092397e+00
2.051125095370342155e+00
2.051125095370342155e+00
1.948184453871272925e+00
1.993185827204199345e+00
1.993185827204199345e+00
2.092188848536637558e+00
2.092188848536637558e+00
2.034062074648274265e+00
2.016249031037324002e+00
2.016249031037324002e+00
2.092751365703299449e+00
