2.113564500869777874e+00
2.113564500869777874e+00
2.113564500869777874e+00
1.795742301705984811e+00
1.795742301705984811e+00
1.795742301705984811e+00
1.795742301705984811e+00
1.856306649983214818e+00
1.856306649983214818e+00
1.856306649983214818e+00
1.884995025482955278e+00
1.884995025482955278e+00
1.884995025482955278e+00
1.884995025482955278e+00
2.033874568926053783e+00
2.033874568926053783e+00
2.033874568926053783e+00
1.909558275093844459e+00
1.909558275093844459e+00
1.909558275093844459e+00
2.126877407147435228e+00
2.126877407147435228e+00
2.126877407147435228e+00
2.126877407147435228e+00
2.188941801202429094e+00
2.188941801202429094e+00
2.188941801202429094e+00
1.906745689260536558e+00
1.906745689260536558e+00
1.906745689260536558e+00
1.906745689260536558e+00
2.124814844203009478e+00
2.124814844203009478e+00
2.124814844203009478e+00
2.113001983703115982e+00
2.113001983703115982e+00
2.113001983703115982e+00
2.113001983703115982e+00
2.261694021423993561e+00
2.261694021423993561e+00
2.261694021423993561e+00
2.393885555589465142e+00
2.393885555589465142e+00
2.393885555589465142e+00
2.393885555589465142e+00
2.167941160313730187e+00
2.167941160313730187e+00
2.167941160313730187e+00
1.710802209540086105e+00
1.710802209540086105e+00
1.710802209540086105e+00
1.710802209540086105e+00
1.594923673207800485e+00
1.594923673207800485e+00
1.594923673207800485e+00
1.455419415875728761e+00
1.455419415875728761e+00
1.455419415875728761e+00
2.042124820703756782e+00
2.042124820703756782e+00
2.042124820703756782e+00
2.042124820703756782e+00
1.981935483870967740e+00
1.981935483870967740e+00
1.981935483870967740e+00
2.359759514145329362e+00
2.359759514145329362e+00
2.359759514145329362e+00
2.359759514145329362e+00
2.536577410199285953e+00
2.536577410199285953e+00
2.536577410199285953e+00
2.390697958311716054e+00
2.390697958311716054e+00
2.390697958311716054e+00
2.390697958311716054e+00
1.987560655537583543e+00
1.987560655537583543e+00
1.987560655537583543e+00
1.902245551927244094e+00
1.902245551927244094e+00
1.902245551927244094e+00
2.171691274758141166e+00
2.171691274758141166e+00
2.171691274758141166e+00
2.171691274758141166e+00
1.974622760704367153e+00
1.974622760704367153e+00
1.974622760704367153e+00
1.961122348704489093e+00
1.961122348704489093e+00
1.961122348704489093e+00
1.961122348704489093e+00
1.902808069093905319e+00
1.902808069093905319e+00
1.842243720816675312e+00
1.842243720816675312e+00
1.842243720816675312e+00
2.487825922421948999e+00
2.487825922421948999e+00
2.487825922421948999e+00
2.354321848200934042e+00
2.354321848200934042e+00
2.354321848200934042e+00
2.354321848200934042e+00
2.042124820703756782e+00
2.042124820703756782e+00
2.042124820703756782e+00
2.078875942258980203e+00
2.078875942258980203e+00
2.078875942258980203e+00
2.078875942258980203e+00
2.116939603869747000e+00
2.116939603869747000e+00
2.116939603869747000e+00
2.069500656147953865e+00
2.069500656147953865e+00
2.069500656147953865e+00
2.007248756370739073e+00
2.007248756370739073e+00
2.007248756370739073e+00
2.007248756370739073e+00
1.992248298593096711e+00
1.992248298593096711e+00
1.992248298593096711e+00
1.881244911038544965e+00
1.881244911038544965e+00
1.881244911038544965e+00
2.101189123203222930e+00
2.101189123203222930e+00
2.101189123203222930e+00
2.101189123203222930e+00
1.946496902371288140e+00
1.946496902371288140e+00
1.946496902371288140e+00
2.015123996704001108e+00
2.015123996704001108e+00
2.015123996704001108e+00
2.015123996704001108e+00
2.253818781090731527e+00
2.253818781090731527e+00
2.253818781090731527e+00
1.976685323648793124e+00
1.976685323648793124e+00
1.976685323648793124e+00
2.158753379924924776e+00
2.158753379924924776e+00
2.158753379924924776e+00
2.158753379924924776e+00
2.011561387981810611e+00
2.011561387981810611e+00
2.011561387981810611e+00
1.898870448927274301e+00
1.898870448927274301e+00
1.898870448927274301e+00
2.098001525925473842e+00
2.098001525925473842e+00
2.098001525925473842e+00
2.098001525925473842e+00
2.091063814203314664e+00
2.091063814203314664e+00
2.091063814203314664e+00
2.043249855037080120e+00
2.043249855037080120e+00
2.043249855037080120e+00
2.043249855037080120e+00
2.173191320535905025e+00
2.173191320535905025e+00
2.173191320535905025e+00
1.943121799371318792e+00
1.943121799371318792e+00
1.943121799371318792e+00
1.943121799371318792e+00
1.787117038483840403e+00
1.787117038483840403e+00
1.787117038483840403e+00
2.247256080813012868e+00
2.247256080813012868e+00
2.247256080813012868e+00
2.304820337534714714e+00
2.304820337534714714e+00
2.304820337534714714e+00
2.304820337534714714e+00
2.092188848536637558e+00
2.092188848536637558e+00
2.092188848536637558e+00
1.819930539872432806e+00
1.819930539872432806e+00
1.819930539872432806e+00
1.819930539872432806e+00
2.013061433759574914e+00
2.013061433759574914e+00
2.013061433759574914e+00
1.757491134372997310e+00
1.757491134372997310e+00
1.757491134372997310e+00
1.924746238593707082e+00
1.924746238593707082e+00
1.924746238593707082e+00
1.924746238593707082e+00
2.229630542924283532e+00
2.229630542924283532e+00
2.229630542924283532e+00
2.615892330698568635e+00
2.615892330698568635e+00
2.615892330698568635e+00
2.615892330698568635e+00
2.315883175145725836e+00
2.315883175145725836e+00
2.315883175145725836e+00
2.054500198370311725e+00
2.054500198370311725e+00
2.054500198370311725e+00
1.958684774315622379e+00
1.958684774315622379e+00
1.958684774315622379e+00
1.958684774315622379e+00
1.984748069704275641e+00
1.984748069704275641e+00
1.984748069704275641e+00
2.001998596148564236e+00
2.001998596148564236e+00
2.001998596148564236e+00
2.001998596148564236e+00
2.084126102481154597e+00
2.084126102481154597e+00
2.084126102481154597e+00
1.967310037537766565e+00
1.967310037537766565e+00
1.967310037537766565e+00
1.967310037537766565e+00
1.955497177037873513e+00
1.955497177037873513e+00
1.955497177037873513e+00
2.032374523148289480e+00
2.032374523148289480e+00
2.032374523148289480e+00
2.044937406537064906e+00
2.044937406537064906e+00
2.044937406537064906e+00
2.044937406537064906e+00
1.975747795037690491e+00
1.975747795037690491e+00
1.975747795037690491e+00
2.063875484481338063e+00
2.063875484481338063e+00
2.063875484481338063e+00
2.063875484481338063e+00
2.283819696646015807e+00
2.283819696646015807e+00
2.283819696646015807e+00
2.363322122867518971e+00
2.363322122867518971e+00
2.363322122867518971e+00
2.363322122867518971e+00
2.261881527146214044e+00
2.261881527146214044e+00
2.261881527146214044e+00
2.080000976592303541e+00
2.080000976592303541e+00
2.080000976592303541e+00
1.984373058259834677e+00
1.984373058259834677e+00
1.984373058259834677e+00
1.984373058259834677e+00
1.855556627094332889e+00
1.855556627094332889e+00
1.855556627094332889e+00
1.572235480819116793e+00
1.572235480819116793e+00
1.572235480819116793e+00
1.572235480819116793e+00
2.067438093203528116e+00
2.067438093203528116e+00
2.067438093203528116e+00
2.170191228980376863e+00
2.170191228980376863e+00
2.170191228980376863e+00
2.236943266090884119e+00
2.236943266090884119e+00
2.236943266090884119e+00
2.236943266090884119e+00
2.317195715201269657e+00
2.317195715201269657e+00
2.317195715201269657e+00
2.355634388256477418e+00
2.355634388256477418e+00
2.355634388256477418e+00
2.355634388256477418e+00
2.182566606646931362e+00
2.182566606646931362e+00
2.182566606646931362e+00
1.962434888760032914e+00
1.962434888760032914e+00
1.962434888760032914e+00
1.962434888760032914e+00
1.779804315317239816e+00
1.779804315317239816e+00
1.779804315317239816e+00
1.768741477706228693e+00
1.768741477706228693e+00
1.768741477706228693e+00
1.979310403759880321e+00
1.979310403759880321e+00
1.979310403759880321e+00
1.979310403759880321e+00
2.152190679647205673e+00
2.152190679647205673e+00
2.152190679647205673e+00
2.015311502426221590e+00
2.015311502426221590e+00
2.015311502426221590e+00
2.015311502426221590e+00
1.999561021759697299e+00
1.999561021759697299e+00
1.999561021759697299e+00
1.995248390148625317e+00
1.995248390148625317e+00
1.995248390148625317e+00
1.907120700704977745e+00
1.907120700704977745e+00
1.907120700704977745e+00
2.181441572313608468e+00
2.181441572313608468e+00
2.181441572313608468e+00
2.181441572313608468e+00
2.000311044648579006e+00
2.000311044648579006e+00
2.000311044648579006e+00
2.190441846980193397e+00
2.190441846980193397e+00
2.190441846980193397e+00
2.190441846980193397e+00
2.302757774590289408e+00
2.302757774590289408e+00
2.302757774590289408e+00
2.017374065370647340e+00
2.017374065370647340e+00
2.017374065370647340e+00
1.796679830317087445e+00
1.796679830317087445e+00
1.796679830317087445e+00
1.796679830317087445e+00
1.930746421704764071e+00
1.930746421704764071e+00
1.930746421704764071e+00
2.238630817590868904e+00
2.238630817590868904e+00
2.238630817590868904e+00
2.238630817590868904e+00
2.152003173924985191e+00
2.152003173924985191e+00
2.152003173924985191e+00
2.074188299203466812e+00
2.074188299203466812e+00
2.074188299203466812e+00
2.074188299203466812e+00
1.970685140537736135e+00
1.970685140537736135e+00
1.970685140537736135e+00
2.191566881313516735e+00
2.191566881313516735e+00
2.191566881313516735e+00
2.413573656422620228e+00
2.413573656422620228e+00
2.413573656422620228e+00
2.413573656422620228e+00
2.159503402813806705e+00
2.159503402813806705e+00
2.159503402813806705e+00
1.808117679372539532e+00
1.808117679372539532e+00
1.808117679372539532e+00
1.808117679372539532e+00
1.974622760704367153e+00
1.974622760704367153e+00
1.974622760704367153e+00
1.993373332926419828e+00
1.993373332926419828e+00
1.993373332926419828e+00
1.993373332926419828e+00
2.041937314981536300e+00
2.041937314981536300e+00
2.041937314981536300e+00
1.986998138370922096e+00
1.986998138370922096e+00
1.986998138370922096e+00
2.176941434980315559e+00
2.176941434980315559e+00
2.176941434980315559e+00
2.176941434980315559e+00
2.183691640980254700e+00
2.183691640980254700e+00
2.183691640980254700e+00
2.049437543870357370e+00
2.049437543870357370e+00
2.049437543870357370e+00
2.049437543870357370e+00
2.065938047425763813e+00
2.065938047425763813e+00
2.065938047425763813e+00
2.006686239204077182e+00
2.006686239204077182e+00
2.006686239204077182e+00
2.006686239204077182e+00
1.932433973204748634e+00
1.932433973204748634e+00
1.932433973204748634e+00
1.914620929593798593e+00
1.914620929593798593e+00
1.914620929593798593e+00
2.089001251258888470e+00
2.089001251258888470e+00
2.089001251258888470e+00
2.089001251258888470e+00
2.357884456923124095e+00
2.357884456923124095e+00
2.357884456923124095e+00
2.500576311532944906e+00
2.500576311532944906e+00
2.500576311532944906e+00
2.239568346201971760e+00
2.239568346201971760e+00
2.239568346201971760e+00
2.239568346201971760e+00
1.986435621204260427e+00
1.986435621204260427e+00
1.986435621204260427e+00
1.902058046205023389e+00
1.902058046205023389e+00
1.902058046205023389e+00
1.902058046205023389e+00
2.004998687704092397e+00
2.004998687704092397e+00
2.004998687704092397e+00
2.043624866481521085e+00
2.043624866481521085e+00
2.043624866481521085e+00
2.106814294869838289e+00
2.106814294869838289e+00
2.106814294869838289e+00
2.106814294869838289e+00
2.124064821314127105e+00
2.124064821314127105e+00
2.124064821314127105e+00
2.012123905148472502e+00
2.012123905148472502e+00
2.012123905148472502e+00
2.012123905148472502e+00
1.943121799371318792e+00
1.943121799371318792e+00
1.943121799371318792e+00
1.852744041261024766e+00
1.852744041261024766e+00
1.852744041261024766e+00
1.812430310983611736e+00
1.812430310983611736e+00
1.812430310983611736e+00
1.812430310983611736e+00
1.737240516373180332e+00
1.737240516373180332e+00
1.737240516373180332e+00
2.100064088869899592e+00
2.100064088869899592e+00
2.100064088869899592e+00
2.100064088869899592e+00
2.372134891811884305e+00
2.372134891811884305e+00
2.372134891811884305e+00
2.267694204535050773e+00
2.267694204535050773e+00
2.267694204535050773e+00
2.267694204535050773e+00
2.056750267036957958e+00
2.056750267036957958e+00
2.056750267036957958e+00
2.082626056703390294e+00
2.082626056703390294e+00
2.082626056703390294e+00
2.134752647480697263e+00
2.134752647480697263e+00
2.134752647480697263e+00
2.134752647480697263e+00
2.233005645924253102e+00
2.233005645924253102e+00
2.233005645924253102e+00
2.002186101870784718e+00
2.002186101870784718e+00
2.002186101870784718e+00
2.002186101870784718e+00
1.960747337260048351e+00
1.960747337260048351e+00
1.960747337260048351e+00
1.864369396038697557e+00
1.864369396038697557e+00
1.864369396038697557e+00
2.054875209814752690e+00
2.054875209814752690e+00
2.054875209814752690e+00
2.054875209814752690e+00
2.188754295480208611e+00
2.188754295480208611e+00
2.188754295480208611e+00
2.195316995757927270e+00
2.195316995757927270e+00
2.195316995757927270e+00
2.195316995757927270e+00
2.116189580980865070e+00
2.116189580980865070e+00
2.116189580980865070e+00
2.008936307870723859e+00
2.008936307870723859e+00
2.008936307870723859e+00
1.832305917538987305e+00
1.832305917538987305e+00
1.832305917538987305e+00
1.832305917538987305e+00
1.862869350260933254e+00
1.862869350260933254e+00
1.862869350260933254e+00
2.185191686758019003e+00
2.185191686758019003e+00
2.185191686758019003e+00
2.185191686758019003e+00
2.362572099978637485e+00
2.362572099978637485e+00
2.362572099978637485e+00
2.213880062257759462e+00
2.213880062257759462e+00
2.213880062257759462e+00
2.213880062257759462e+00
2.120314706869716570e+00
2.120314706869716570e+00
2.120314706869716570e+00
2.108314340647602592e+00
2.108314340647602592e+00
2.108314340647602592e+00
2.143002899258400262e+00
2.143002899258400262e+00
2.143002899258400262e+00
2.143002899258400262e+00
2.234693197424237443e+00
2.234693197424237443e+00
2.234693197424237443e+00
2.038937223426007694e+00
2.038937223426007694e+00
2.038937223426007694e+00
2.038937223426007694e+00
1.978560380870998392e+00
1.978560380870998392e+00
1.978560380870998392e+00
1.986060609759819240e+00
1.986060609759819240e+00
1.986060609759819240e+00
1.986060609759819240e+00
2.242755943479720404e+00
2.242755943479720404e+00
2.242755943479720404e+00
2.033499557481612818e+00
2.033499557481612818e+00
2.033499557481612818e+00
1.825743217261269091e+00
1.825743217261269091e+00
1.825743217261269091e+00
1.825743217261269091e+00
1.708364635151219391e+00
1.708364635151219391e+00
1.708364635151219391e+00
1.904308114871669622e+00
1.904308114871669622e+00
1.904308114871669622e+00
1.904308114871669622e+00
2.060687887203588975e+00
2.060687887203588975e+00
2.060687887203588975e+00
2.167753654591509704e+00
2.167753654591509704e+00
2.167753654591509704e+00
2.167753654591509704e+00
2.194941984313486305e+00
2.194941984313486305e+00
2.194941984313486305e+00
2.123127292703024249e+00
2.123127292703024249e+00
2.123127292703024249e+00
2.019999145481734981e+00
2.019999145481734981e+00
2.019999145481734981e+00
2.019999145481734981e+00
2.039124729148228621e+00
2.039124729148228621e+00
2.039124729148228621e+00
2.082251045258949329e+00
2.082251045258949329e+00
2.082251045258949329e+00
2.082251045258949329e+00
2.145440473647266977e+00
2.145440473647266977e+00
2.145440473647266977e+00
2.137002716147343495e+00
2.137002716147343495e+00
2.137002716147343495e+00
2.137002716147343495e+00
1.898870448927274301e+00
1.898870448927274301e+00
1.898870448927274301e+00
1.962997405926694583e+00
1.962997405926694583e+00
1.962997405926694583e+00
2.071938230536820580e+00
2.071938230536820580e+00
2.071938230536820580e+00
2.071938230536820580e+00
2.175253883480330774e+00
2.175253883480330774e+00
2.175253883480330774e+00
2.200942167424543072e+00
2.200942167424543072e+00
2.200942167424543072e+00
2.200942167424543072e+00
2.199442121646778769e+00
2.199442121646778769e+00
2.199442121646778769e+00
2.165691091647083955e+00
2.165691091647083955e+00
2.165691091647083955e+00
2.165691091647083955e+00
1.868869533371990022e+00
1.868869533371990022e+00
1.868869533371990022e+00
1.790304635761589491e+00
1.790304635761589491e+00
1.790304635761589491e+00
1.952872096926786094e+00
1.952872096926786094e+00
1.952872096926786094e+00
1.952872096926786094e+00
2.129502487258521981e+00
2.129502487258521981e+00
2.129502487258521981e+00
2.083001068147831703e+00
2.083001068147831703e+00
2.083001068147831703e+00
2.083001068147831703e+00
1.811492782372508881e+00
1.811492782372508881e+00
1.811492782372508881e+00
2.079438459425641650e+00
2.079438459425641650e+00
2.079438459425641650e+00
2.580078737754448071e+00
2.580078737754448071e+00
2.580078737754448071e+00
2.580078737754448071e+00
2.437574388866847741e+00
2.437574388866847741e+00
2.437574388866847741e+00
2.096126468703268575e+00
2.096126468703268575e+00
2.096126468703268575e+00
2.096126468703268575e+00
1.995810907315286764e+00
1.995810907315286764e+00
1.995810907315286764e+00
1.905433149204992960e+00
1.905433149204992960e+00
1.905433149204992960e+00
1.905433149204992960e+00
1.993748344370861014e+00
1.993748344370861014e+00
1.993748344370861014e+00
2.081313516647846917e+00
2.081313516647846917e+00
2.081313516647846917e+00
1.994685872981963648e+00
1.994685872981963648e+00
1.994685872981963648e+00
1.994685872981963648e+00
2.009873836481826270e+00
2.009873836481826270e+00
2.009873836481826270e+00
2.066125553147984295e+00
2.066125553147984295e+00
2.066125553147984295e+00
2.066125553147984295e+00
2.020186651203955464e+00
2.020186651203955464e+00
2.020186651203955464e+00
2.044187383648182976e+00
2.044187383648182976e+00
2.044187383648182976e+00
2.044187383648182976e+00
2.091063814203314664e+00
2.091063814203314664e+00
2.091063814203314664e+00
2.052812646870326940e+00
2.052812646870326940e+00
2.052812646870326940e+00
2.199254615924558287e+00
2.199254615924558287e+00
2.199254615924558287e+00
2.199254615924558287e+00
2.044374889370403459e+00
2.044374889370403459e+00
2.044374889370403459e+00
2.010061342204047197e+00
2.010061342204047197e+00
2.010061342204047197e+00
1.937871639149143954e+00
1.937871639149143954e+00
1.937871639149143954e+00
1.937871639149143954e+00
2.087126194036683202e+00
2.087126194036683202e+00
2.087126194036683202e+00
2.187816766869105756e+00
2.187816766869105756e+00
2.187816766869105756e+00
2.187816766869105756e+00
1.999561021759697299e+00
1.999561021759697299e+00
1.999561021759697299e+00
1.992998321481978863e+00
1.992998321481978863e+00
1.992998321481978863e+00
1.992998321481978863e+00
1.983248023926511561e+00
1.983248023926511561e+00
1.983248023926511561e+00
2.077938413647877791e+00
2.077938413647877791e+00
2.077938413647877791e+00
2.159503402813806705e+00
2.159503402813806705e+00
2.159503402813806705e+00
2.159503402813806705e+00
2.030124454481643248e+00
2.030124454481643248e+00
2.030124454481643248e+00
2.213692556535538980e+00
2.213692556535538980e+00
2.213692556535538980e+00
2.213692556535538980e+00
2.133627613147373925e+00
2.133627613147373925e+00
2.133627613147373925e+00
1.993935850093081497e+00
1.993935850093081497e+00
1.993935850093081497e+00
1.993935850093081497e+00
1.953809625537888728e+00
1.953809625537888728e+00
1.953809625537888728e+00
1.831368388927884894e+00
1.831368388927884894e+00
1.831368388927884894e+00
1.991873287148655747e+00
1.991873287148655747e+00
1.991873287148655747e+00
1.991873287148655747e+00
2.057875301370280852e+00
2.057875301370280852e+00
2.057875301370280852e+00
2.007811273537400520e+00
2.007811273537400520e+00
2.007811273537400520e+00
2.007811273537400520e+00
1.980810449537644624e+00
1.980810449537644624e+00
1.980810449537644624e+00
2.172628803369243577e+00
2.172628803369243577e+00
2.172628803369243577e+00
2.172628803369243577e+00
2.125939878536332373e+00
2.125939878536332373e+00
2.125939878536332373e+00
2.057312784203619849e+00
2.057312784203619849e+00
2.057312784203619849e+00
2.031812005981628033e+00
2.031812005981628033e+00
2.031812005981628033e+00
2.031812005981628033e+00
2.070063173314615312e+00
2.070063173314615312e+00
2.070063173314615312e+00
2.143940427869502674e+00
2.143940427869502674e+00
2.143940427869502674e+00
2.143940427869502674e+00
2.092188848536637558e+00
2.092188848536637558e+00
2.092188848536637558e+00
2.101564134647663895e+00
2.101564134647663895e+00
2.101564134647663895e+00
2.101564134647663895e+00
2.169441206091494490e+00
2.169441206091494490e+00
2.169441206091494490e+00
2.101001617481002448e+00
2.101001617481002448e+00
2.101001617481002448e+00
2.035562120426038124e+00
2.035562120426038124e+00
2.035562120426038124e+00
2.035562120426038124e+00
2.041937314981536300e+00
2.041937314981536300e+00
2.041937314981536300e+00
2.023561754203924590e+00
2.023561754203924590e+00
2.023561754203924590e+00
2.023561754203924590e+00
2.131190038758506766e+00
2.131190038758506766e+00
2.131190038758506766e+00
2.153690725424969976e+00
2.153690725424969976e+00
2.153690725424969976e+00
2.153690725424969976e+00
2.104939237647633021e+00
2.104939237647633021e+00
2.104939237647633021e+00
2.077000885036774935e+00
2.077000885036774935e+00
2.077000885036774935e+00
2.035374614703817642e+00
2.035374614703817642e+00
2.035374614703817642e+00
2.035374614703817642e+00
1.943309305093539274e+00
1.943309305093539274e+00
1.943309305093539274e+00
1.957372234260078780e+00
1.957372234260078780e+00
1.957372234260078780e+00
1.957372234260078780e+00
1.987748161259804025e+00
1.987748161259804025e+00
1.987748161259804025e+00
1.945371868037965024e+00
1.945371868037965024e+00
1.945371868037965024e+00
1.960934842982268833e+00
1.960934842982268833e+00
1.960934842982268833e+00
1.960934842982268833e+00
2.107564317758720662e+00
2.107564317758720662e+00
2.107564317758720662e+00
2.090313791314432290e+00
2.090313791314432290e+00
2.090313791314432290e+00
2.090313791314432290e+00
2.031812005981628033e+00
2.031812005981628033e+00
2.031812005981628033e+00
2.005748710592974771e+00
2.005748710592974771e+00
2.005748710592974771e+00
2.005748710592974771e+00
2.065938047425763813e+00
2.065938047425763813e+00
2.065938047425763813e+00
2.160440931424909561e+00
2.160440931424909561e+00
2.160440931424909561e+00
2.269006744590594149e+00
2.269006744590594149e+00
2.269006744590594149e+00
2.269006744590594149e+00
2.082626056703390294e+00
2.082626056703390294e+00
2.082626056703390294e+00
2.079438459425641650e+00
2.079438459425641650e+00
2.079438459425641650e+00
2.079438459425641650e+00
2.156878322702719064e+00
2.156878322702719064e+00
2.156878322702719064e+00
2.102314157536546269e+00
2.102314157536546269e+00
2.102314157536546269e+00
2.102314157536546269e+00
1.977810357982116241e+00
1.977810357982116241e+00
1.977810357982116241e+00
2.011561387981810611e+00
2.011561387981810611e+00
2.011561387981810611e+00
2.017374065370647340e+00
2.017374065370647340e+00
2.017374065370647340e+00
2.017374065370647340e+00
2.099876583147679110e+00
2.099876583147679110e+00
2.099876583147679110e+00
2.033312051759392336e+00
2.033312051759392336e+00
2.033312051759392336e+00
2.033312051759392336e+00
2.084876125370036970e+00
2.084876125370036970e+00
2.084876125370036970e+00
2.081501022370067400e+00
2.081501022370067400e+00
2.081501022370067400e+00
2.081501022370067400e+00
1.994310861537522683e+00
1.994310861537522683e+00
1.994310861537522683e+00
1.979497909482100804e+00
1.979497909482100804e+00
1.979497909482100804e+00
2.047749992370372585e+00
2.047749992370372585e+00
2.047749992370372585e+00
2.047749992370372585e+00
2.092751365703299449e+00
2.092751365703299449e+00
2.092751365703299449e+00
1.985310586870937088e+00
1.985310586870937088e+00
1.985310586870937088e+00
1.985310586870937088e+00
2.041187292092654371e+00
2.041187292092654371e+00
2.041187292092654371e+00
2.148440565202795582e+00
2.148440565202795582e+00
2.148440565202795582e+00
2.148440565202795582e+00
2.142627887813959298e+00
2.142627887813959298e+00
2.142627887813959298e+00
2.084501113925596005e+00
2.084501113925596005e+00
2.084501113925596005e+00
2.056000244148076028e+00
2.056000244148076028e+00
2.056000244148076028e+00
2.056000244148076028e+00
2.051312601092562637e+00
2.051312601092562637e+00
2.051312601092562637e+00
2.023186742759483625e+00
2.023186742759483625e+00
2.023186742759483625e+00
2.023186742759483625e+00
1.996185918759727951e+00
1.996185918759727951e+00
1.996185918759727951e+00
1.924371227149266117e+00
1.924371227149266117e+00
1.924371227149266117e+00
1.940684224982451855e+00
1.940684224982451855e+00
1.940684224982451855e+00
1.940684224982451855e+00
2.056000244148076028e+00
2.056000244148076028e+00
2.056000244148076028e+00
2.161003448591571008e+00
2.161003448591571008e+00
2.161003448591571008e+00
2.161003448591571008e+00
2.166066103091524919e+00
2.166066103091524919e+00
2.166066103091524919e+00
2.049062532425916405e+00
2.049062532425916405e+00
2.049062532425916405e+00
2.049062532425916405e+00
2.008936307870723859e+00
2.008936307870723859e+00
2.008936307870723859e+00
2.096313974425489057e+00
2.096313974425489057e+00
2.096313974425489057e+00
2.108876857814264483e+00
2.108876857814264483e+00
2.108876857814264483e+00
2.104751731925412539e+00
2.104751731925412539e+00
2.118064638203069894e+00
2.118064638203069894e+00
2.118064638203069894e+00
2.118064638203069894e+00
2.060875392925809457e+00
2.060875392925809457e+00
2.060875392925809457e+00
1.990748252815332409e+00
1.990748252815332409e+00
1.990748252815332409e+00
2.027311868648335125e+00
2.027311868648335125e+00
2.027311868648335125e+00
2.027311868648335125e+00
2.050000061037018817e+00
2.050000061037018817e+00
2.050000061037018817e+00
2.125189855647450443e+00
2.125189855647450443e+00
2.125189855647450443e+00
2.125189855647450443e+00
2.085438642536698417e+00
2.085438642536698417e+00
2.085438642536698417e+00
2.080188482314524023e+00
2.080188482314524023e+00
2.080188482314524023e+00
2.081126010925626435e+00
2.081126010925626435e+00
2.081126010925626435e+00
2.081126010925626435e+00
2.071750724814600098e+00
2.071750724814600098e+00
2.071750724814600098e+00
2.080938505203405953e+00
2.080938505203405953e+00
2.080938505203405953e+00
2.080938505203405953e+00
2.053562669759208870e+00
2.053562669759208870e+00
2.053562669759208870e+00
2.049625049592577852e+00
2.049625049592577852e+00
2.049625049592577852e+00
2.049625049592577852e+00
2.077563402203436382e+00
2.077563402203436382e+00
2.077563402203436382e+00
2.045874935148167761e+00
2.045874935148167761e+00
2.045874935148167761e+00
2.114127018036439321e+00
2.114127018036439321e+00
2.114127018036439321e+00
2.114127018036439321e+00
2.141690359202856442e+00
2.141690359202856442e+00
2.141690359202856442e+00
2.057125278481399366e+00
2.057125278481399366e+00
2.057125278481399366e+00
2.057125278481399366e+00
2.015874019592883037e+00
2.015874019592883037e+00
2.015874019592883037e+00
2.032374523148289480e+00
2.032374523148289480e+00
2.032374523148289480e+00
2.018311593981750196e+00
2.018311593981750196e+00
2.018311593981750196e+00
2.018311593981750196e+00
2.066313058870204777e+00
2.066313058870204777e+00
2.066313058870204777e+00
2.051500106814783120e+00
2.051500106814783120e+00
2.051500106814783120e+00
2.051500106814783120e+00
2.015123996704001108e+00
2.015123996704001108e+00
2.015123996704001108e+00
2.032749534592730889e+00
2.032749534592730889e+00
2.032749534592730889e+00
2.032749534592730889e+00
2.126689901425214746e+00
2.126689901425214746e+00
2.126689901425214746e+00
2.137565233314004942e+00
2.137565233314004942e+00
2.137565233314004942e+00
2.181066560869167059e+00
2.181066560869167059e+00
2.181066560869167059e+00
2.181066560869167059e+00
2.135877681814020157e+00
2.135877681814020157e+00
2.135877681814020157e+00
2.067625598925748598e+00
2.067625598925748598e+00
2.067625598925748598e+00
2.067625598925748598e+00
2.033874568926053783e+00
2.033874568926053783e+00
2.033874568926053783e+00
2.008936307870723859e+00
2.008936307870723859e+00
2.008936307870723859e+00
2.008936307870723859e+00
1.944809350871303355e+00
1.944809350871303355e+00
1.953622119815668245e+00
1.953622119815668245e+00
1.953622119815668245e+00
1.969372600482192537e+00
1.969372600482192537e+00
1.969372600482192537e+00
2.170941251869258792e+00
2.170941251869258792e+00
2.170941251869258792e+00
2.170941251869258792e+00
2.143002899258400262e+00
2.143002899258400262e+00
2.143002899258400262e+00
2.127439924314096675e+00
2.127439924314096675e+00
2.127439924314096675e+00
2.127439924314096675e+00
2.104189214758751536e+00
2.104189214758751536e+00
2.104189214758751536e+00
2.124064821314127105e+00
2.124064821314127105e+00
2.124064821314127105e+00
2.107001800592058771e+00
2.107001800592058771e+00
2.107001800592058771e+00
2.107001800592058771e+00
2.077750907925656865e+00
2.077750907925656865e+00
2.077750907925656865e+00
2.035374614703817642e+00
2.035374614703817642e+00
2.035374614703817642e+00
2.026374340037232713e+00
2.026374340037232713e+00
2.026374340037232713e+00
2.026374340037232713e+00
2.017561571092867823e+00
2.017561571092867823e+00
2.017561571092867823e+00
2.036687154759361462e+00
2.036687154759361462e+00
2.036687154759361462e+00
2.036687154759361462e+00
2.027499374370555607e+00
2.027499374370555607e+00
2.027499374370555607e+00
2.069313150425733383e+00
2.069313150425733383e+00
2.069313150425733383e+00
2.072125736259041062e+00
2.072125736259041062e+00
2.072125736259041062e+00
2.072125736259041062e+00
2.056937772759178884e+00
2.056937772759178884e+00
2.056937772759178884e+00
2.038187200537125765e+00
2.038187200537125765e+00
2.038187200537125765e+00
2.055625232703635064e+00
2.055625232703635064e+00
2.055625232703635064e+00
2.055625232703635064e+00
2.083938596758934114e+00
2.083938596758934114e+00
2.083938596758934114e+00
2.137190221869563977e+00
2.137190221869563977e+00
2.137190221869563977e+00
2.030311960203863730e+00
2.030311960203863730e+00
2.030311960203863730e+00
2.030311960203863730e+00
2.053187658314767905e+00
2.053187658314767905e+00
2.053187658314767905e+00
2.100064088869899592e+00
2.100064088869899592e+00
2.100064088869899592e+00
2.100064088869899592e+00
2.117314615314187964e+00
2.117314615314187964e+00
2.117314615314187964e+00
2.077563402203436382e+00
2.077563402203436382e+00
2.077563402203436382e+00
2.077563402203436382e+00
2.010811365092929126e+00
2.010811365092929126e+00
2.010811365092929126e+00
2.070250679036835795e+00
2.070250679036835795e+00
2.070250679036835795e+00
2.103626697592089645e+00
2.103626697592089645e+00
2.103626697592089645e+00
2.103626697592089645e+00
1.573735526596881096e+00
1.573735526596881096e+00
1.573735526596881096e+00
2.062750450148014725e+00
2.062750450148014725e+00
2.062750450148014725e+00
2.263006561479537382e+00
2.263006561479537382e+00
2.263006561479537382e+00
2.263006561479537382e+00
2.180879055146946577e+00
2.180879055146946577e+00
2.180879055146946577e+00
2.097439008758812395e+00
2.097439008758812395e+00
2.097439008758812395e+00
2.097439008758812395e+00
2.084688619647816488e+00
2.084688619647816488e+00
2.084688619647816488e+00
2.043624866481521085e+00
2.043624866481521085e+00
2.043624866481521085e+00
2.043624866481521085e+00
2.023561754203924590e+00
2.023561754203924590e+00
2.023561754203924590e+00
2.040249763481551515e+00
2.040249763481551515e+00
2.040249763481551515e+00
1.948184453871272925e+00
1.948184453871272925e+00
1.948184453871272925e+00
1.948184453871272925e+00
2.011561387981810611e+00
2.011561387981810611e+00
2.011561387981810611e+00
1.954372142704550397e+00
1.954372142704550397e+00
1.954372142704550397e+00
1.954372142704550397e+00
2.018686605426191161e+00
2.018686605426191161e+00
2.018686605426191161e+00
2.081501022370067400e+00
2.081501022370067400e+00
2.081501022370067400e+00
2.058625324259163225e+00
2.058625324259163225e+00
2.058625324259163225e+00
2.058625324259163225e+00
2.182754112369151844e+00
2.182754112369151844e+00
2.182754112369151844e+00
2.134940153202917745e+00
2.134940153202917745e+00
2.134940153202917745e+00
2.134940153202917745e+00
2.123314798425245176e+00
2.123314798425245176e+00
2.123314798425245176e+00
2.093688894314401416e+00
2.093688894314401416e+00
2.093688894314401416e+00
2.040624774925992480e+00
2.040624774925992480e+00
2.040624774925992480e+00
2.040624774925992480e+00
2.010248847926267679e+00
2.010248847926267679e+00
2.010248847926267679e+00
2.031812005981628033e+00
2.031812005981628033e+00
2.031812005981628033e+00
2.030686971648304695e+00
2.030686971648304695e+00
2.030686971648304695e+00
2.030686971648304695e+00
1.995435895870845799e+00
1.995435895870845799e+00
1.995435895870845799e+00
2.038374706259346247e+00
2.038374706259346247e+00
2.038374706259346247e+00
2.038374706259346247e+00
2.120314706869716570e+00
2.120314706869716570e+00
2.120314706869716570e+00
2.108689352092044000e+00
2.108689352092044000e+00
2.108689352092044000e+00
2.108689352092044000e+00
2.086188665425580790e+00
2.086188665425580790e+00
2.086188665425580790e+00
2.061812921536912313e+00
2.061812921536912313e+00
2.061812921536912313e+00
2.086188665425580790e+00
2.086188665425580790e+00
2.086188665425580790e+00
2.086188665425580790e+00
2.024686788537247928e+00
2.024686788537247928e+00
2.024686788537247928e+00
2.037249671926022909e+00
2.037249671926022909e+00
2.037249671926022909e+00
2.037249671926022909e+00
2.020936674092837393e+00
2.020936674092837393e+00
2.020936674092837393e+00
2.010436353648488161e+00
2.010436353648488161e+00
2.010436353648488161e+00
2.005936216315195253e+00
2.005936216315195253e+00
2.005936216315195253e+00
2.005936216315195253e+00
2.039499740592669585e+00
2.039499740592669585e+00
2.039499740592669585e+00
2.045874935148167761e+00
2.045874935148167761e+00
2.045874935148167761e+00
2.045874935148167761e+00
2.072500747703482027e+00
2.072500747703482027e+00
2.072500747703482027e+00
2.115064546647541732e+00
2.115064546647541732e+00
2.115064546647541732e+00
2.115064546647541732e+00
2.128564958647419569e+00
2.128564958647419569e+00
2.128564958647419569e+00
2.130252510147404355e+00
2.130252510147404355e+00
2.130252510147404355e+00
2.098189031647694325e+00
2.098189031647694325e+00
2.098189031647694325e+00
2.098189031647694325e+00
2.062000427259132795e+00
2.062000427259132795e+00
2.062000427259132795e+00
2.063125461592455689e+00
2.063125461592455689e+00
2.063125461592455689e+00
2.063125461592455689e+00
2.038374706259346247e+00
2.038374706259346247e+00
2.038374706259346247e+00
2.020936674092837393e+00
2.020936674092837393e+00
2.020936674092837393e+00
2.020936674092837393e+00
2.031624500259407551e+00
2.031624500259407551e+00
2.031624500259407551e+00
2.055437726981414581e+00
2.055437726981414581e+00
2.055437726981414581e+00
2.050375072481459782e+00
2.050375072481459782e+00
2.050375072481459782e+00
2.050375072481459782e+00
2.086563676870021755e+00
2.086563676870021755e+00
2.086563676870021755e+00
2.084688619647816488e+00
2.084688619647816488e+00
2.084688619647816488e+00
2.084688619647816488e+00
2.072125736259041062e+00
2.072125736259041062e+00
2.072125736259041062e+00
2.074750816370128703e+00
2.074750816370128703e+00
2.074750816370128703e+00
2.059187841425824672e+00
2.059187841425824672e+00
2.059187841425824672e+00
2.059187841425824672e+00
2.032937040314951371e+00
2.032937040314951371e+00
2.032937040314951371e+00
2.035187108981597159e+00
2.035187108981597159e+00
2.035187108981597159e+00
2.035187108981597159e+00
2.036874660481581945e+00
2.036874660481581945e+00
2.036874660481581945e+00
2.029936948759422766e+00
2.029936948759422766e+00
2.029936948759422766e+00
2.029936948759422766e+00
2.040249763481551515e+00
2.040249763481551515e+00
2.040249763481551515e+00
2.031436994537187068e+00
2.031436994537187068e+00
2.031436994537187068e+00
2.039124729148228621e+00
2.039124729148228621e+00
2.039124729148228621e+00
2.039124729148228621e+00
2.039874752037110550e+00
2.039874752037110550e+00
2.039874752037110550e+00
2.078500930814539238e+00
2.078500930814539238e+00
2.078500930814539238e+00
2.078500930814539238e+00
2.127627430036317158e+00
2.127627430036317158e+00
2.127627430036317158e+00
2.092938871425519931e+00
2.092938871425519931e+00
2.092938871425519931e+00
2.092938871425519931e+00
2.050937589648121673e+00
2.050937589648121673e+00
2.050937589648121673e+00
2.055625232703635064e+00
2.055625232703635064e+00
2.055625232703635064e+00
2.055625232703635064e+00
2.042312326425977265e+00
2.042312326425977265e+00
2.042312326425977265e+00
1.984373058259834677e+00
1.984373058259834677e+00
1.984373058259834677e+00
1.964309945982238181e+00
1.964309945982238181e+00
1.964309945982238181e+00
1.964309945982238181e+00
2.022999237037263143e+00
2.022999237037263143e+00
2.022999237037263143e+00
2.064438001647999510e+00
2.064438001647999510e+00
2.064438001647999510e+00
2.064438001647999510e+00
2.077938413647877791e+00
2.077938413647877791e+00
2.077938413647877791e+00
2.065938047425763813e+00
2.065938047425763813e+00
2.065938047425763813e+00
2.065938047425763813e+00
2.031249488814966586e+00
2.031249488814966586e+00
2.031249488814966586e+00
2.080375988036744506e+00
2.080375988036744506e+00
2.080375988036744506e+00
2.098189031647694325e+00
2.098189031647694325e+00
2.098189031647694325e+00
2.098189031647694325e+00
2.084313608203375079e+00
2.084313608203375079e+00
2.084313608203375079e+00
2.078500930814539238e+00
2.078500930814539238e+00
2.078500930814539238e+00
2.078500930814539238e+00
2.053000152592547423e+00
2.053000152592547423e+00
2.053000152592547423e+00
2.030124454481643248e+00
2.030124454481643248e+00
2.030124454481643248e+00
2.065000518814661401e+00
2.065000518814661401e+00
2.065000518814661401e+00
2.065000518814661401e+00
2.071938230536820580e+00
2.071938230536820580e+00
2.071938230536820580e+00
2.077750907925656865e+00
2.077750907925656865e+00
2.077750907925656865e+00
2.077750907925656865e+00
2.070625690481276759e+00
2.070625690481276759e+00
2.070625690481276759e+00
2.070813196203497242e+00
2.070813196203497242e+00
2.070813196203497242e+00
2.070813196203497242e+00
2.059562852870265637e+00
2.059562852870265637e+00
2.059562852870265637e+00
2.043437360759300603e+00
2.043437360759300603e+00
2.043437360759300603e+00
2.061625415814691387e+00
2.061625415814691387e+00
2.061625415814691387e+00
2.061625415814691387e+00
2.056375255592516993e+00
2.056375255592516993e+00
2.056375255592516993e+00
2.056000244148076028e+00
2.056000244148076028e+00
2.056000244148076028e+00
2.056000244148076028e+00
2.064250495925779028e+00
2.064250495925779028e+00
2.064250495925779028e+00
2.067063081759087151e+00
2.067063081759087151e+00
2.067063081759087151e+00
2.067063081759087151e+00
2.082438550981169811e+00
2.082438550981169811e+00
2.082438550981169811e+00
2.050375072481459782e+00
2.050375072481459782e+00
2.050375072481459782e+00
2.028061891537217498e+00
2.028061891537217498e+00
2.028061891537217498e+00
2.028061891537217498e+00
2.008561296426282894e+00
2.008561296426282894e+00
2.008561296426282894e+00
2.005936216315195253e+00
2.005936216315195253e+00
2.005936216315195253e+00
2.005936216315195253e+00
2.083001068147831703e+00
2.083001068147831703e+00
2.083001068147831703e+00
2.071750724814600098e+00
2.071750724814600098e+00
2.071750724814600098e+00
2.025624317148350340e+00
2.025624317148350340e+00
2.025624317148350340e+00
2.025624317148350340e+00
2.044562395092623941e+00
2.044562395092623941e+00
2.044562395092623941e+00
2.058250312814721816e+00
2.058250312814721816e+00
2.058250312814721816e+00
2.084126102481154597e+00
2.084126102481154597e+00
2.084126102481154597e+00
2.084126102481154597e+00
2.085626148258918899e+00
2.085626148258918899e+00
2.085626148258918899e+00
2.067625598925748598e+00
2.067625598925748598e+00
2.067625598925748598e+00
2.067625598925748598e+00
2.047937498092593067e+00
2.047937498092593067e+00
2.047937498092593067e+00
2.042499832148198191e+00
2.042499832148198191e+00
2.042499832148198191e+00
2.042499832148198191e+00
2.092188848536637558e+00
2.092188848536637558e+00
2.092188848536637558e+00
2.062375438703573760e+00
2.062375438703573760e+00
2.062375438703573760e+00
2.037999694814905283e+00
2.037999694814905283e+00
2.037999694814905283e+00
2.037999694814905283e+00
2.069313150425733383e+00
2.069313150425733383e+00
2.069313150425733383e+00
2.051125095370342155e+00
2.051125095370342155e+00
2.051125095370342155e+00
2.051125095370342155e+00
2.021686696981719766e+00
2.021686696981719766e+00
2.021686696981719766e+00
2.038562211981566730e+00
2.038562211981566730e+00
2.038562211981566730e+00
2.056562761314737475e+00
2.056562761314737475e+00
2.056562761314737475e+00
2.056562761314737475e+00
2.088251228370006540e+00
2.088251228370006540e+00
2.088251228370006540e+00
2.054500198370311725e+00
2.054500198370311725e+00
2.054500198370311725e+00
2.054500198370311725e+00
2.076813379314554453e+00
2.076813379314554453e+00
2.076813379314554453e+00
2.096876491592150504e+00
2.096876491592150504e+00
2.096876491592150504e+00
2.096876491592150504e+00
2.069875667592394830e+00
2.069875667592394830e+00
2.069875667592394830e+00
2.071375713370158689e+00
2.071375713370158689e+00
2.071375713370158689e+00
2.070625690481276759e+00
2.070625690481276759e+00
2.070625690481276759e+00
2.070625690481276759e+00
2.049437543870357370e+00
2.049437543870357370e+00
2.049437543870357370e+00
2.053000152592547423e+00
2.053000152592547423e+00
2.053000152592547423e+00
2.053000152592547423e+00
2.037249671926022909e+00
2.037249671926022909e+00
2.037249671926022909e+00
2.006873744926298109e+00
2.006873744926298109e+00
2.006873744926298109e+00
2.053187658314767905e+00
2.053187658314767905e+00
2.053187658314767905e+00
2.053187658314767905e+00
2.043812372203741567e+00
2.043812372203741567e+00
2.043812372203741567e+00
1.997498458815271549e+00
1.997498458815271549e+00
1.997498458815271549e+00
1.997498458815271549e+00
2.040437269203771997e+00
2.040437269203771997e+00
2.040437269203771997e+00
2.064438001647999510e+00
2.064438001647999510e+00
2.064438001647999510e+00
2.064438001647999510e+00
2.098001525925473842e+00
2.098001525925473842e+00
2.098001525925473842e+00
2.092376354258858040e+00
2.092376354258858040e+00
2.092376354258858040e+00
2.004811181981871915e+00
2.004811181981871915e+00
2.004811181981871915e+00
2.004811181981871915e+00
2.036874660481581945e+00
2.036874660481581945e+00
2.036874660481581945e+00
2.062187932981353278e+00
2.062187932981353278e+00
2.062187932981353278e+00
2.062187932981353278e+00
2.063687978759117581e+00
2.063687978759117581e+00
2.063687978759117581e+00
2.088626239814447505e+00
2.088626239814447505e+00
2.088626239814447505e+00
2.088626239814447505e+00
2.064438001647999510e+00
2.064438001647999510e+00
2.064438001647999510e+00
2.050562578203680708e+00
2.050562578203680708e+00
2.050562578203680708e+00
2.077375896481215900e+00
2.077375896481215900e+00
2.077375896481215900e+00
2.077375896481215900e+00
2.074563310647907777e+00
2.074563310647907777e+00
2.074563310647907777e+00
2.050187566759239299e+00
2.050187566759239299e+00
2.050187566759239299e+00
2.050187566759239299e+00
2.039312234870449103e+00
2.039312234870449103e+00
2.039312234870449103e+00
2.052625141148106458e+00
2.052625141148106458e+00
2.052625141148106458e+00
2.067813104647969080e+00
2.067813104647969080e+00
2.067813104647969080e+00
2.067813104647969080e+00
2.070813196203497242e+00
2.070813196203497242e+00
2.070813196203497242e+00
2.076250862147892562e+00
2.076250862147892562e+00
2.076250862147892562e+00
2.076250862147892562e+00
2.042312326425977265e+00
2.042312326425977265e+00
2.042312326425977265e+00
2.007061250648518591e+00
2.007061250648518591e+00
2.007061250648518591e+00
2.016624042481765411e+00
2.016624042481765411e+00
2.016624042481765411e+00
2.016624042481765411e+00
2.023186742759483625e+00
2.023186742759483625e+00
2.023186742759483625e+00
2.038562211981566730e+00
2.038562211981566730e+00
2.038562211981566730e+00
2.038562211981566730e+00
2.063312967314676172e+00
2.063312967314676172e+00
2.063312967314676172e+00
2.109814386425366894e+00
2.109814386425366894e+00
2.109814386425366894e+00
2.109814386425366894e+00
2.084313608203375079e+00
2.084313608203375079e+00
2.084313608203375079e+00
2.112439466536454535e+00
2.112439466536454535e+00
2.112439466536454535e+00
2.110939420758690233e+00
2.110939420758690233e+00
2.110939420758690233e+00
2.110939420758690233e+00
2.056562761314737475e+00
2.056562761314737475e+00
2.056562761314737475e+00
2.031061983092746104e+00
2.031061983092746104e+00
2.031061983092746104e+00
2.031061983092746104e+00
2.045874935148167761e+00
2.045874935148167761e+00
2.045874935148167761e+00
2.072313241981261545e+00
2.072313241981261545e+00
2.072313241981261545e+00
2.072313241981261545e+00
2.064625507370219992e+00
2.064625507370219992e+00
2.064625507370219992e+00
2.050750083925901190e+00
2.050750083925901190e+00
2.050750083925901190e+00
2.047562486648152102e+00
2.047562486648152102e+00
2.047562486648152102e+00
2.047562486648152102e+00
2.051125095370342155e+00
2.051125095370342155e+00
2.051125095370342155e+00
2.071188207647938206e+00
2.071188207647938206e+00
2.071188207647938206e+00
2.071188207647938206e+00
2.071000701925717724e+00
2.071000701925717724e+00
2.071000701925717724e+00
2.032749534592730889e+00
2.032749534592730889e+00
2.032749534592730889e+00
2.032749534592730889e+00
2.033687063203833301e+00
2.033687063203833301e+00
2.033687063203833301e+00
2.038937223426007694e+00
2.038937223426007694e+00
2.038937223426007694e+00
2.047562486648152102e+00
2.047562486648152102e+00
2.047562486648152102e+00
2.047562486648152102e+00
2.076250862147892562e+00
2.076250862147892562e+00
2.076250862147892562e+00
2.065000518814661401e+00
2.065000518814661401e+00
2.065000518814661401e+00
2.065000518814661401e+00
2.049625049592577852e+00
2.049625049592577852e+00
2.049625049592577852e+00
2.063875484481338063e+00
2.063875484481338063e+00
2.063875484481338063e+00
2.050187566759239299e+00
2.050187566759239299e+00
2.050187566759239299e+00
2.050187566759239299e+00
2.026749351481673678e+00
2.026749351481673678e+00
2.026749351481673678e+00
2.055812738425855546e+00
2.055812738425855546e+00
2.055812738425855546e+00
2.055812738425855546e+00
2.063687978759117581e+00
2.063687978759117581e+00
2.063687978759117581e+00
2.057687795648060813e+00
2.057687795648060813e+00
2.057687795648060813e+00
2.057687795648060813e+00
2.029561937314981801e+00
2.029561937314981801e+00
2.029561937314981801e+00
2.042312326425977265e+00
2.042312326425977265e+00
2.042312326425977265e+00
2.078313425092318756e+00
2.078313425092318756e+00
2.136627704702902530e+00
2.136627704702902530e+00
2.136627704702902530e+00
2.119752189703054679e+00
2.119752189703054679e+00
2.119752189703054679e+00
2.119752189703054679e+00
2.090501297036652772e+00
2.090501297036652772e+00
2.090501297036652772e+00
2.078125919370098273e+00
2.078125919370098273e+00
2.078125919370098273e+00
2.078125919370098273e+00
2.061625415814691387e+00
2.061625415814691387e+00
2.061625415814691387e+00
2.063125461592455689e+00
2.063125461592455689e+00
2.063125461592455689e+00
2.044937406537064906e+00
2.044937406537064906e+00
2.044937406537064906e+00
2.044937406537064906e+00
2.059750358592486119e+00
2.059750358592486119e+00
2.059750358592486119e+00
2.072875759147922992e+00
2.072875759147922992e+00
2.072875759147922992e+00
2.072875759147922992e+00
2.063875484481338063e+00
2.063875484481338063e+00
2.063875484481338063e+00
2.027124362926114642e+00
2.027124362926114642e+00
2.027124362926114642e+00
2.032374523148289480e+00
2.032374523148289480e+00
2.032374523148289480e+00
2.032374523148289480e+00
2.032374523148289480e+00
2.032374523148289480e+00
2.032374523148289480e+00
2.051312601092562637e+00
2.051312601092562637e+00
2.051312601092562637e+00
2.051312601092562637e+00
2.083376079592272667e+00
2.083376079592272667e+00
2.083376079592272667e+00
2.089188756981108952e+00
2.089188756981108952e+00
2.089188756981108952e+00
2.089188756981108952e+00
2.066688070314646186e+00
2.066688070314646186e+00
2.066688070314646186e+00
2.047562486648152102e+00
2.047562486648152102e+00
2.047562486648152102e+00
2.059750358592486119e+00
2.059750358592486119e+00
2.059750358592486119e+00
2.059750358592486119e+00
2.091813837092196593e+00
2.091813837092196593e+00
2.091813837092196593e+00
2.102126651814325342e+00
2.102126651814325342e+00
2.102126651814325342e+00
2.102126651814325342e+00
2.074938322092349186e+00
2.074938322092349186e+00
2.074938322092349186e+00
2.045687429425947279e+00
2.045687429425947279e+00
2.045687429425947279e+00
2.045687429425947279e+00
2.060875392925809457e+00
2.060875392925809457e+00
2.060875392925809457e+00
2.030124454481643248e+00
2.030124454481643248e+00
2.030124454481643248e+00
2.040624774925992480e+00
2.040624774925992480e+00
2.040624774925992480e+00
2.040624774925992480e+00
2.026936857203894160e+00
2.026936857203894160e+00
2.026936857203894160e+00
2.018874111148411643e+00
2.018874111148411643e+00
2.018874111148411643e+00
2.018874111148411643e+00
2.065938047425763813e+00
2.065938047425763813e+00
2.065938047425763813e+00
2.079250953703421168e+00
2.079250953703421168e+00
2.079250953703421168e+00
2.079250953703421168e+00
2.095188940092165719e+00
2.095188940092165719e+00
2.095188940092165719e+00
2.106626789147617806e+00
2.106626789147617806e+00
2.106626789147617806e+00
2.085251136814477935e+00
2.085251136814477935e+00
2.085251136814477935e+00
2.085251136814477935e+00
2.073063264870143918e+00
2.073063264870143918e+00
2.071000701925717724e+00
2.071000701925717724e+00
2.071000701925717724e+00
2.054687704092532208e+00
2.054687704092532208e+00
2.054687704092532208e+00
2.054687704092532208e+00
2.042124820703756782e+00
2.042124820703756782e+00
2.042124820703756782e+00
2.049062532425916405e+00
2.049062532425916405e+00
2.049062532425916405e+00
2.079250953703421168e+00
2.079250953703421168e+00
2.079250953703421168e+00
2.079250953703421168e+00
2.075500839259010633e+00
2.075500839259010633e+00
2.075500839259010633e+00
2.052812646870326940e+00
2.052812646870326940e+00
2.052812646870326940e+00
2.046249946592608282e+00
2.046249946592608282e+00
2.046249946592608282e+00
2.046249946592608282e+00
2.053937681203650278e+00
2.053937681203650278e+00
2.053937681203650278e+00
2.066125553147984295e+00
2.066125553147984295e+00
2.066125553147984295e+00
2.066125553147984295e+00
2.038937223426007694e+00
2.038937223426007694e+00
2.038937223426007694e+00
2.070813196203497242e+00
2.070813196203497242e+00
2.070813196203497242e+00
2.063500473036897098e+00
2.063500473036897098e+00
2.063500473036897098e+00
2.063500473036897098e+00
2.060312875759148010e+00
2.060312875759148010e+00
2.060312875759148010e+00
2.077938413647877791e+00
2.077938413647877791e+00
2.077938413647877791e+00
2.077938413647877791e+00
2.082063539536728847e+00
2.082063539536728847e+00
2.082063539536728847e+00
2.018499099703970678e+00
2.018499099703970678e+00
2.018499099703970678e+00
1.918183538315988645e+00
1.918183538315988645e+00
1.918183538315988645e+00
1.918183538315988645e+00
2.070625690481276759e+00
2.070625690481276759e+00
2.070625690481276759e+00
2.095001434369945237e+00
2.095001434369945237e+00
2.095001434369945237e+00
2.095001434369945237e+00
2.067438093203528116e+00
2.067438093203528116e+00
2.067438093203528116e+00
2.031999511703848516e+00
2.031999511703848516e+00
2.031999511703848516e+00
2.031999511703848516e+00
2.068000610370189563e+00
2.068000610370189563e+00
2.068000610370189563e+00
2.089001251258888470e+00
2.089001251258888470e+00
2.089001251258888470e+00
2.095938962981048093e+00
2.095938962981048093e+00
2.095938962981048093e+00
2.095938962981048093e+00
2.097439008758812395e+00
2.097439008758812395e+00
2.097439008758812395e+00
2.100251594592120075e+00
2.100251594592120075e+00
2.100251594592120075e+00
2.100251594592120075e+00
2.059562852870265637e+00
2.059562852870265637e+00
2.059562852870265637e+00
2.043812372203741567e+00
2.043812372203741567e+00
2.043812372203741567e+00
2.043812372203741567e+00
2.074375804925687294e+00
2.074375804925687294e+00
2.074375804925687294e+00
2.073625782036805365e+00
2.073625782036805365e+00
2.073625782036805365e+00
2.065188024536881883e+00
2.065188024536881883e+00
2.065188024536881883e+00
2.065188024536881883e+00
2.059187841425824672e+00
2.059187841425824672e+00
2.059187841425824672e+00
2.064625507370219992e+00
2.064625507370219992e+00
2.064625507370219992e+00
2.064625507370219992e+00
2.033124546037171854e+00
2.033124546037171854e+00
2.033124546037171854e+00
2.046999969481490211e+00
2.046999969481490211e+00
2.046999969481490211e+00
2.066875576036866669e+00
2.066875576036866669e+00
2.066875576036866669e+00
2.066875576036866669e+00
2.066688070314646186e+00
2.066688070314646186e+00
2.066688070314646186e+00
2.061437910092470904e+00
2.061437910092470904e+00
2.061437910092470904e+00
2.061437910092470904e+00
2.063312967314676172e+00
2.063312967314676172e+00
2.063312967314676172e+00
2.060500381481368493e+00
2.060500381481368493e+00
2.060500381481368493e+00
2.060500381481368493e+00
2.051687612537003602e+00
2.051687612537003602e+00
2.051687612537003602e+00
2.055625232703635064e+00
2.055625232703635064e+00
2.055625232703635064e+00
2.083001068147831703e+00
2.083001068147831703e+00
2.083001068147831703e+00
2.083001068147831703e+00
2.072500747703482027e+00
2.072500747703482027e+00
2.072500747703482027e+00
2.041937314981536300e+00
2.041937314981536300e+00
2.041937314981536300e+00
2.041937314981536300e+00
2.038937223426007694e+00
2.038937223426007694e+00
2.038937223426007694e+00
2.022249214148381213e+00
2.022249214148381213e+00
2.022249214148381213e+00
2.022811731315042216e+00
2.022811731315042216e+00
2.022811731315042216e+00
2.022811731315042216e+00
2.045124912259285388e+00
2.045124912259285388e+00
2.045124912259285388e+00
2.075500839259010633e+00
2.075500839259010633e+00
2.075500839259010633e+00
2.075500839259010633e+00
2.096876491592150504e+00
2.096876491592150504e+00
2.096876491592150504e+00
2.081501022370067400e+00
2.081501022370067400e+00
2.081501022370067400e+00
2.038937223426007694e+00
2.038937223426007694e+00
2.038937223426007694e+00
2.038937223426007694e+00
2.083001068147831703e+00
2.083001068147831703e+00
2.083001068147831703e+00
2.143002899258400262e+00
2.143002899258400262e+00
2.143002899258400262e+00
2.143002899258400262e+00
2.108314340647602592e+00
2.108314340647602592e+00
2.108314340647602592e+00
2.075125827814569668e+00
2.075125827814569668e+00
2.075125827814569668e+00
2.075125827814569668e+00
2.032562028870509963e+00
2.032562028870509963e+00
2.032562028870509963e+00
2.027686880092776089e+00
2.027686880092776089e+00
2.027686880092776089e+00
1.913120883816034512e+00
1.913120883816034512e+00
1.913120883816034512e+00
2.095376445814386202e+00
2.095376445814386202e+00
2.095376445814386202e+00
2.095376445814386202e+00
2.067063081759087151e+00
2.067063081759087151e+00
2.067063081759087151e+00
2.046999969481490211e+00
2.046999969481490211e+00
2.046999969481490211e+00
2.046999969481490211e+00
2.128377452925199087e+00
2.128377452925199087e+00
2.128377452925199087e+00
2.139252784813989727e+00
2.139252784813989727e+00
2.139252784813989727e+00
2.098189031647694325e+00
2.098189031647694325e+00
2.098189031647694325e+00
2.098189031647694325e+00
2.069125644703512901e+00
2.069125644703512901e+00
2.069125644703512901e+00
2.057125278481399366e+00
2.057125278481399366e+00
2.057125278481399366e+00
2.057125278481399366e+00
2.025624317148350340e+00
2.025624317148350340e+00
2.025624317148350340e+00
2.054125186925870761e+00
2.054125186925870761e+00
2.054125186925870761e+00
2.054125186925870761e+00
2.056750267036957958e+00
2.056750267036957958e+00
2.056750267036957958e+00
2.027124362926114642e+00
2.027124362926114642e+00
2.027124362926114642e+00
2.062750450148014725e+00
2.062750450148014725e+00
2.062750450148014725e+00
2.062750450148014725e+00
2.039687246314890068e+00
2.039687246314890068e+00
2.039687246314890068e+00
2.029374431592760875e+00
2.029374431592760875e+00
2.029374431592760875e+00
2.029374431592760875e+00
2.049062532425916405e+00
2.049062532425916405e+00
2.049062532425916405e+00
2.070813196203497242e+00
2.070813196203497242e+00
2.070813196203497242e+00
2.055437726981414581e+00
2.055437726981414581e+00
2.055437726981414581e+00
2.055437726981414581e+00
2.068000610370189563e+00
2.068000610370189563e+00
2.068000610370189563e+00
2.076813379314554453e+00
2.076813379314554453e+00
2.076813379314554453e+00
2.076813379314554453e+00
2.077938413647877791e+00
2.077938413647877791e+00
2.077938413647877791e+00
2.063687978759117581e+00
2.063687978759117581e+00
2.063687978759117581e+00
2.063687978759117581e+00
2.043249855037080120e+00
2.043249855037080120e+00
2.043249855037080120e+00
2.058625324259163225e+00
2.058625324259163225e+00
2.058625324259163225e+00
2.077750907925656865e+00
2.077750907925656865e+00
2.077750907925656865e+00
2.077750907925656865e+00
2.087313699758903685e+00
2.087313699758903685e+00
2.087313699758903685e+00
2.065188024536881883e+00
2.065188024536881883e+00
2.065188024536881883e+00
2.065188024536881883e+00
2.041937314981536300e+00
2.041937314981536300e+00
2.041937314981536300e+00
1.988123172704245212e+00
1.988123172704245212e+00
1.988123172704245212e+00
2.007436262092959556e+00
2.007436262092959556e+00
2.007436262092959556e+00
2.007436262092959556e+00
2.046062440870388244e+00
2.046062440870388244e+00
2.046062440870388244e+00
2.010998870815149164e+00
2.010998870815149164e+00
2.010998870815149164e+00
2.010998870815149164e+00
2.059000335703604190e+00
2.059000335703604190e+00
2.059000335703604190e+00
2.143565416425061709e+00
2.143565416425061709e+00
2.143565416425061709e+00
2.157440839869380955e+00
2.157440839869380955e+00
2.157440839869380955e+00
2.157440839869380955e+00
2.103251686147648680e+00
2.103251686147648680e+00
2.103251686147648680e+00
2.061625415814691387e+00
2.061625415814691387e+00
2.061625415814691387e+00
2.061625415814691387e+00
2.056375255592516993e+00
2.056375255592516993e+00
2.056375255592516993e+00
2.058062807092501334e+00
2.058062807092501334e+00
2.058062807092501334e+00
2.058062807092501334e+00
2.060687887203588975e+00
2.060687887203588975e+00
2.060687887203588975e+00
2.064062990203558545e+00
2.064062990203558545e+00
2.064062990203558545e+00
2.055250221259193655e+00
2.055250221259193655e+00
2.055250221259193655e+00
2.055250221259193655e+00
2.031249488814966586e+00
2.031249488814966586e+00
2.031249488814966586e+00
2.029561937314981801e+00
2.029561937314981801e+00
2.029561937314981801e+00
2.029561937314981801e+00
2.052250129703665493e+00
2.052250129703665493e+00
2.052250129703665493e+00
2.040624774925992480e+00
2.040624774925992480e+00
2.040624774925992480e+00
2.044749900814844423e+00
2.044749900814844423e+00
2.044749900814844423e+00
2.044749900814844423e+00
2.058437818536942299e+00
2.058437818536942299e+00
2.058437818536942299e+00
2.052437635425885976e+00
2.052437635425885976e+00
2.052437635425885976e+00
2.052437635425885976e+00
2.056187749870296511e+00
2.056187749870296511e+00
2.056187749870296511e+00
2.032749534592730889e+00
2.032749534592730889e+00
2.032749534592730889e+00
2.032749534592730889e+00
2.023936765648365554e+00
2.023936765648365554e+00
2.023936765648365554e+00
2.064813013092440475e+00
2.064813013092440475e+00
2.064813013092440475e+00
2.091626331369976111e+00
2.091626331369976111e+00
2.091626331369976111e+00
2.091626331369976111e+00
2.063687978759117581e+00
2.063687978759117581e+00
2.063687978759117581e+00
2.044187383648182976e+00
2.044187383648182976e+00
2.044187383648182976e+00
2.044187383648182976e+00
2.061250404370250422e+00
2.061250404370250422e+00
2.061250404370250422e+00
2.030311960203863730e+00
2.030311960203863730e+00
2.030311960203863730e+00
2.030311960203863730e+00
2.003686147648549021e+00
2.003686147648549021e+00
2.003686147648549021e+00
2.030124454481643248e+00
2.030124454481643248e+00
2.030124454481643248e+00
2.038374706259346247e+00
2.038374706259346247e+00
2.038374706259346247e+00
2.038374706259346247e+00
2.047562486648152102e+00
2.047562486648152102e+00
2.047562486648152102e+00
2.033687063203833301e+00
2.033687063203833301e+00
2.033687063203833301e+00
2.033687063203833301e+00
2.080000976592303541e+00
2.080000976592303541e+00
2.080000976592303541e+00
2.134002624591814889e+00
2.134002624591814889e+00
2.134002624591814889e+00
2.134002624591814889e+00
2.096876491592150504e+00
2.096876491592150504e+00
2.096876491592150504e+00
2.102689168980987233e+00
2.102689168980987233e+00
2.102689168980987233e+00
2.072500747703482027e+00
2.072500747703482027e+00
2.072500747703482027e+00
2.072500747703482027e+00
2.055625232703635064e+00
2.055625232703635064e+00
2.055625232703635064e+00
2.035937131870479533e+00
2.035937131870479533e+00
2.035937131870479533e+00
1.968622577593310385e+00
1.968622577593310385e+00
1.968622577593310385e+00
1.968622577593310385e+00
2.030686971648304695e+00
2.030686971648304695e+00
2.030686971648304695e+00
2.100814111758781966e+00
2.100814111758781966e+00
2.100814111758781966e+00
2.100814111758781966e+00
2.068563127536851454e+00
2.068563127536851454e+00
2.068563127536851454e+00
2.012498916592913467e+00
2.012498916592913467e+00
2.012498916592913467e+00
2.002373607593005200e+00
2.002373607593005200e+00
2.002373607593005200e+00
2.002373607593005200e+00
1.992060792870876229e+00
1.992060792870876229e+00
1.992060792870876229e+00
2.040624774925992480e+00
2.040624774925992480e+00
2.040624774925992480e+00
2.040624774925992480e+00
2.090126285592211808e+00
2.090126285592211808e+00
2.090126285592211808e+00
2.123314798425245176e+00
2.123314798425245176e+00
2.123314798425245176e+00
2.123314798425245176e+00
2.105689260536515395e+00
2.105689260536515395e+00
2.105689260536515395e+00
2.077563402203436382e+00
2.077563402203436382e+00
2.077563402203436382e+00
2.031061983092746104e+00
2.031061983092746104e+00
2.031061983092746104e+00
2.031061983092746104e+00
2.034812097537156195e+00
2.034812097537156195e+00
2.034812097537156195e+00
2.029374431592760875e+00
2.029374431592760875e+00
2.029374431592760875e+00
2.029374431592760875e+00
2.033874568926053783e+00
2.033874568926053783e+00
2.033874568926053783e+00
2.037249671926022909e+00
2.037249671926022909e+00
2.037249671926022909e+00
2.015499008148442073e+00
2.015499008148442073e+00
2.015499008148442073e+00
2.015499008148442073e+00
2.054687704092532208e+00
2.054687704092532208e+00
2.054687704092532208e+00
2.092001342814417075e+00
2.092001342814417075e+00
2.092001342814417075e+00
2.092001342814417075e+00
2.046249946592608282e+00
2.046249946592608282e+00
2.046249946592608282e+00
2.069313150425733383e+00
2.069313150425733383e+00
2.069313150425733383e+00
2.069313150425733383e+00
2.080750999481185470e+00
2.080750999481185470e+00
2.080750999481185470e+00
2.063312967314676172e+00
2.063312967314676172e+00
2.063312967314676172e+00
2.074188299203466812e+00
2.074188299203466812e+00
2.074188299203466812e+00
2.074188299203466812e+00
2.047937498092593067e+00
2.047937498092593067e+00
2.047937498092593067e+00
2.059000335703604190e+00
2.059000335703604190e+00
2.059000335703604190e+00
2.059000335703604190e+00
2.040999786370433888e+00
2.040999786370433888e+00
2.040999786370433888e+00
2.046812463759269729e+00
2.046812463759269729e+00
2.046812463759269729e+00
2.048687520981474997e+00
2.048687520981474997e+00
2.048687520981474997e+00
2.048687520981474997e+00
2.054875209814752690e+00
2.054875209814752690e+00
2.054875209814752690e+00
2.061437910092470904e+00
2.061437910092470904e+00
2.061437910092470904e+00
2.061437910092470904e+00
2.066688070314646186e+00
2.066688070314646186e+00
2.066688070314646186e+00
2.070250679036835795e+00
2.070250679036835795e+00
2.070250679036835795e+00
2.070250679036835795e+00
2.069500656147953865e+00
2.069500656147953865e+00
2.069500656147953865e+00
2.090688802758873255e+00
2.090688802758873255e+00
2.090688802758873255e+00
2.072500747703482027e+00
2.072500747703482027e+00
2.072500747703482027e+00
2.072500747703482027e+00
2.061062898648029940e+00
2.061062898648029940e+00
2.061062898648029940e+00
2.022249214148381213e+00
2.022249214148381213e+00
2.022249214148381213e+00
2.022249214148381213e+00
2.062000427259132795e+00
2.062000427259132795e+00
2.062000427259132795e+00
2.092188848536637558e+00
2.092188848536637558e+00
2.092188848536637558e+00
2.056375255592516993e+00
2.056375255592516993e+00
2.056375255592516993e+00
2.056375255592516993e+00
2.012123905148472502e+00
2.012123905148472502e+00
2.012123905148472502e+00
2.017186559648426858e+00
2.017186559648426858e+00
2.017186559648426858e+00
2.017186559648426858e+00
2.009873836481826270e+00
2.009873836481826270e+00
2.009873836481826270e+00
1.980435438093203437e+00
1.980435438093203437e+00
1.980435438093203437e+00
1.980435438093203437e+00
1.997310953093050845e+00
1.997310953093050845e+00
1.997310953093050845e+00
2.050187566759239299e+00
2.050187566759239299e+00
2.050187566759239299e+00
2.063687978759117581e+00
2.063687978759117581e+00
2.063687978759117581e+00
2.063687978759117581e+00
2.109064363536484965e+00
2.109064363536484965e+00
2.109064363536484965e+00
2.121252235480818982e+00
2.121252235480818982e+00
2.121252235480818982e+00
2.121252235480818982e+00
2.079625965147862576e+00
2.079625965147862576e+00
2.079625965147862576e+00
2.020749168370616911e+00
2.020749168370616911e+00
2.020749168370616911e+00
2.020749168370616911e+00
2.040437269203771997e+00
2.040437269203771997e+00
2.040437269203771997e+00
2.059562852870265637e+00
2.059562852870265637e+00
2.059562852870265637e+00
2.048500015259254514e+00
2.048500015259254514e+00
2.048500015259254514e+00
2.048500015259254514e+00
2.037999694814905283e+00
2.037999694814905283e+00
2.037999694814905283e+00
2.071750724814600098e+00
2.071750724814600098e+00
2.071750724814600098e+00
2.071750724814600098e+00
2.044749900814844423e+00
2.044749900814844423e+00
2.044749900814844423e+00
2.038187200537125765e+00
2.038187200537125765e+00
2.038187200537125765e+00
2.038187200537125765e+00
2.084501113925596005e+00
2.084501113925596005e+00
2.084501113925596005e+00
2.127439924314096675e+00
2.127439924314096675e+00
2.127439924314096675e+00
2.071375713370158689e+00
2.071375713370158689e+00
2.071375713370158689e+00
2.071375713370158689e+00
2.010248847926267679e+00
2.010248847926267679e+00
2.010248847926267679e+00
2.030311960203863730e+00
2.030311960203863730e+00
2.030311960203863730e+00
2.030311960203863730e+00
2.020749168370616911e+00
2.020749168370616911e+00
2.020749168370616911e+00
2.004811181981871915e+00
2.004811181981871915e+00
2.004811181981871915e+00
2.036499649037140980e+00
2.036499649037140980e+00
2.036499649037140980e+00
2.036499649037140980e+00
2.059187841425824672e+00
2.059187841425824672e+00
2.059187841425824672e+00
2.090126285592211808e+00
2.090126285592211808e+00
2.090126285592211808e+00
2.090126285592211808e+00
2.044374889370403459e+00
2.044374889370403459e+00
2.044374889370403459e+00
2.016624042481765411e+00
2.016624042481765411e+00
2.016624042481765411e+00
2.016624042481765411e+00
2.043624866481521085e+00
2.043624866481521085e+00
2.043624866481521085e+00
2.072875759147922992e+00
2.072875759147922992e+00
2.072875759147922992e+00
2.083001068147831703e+00
2.083001068147831703e+00
2.083001068147831703e+00
2.083001068147831703e+00
2.052437635425885976e+00
2.052437635425885976e+00
2.052437635425885976e+00
2.050187566759239299e+00
2.050187566759239299e+00
2.050187566759239299e+00
2.050187566759239299e+00
2.051875118259224084e+00
2.051875118259224084e+00
2.051875118259224084e+00
2.111689443647572162e+00
2.111689443647572162e+00
2.111689443647572162e+00
2.111689443647572162e+00
2.127064912869655711e+00
2.127064912869655711e+00
2.127064912869655711e+00
2.041749809259315818e+00
2.041749809259315818e+00
2.041749809259315818e+00
1.980247932370982955e+00
1.980247932370982955e+00
1.980247932370982955e+00
1.980247932370982955e+00
1.977060335093234089e+00
1.977060335093234089e+00
1.977060335093234089e+00
2.035749626148258606e+00
2.035749626148258606e+00
2.035749626148258606e+00
2.060875392925809457e+00
2.060875392925809457e+00
2.060875392925809457e+00
2.060875392925809457e+00
2.080563493758964988e+00
2.080563493758964988e+00
2.080563493758964988e+00
2.085251136814477935e+00
2.085251136814477935e+00
2.085251136814477935e+00
2.085251136814477935e+00
2.063125461592455689e+00
2.063125461592455689e+00
2.063125461592455689e+00
2.057875301370280852e+00
2.057875301370280852e+00
2.057875301370280852e+00
2.057875301370280852e+00
2.067813104647969080e+00
2.067813104647969080e+00
2.067813104647969080e+00
2.066313058870204777e+00
2.066313058870204777e+00
2.066313058870204777e+00
2.042499832148198191e+00
2.042499832148198191e+00
2.042499832148198191e+00
2.042499832148198191e+00
2.059562852870265637e+00
2.059562852870265637e+00
2.059562852870265637e+00
2.069875667592394830e+00
2.069875667592394830e+00
2.069875667592394830e+00
2.069875667592394830e+00
2.046999969481490211e+00
2.046999969481490211e+00
2.046999969481490211e+00
2.065563035981322848e+00
2.065563035981322848e+00
2.065563035981322848e+00
2.075875850703451597e+00
2.075875850703451597e+00
2.075875850703451597e+00
2.075875850703451597e+00
2.012498916592913467e+00
2.012498916592913467e+00
2.012498916592913467e+00
2.018124088259529714e+00
2.018124088259529714e+00
2.018124088259529714e+00
2.018124088259529714e+00
2.003123630481887130e+00
2.003123630481887130e+00
2.003123630481887130e+00
2.007061250648518591e+00
2.007061250648518591e+00
2.007061250648518591e+00
2.007061250648518591e+00
2.058625324259163225e+00
2.058625324259163225e+00
2.058625324259163225e+00
2.140565324869533104e+00
2.140565324869533104e+00
2.140565324869533104e+00
2.111876949369793088e+00
2.111876949369793088e+00
2.111876949369793088e+00
2.111876949369793088e+00
2.076438367870113488e+00
2.076438367870113488e+00
2.076438367870113488e+00
2.080188482314524023e+00
2.080188482314524023e+00
2.080188482314524023e+00
2.080188482314524023e+00
2.082626056703390294e+00
2.082626056703390294e+00
2.082626056703390294e+00
2.079063447981200685e+00
2.079063447981200685e+00
2.079063447981200685e+00
2.092751365703299449e+00
2.092751365703299449e+00
2.092751365703299449e+00
2.092751365703299449e+00
2.101751640369884377e+00
2.101751640369884377e+00
2.101751640369884377e+00
2.046624958037049247e+00
2.046624958037049247e+00
2.046624958037049247e+00
2.046624958037049247e+00
2.011936399426252020e+00
2.011936399426252020e+00
2.011936399426252020e+00
2.006123722037415735e+00
2.006123722037415735e+00
2.006123722037415735e+00
2.006123722037415735e+00
2.014936490981780626e+00
2.014936490981780626e+00
2.014936490981780626e+00
2.024311777092806519e+00
2.024311777092806519e+00
2.024311777092806519e+00
2.057125278481399366e+00
2.057125278481399366e+00
2.057125278481399366e+00
2.057125278481399366e+00
2.074375804925687294e+00
2.074375804925687294e+00
2.068563127536851454e+00
2.068563127536851454e+00
2.090688802758873255e+00
2.065375530259102366e+00
2.065375530259102366e+00
2.047187475203710694e+00
2.062187932981353278e+00
2.062187932981353278e+00
2.023374248481704107e+00
2.023374248481704107e+00
2.069313150425733383e+00
2.082626056703390294e+00
2.082626056703390294e+00
2.013436445204016323e+00
2.013436445204016323e+00
2.026561845759453195e+00
2.029374431592760875e+00
2.029374431592760875e+00
2.025999328592791304e+00
2.025999328592791304e+00
2.111126926480910715e+00
2.154628254036072832e+00
2.154628254036072832e+00
2.107189306314279698e+00
2.107189306314279698e+00
2.086751182592242237e+00
2.099314065981017663e+00
2.099314065981017663e+00
2.050187566759239299e+00
2.050187566759239299e+00
2.065750541703543330e+00
2.084501113925596005e+00
2.084501113925596005e+00
2.063500473036897098e+00
2.063500473036897098e+00
2.056000244148076028e+00
2.063875484481338063e+00
2.063875484481338063e+00
2.074375804925687294e+00
1.970497634815515653e+00
1.970497634815515653e+00
2.033312051759392336e+00
2.033312051759392336e+00
2.070438184759056277e+00
2.087876216925565576e+00
2.087876216925565576e+00
2.066688070314646186e+00
2.066688070314646186e+00
2.078500930814539238e+00
2.081876033814508364e+00
2.081876033814508364e+00
2.022999237037263143e+00
2.022999237037263143e+00
1.988310678426465694e+00
2.001811090426343309e+00
2.001811090426343309e+00
2.107189306314279698e+00
2.107189306314279698e+00
2.115252052369762659e+00
2.067813104647969080e+00
2.067813104647969080e+00
2.099689077425458628e+00
2.052062623981445011e+00
2.052062623981445011e+00
2.021874202703940249e+00
2.021874202703940249e+00
2.016624042481765411e+00
2.026749351481673678e+00
2.026749351481673678e+00
2.063125461592455689e+00
2.063125461592455689e+00
2.067813104647969080e+00
2.055062715536973172e+00
2.055062715536973172e+00
2.094063905758842381e+00
2.094063905758842381e+00
2.122189764091921838e+00
2.137002716147343495e+00
2.137002716147343495e+00
2.083751091036713632e+00
2.069500656147953865e+00
2.069500656147953865e+00
2.063125461592455689e+00
2.063125461592455689e+00
2.036124637592700015e+00
2.019624134037293572e+00
2.019624134037293572e+00
2.058062807092501334e+00
2.058062807092501334e+00
2.029561937314981801e+00
2.080375988036744506e+00
2.080375988036744506e+00
2.093501388592180934e+00
2.093501388592180934e+00
2.084313608203375079e+00
2.068188116092410045e+00
2.068188116092410045e+00
2.084313608203375079e+00
2.061437910092470904e+00
2.061437910092470904e+00
2.125939878536332373e+00
2.125939878536332373e+00
2.101189123203222930e+00
2.017749076815088305e+00
2.017749076815088305e+00
2.001436078981902345e+00
2.001436078981902345e+00
2.056562761314737475e+00
2.095563951536606684e+00
2.095563951536606684e+00
2.068000610370189563e+00
2.068000610370189563e+00
2.010623859370708644e+00
1.992435804315317194e+00
1.992435804315317194e+00
1.952309579760124647e+00
1.952309579760124647e+00
2.039312234870449103e+00
2.159315897091586223e+00
2.159315897091586223e+00
2.190441846980193397e+00
2.190441846980193397e+00
2.078500930814539238e+00
2.045124912259285388e+00
2.045124912259285388e+00
2.098751548814355772e+00
2.057125278481399366e+00
2.057125278481399366e+00
2.050750083925901190e+00
2.050750083925901190e+00
2.082626056703390294e+00
2.059187841425824672e+00
2.059187841425824672e+00
2.057875301370280852e+00
2.057875301370280852e+00
2.005186193426313324e+00
2.006873744926298109e+00
2.006873744926298109e+00
2.100064088869899592e+00
2.100064088869899592e+00
2.113564500869777874e+00
2.137752739036225869e+00
2.137752739036225869e+00
2.135877681814020157e+00
2.135877681814020157e+00
2.137190221869563977e+00
2.108314340647602592e+00
2.108314340647602592e+00
2.034437086092715230e+00
1.948371959593493630e+00
1.948371959593493630e+00
1.966372508926664153e+00
1.966372508926664153e+00
1.916495986816003860e+00
2.050937589648121673e+00
2.050937589648121673e+00
2.123314798425245176e+00
2.123314798425245176e+00
2.082626056703390294e+00
2.150503128147221332e+00
2.150503128147221332e+00
2.046812463759269729e+00
2.046812463759269729e+00
1.982498001037629409e+00
1.988873195593127363e+00
1.988873195593127363e+00
2.115627063814203623e+00
2.115627063814203623e+00
2.161940977202673420e+00
2.138127750480666833e+00
2.138127750480666833e+00
2.080938505203405953e+00
2.115627063814203623e+00
2.115627063814203623e+00
2.109814386425366894e+00
2.109814386425366894e+00
2.100251594592120075e+00
2.114314523758659803e+00
2.114314523758659803e+00
2.011186376537369647e+00
2.011186376537369647e+00
2.001061067537461380e+00
2.066500564592425260e+00
2.066500564592425260e+00
1.979685415204321286e+00
1.979685415204321286e+00
2.046437452314828764e+00
2.107001800592058771e+00
2.107001800592058771e+00
2.174503860591448845e+00
2.174503860591448845e+00
2.128002441480758122e+00
1.978185369426557427e+00
1.978185369426557427e+00
1.916683492538224565e+00
2.052250129703665493e+00
2.052250129703665493e+00
2.178816492202520827e+00
2.178816492202520827e+00
2.129689992980742907e+00
2.086188665425580790e+00
2.086188665425580790e+00
2.079813470870083059e+00
2.079813470870083059e+00
2.029561937314981801e+00
1.969372600482192537e+00
1.969372600482192537e+00
1.978560380870998392e+00
2.065563035981322848e+00
2.065563035981322848e+00
2.210504959257789892e+00
2.210504959257789892e+00
2.135690176091799675e+00
1.999748527481917781e+00
1.999748527481917781e+00
2.089751274147770843e+00
2.089751274147770843e+00
2.027874385814997016e+00
1.916120975371562896e+00
1.916120975371562896e+00
1.971247657704397804e+00
1.971247657704397804e+00
2.154065736869411385e+00
2.164753563035981099e+00
2.164753563035981099e+00
2.090876308481094181e+00
2.067813104647969080e+00
2.067813104647969080e+00
2.148628070925016065e+00
2.148628070925016065e+00
2.120877224036378017e+00
2.094438917203283790e+00
2.094438917203283790e+00
2.013998962370677770e+00
2.013998962370677770e+00
2.052437635425885976e+00
2.137565233314004942e+00
2.137565233314004942e+00
2.007998779259621003e+00
2.007998779259621003e+00
1.943496810815759979e+00
1.962997405926694583e+00
1.962997405926694583e+00
2.029186925870540392e+00
2.029186925870540392e+00
2.011561387981810611e+00
2.007248756370739073e+00
2.007248756370739073e+00
2.221005279702139568e+00
2.221005279702139568e+00
2.143752922147282192e+00
2.039687246314890068e+00
2.039687246314890068e+00
2.095001434369945237e+00
2.091251319925535146e+00
2.091251319925535146e+00
2.043062349314859638e+00
2.043062349314859638e+00
2.049625049592577852e+00
2.042124820703756782e+00
2.042124820703756782e+00
2.115627063814203623e+00
2.115627063814203623e+00
2.003873653370769503e+00
2.019811639759514499e+00
2.019811639759514499e+00
2.232443128757591655e+00
2.232443128757591655e+00
2.176378917813653668e+00
2.092751365703299449e+00
2.092751365703299449e+00
1.914620929593798593e+00
1.914620929593798593e+00
1.900558000427259309e+00
2.061812921536912313e+00
2.061812921536912313e+00
2.096688985869930022e+00
2.137190221869563977e+00
2.137190221869563977e+00
2.066500564592425260e+00
2.066500564592425260e+00
1.935434064760277240e+00
1.853869075594348104e+00
1.853869075594348104e+00
1.983060518204291078e+00
1.983060518204291078e+00
2.028811914426099428e+00
2.018311593981750196e+00
2.018311593981750196e+00
2.030499465926084213e+00
2.030499465926084213e+00
2.271444318979460864e+00
2.225130405590991067e+00
2.225130405590991067e+00
2.236943266090884119e+00
2.236943266090884119e+00
2.007436262092959556e+00
2.002186101870784718e+00
2.002186101870784718e+00
2.051312601092562637e+00
2.051312601092562637e+00
2.073625782036805365e+00
1.877869808038575394e+00
1.877869808038575394e+00
2.054875209814752690e+00
2.249506149479659545e+00
2.249506149479659545e+00
2.072313241981261545e+00
2.072313241981261545e+00
2.223817865535447247e+00
2.252881252479629115e+00
2.252881252479629115e+00
2.081501022370067400e+00
2.081501022370067400e+00
2.300695211645863214e+00
2.140752830591753586e+00
2.140752830591753586e+00
1.870369579149754324e+00
1.870369579149754324e+00
1.754303537095248444e+00
2.028249397259437981e+00
2.028249397259437981e+00
2.332196172978911797e+00
2.332196172978911797e+00
2.289257362590411127e+00
2.114127018036439321e+00
2.114127018036439321e+00
2.175441389202551257e+00
1.954559648426770879e+00
1.954559648426770879e+00
1.895120334482863989e+00
1.895120334482863989e+00
1.709489669484542285e+00
1.888932645649586517e+00
1.888932645649586517e+00
1.779054292428357886e+00
1.779054292428357886e+00
1.875807245094149645e+00
2.269381756035035114e+00
2.269381756035035114e+00
2.306132877590258534e+00
2.306132877590258534e+00
1.938996673482467070e+00
1.893245277260658721e+00
1.893245277260658721e+00
2.016624042481765411e+00
2.133252601702932960e+00
2.133252601702932960e+00
2.473200476088747823e+00
2.473200476088747823e+00
2.375134983367412023e+00
2.119189672536393232e+00
2.119189672536393232e+00
1.950059511093478193e+00
2.068938138981292418e+00
2.068938138981292418e+00
2.109064363536484965e+00
1.921558641315958216e+00
1.921558641315958216e+00
2.026561845759453195e+00
2.026561845759453195e+00
2.168691183202612560e+00
2.056187749870296511e+00
2.056187749870296511e+00
2.284569719534897736e+00
2.284569719534897736e+00
2.176003906369212704e+00
2.100814111758781966e+00
2.100814111758781966e+00
2.081501022370067400e+00
2.194379467146824858e+00
2.194379467146824858e+00
2.176941434980315559e+00
2.176941434980315559e+00
1.836993560594500696e+00
1.407042939542832771e+00
1.407042939542832771e+00
1.620611957152012783e+00
1.620611957152012783e+00
1.874307199316385342e+00
1.873182164983062226e+00
1.873182164983062226e+00
2.084688619647816488e+00
2.084688619647816488e+00
2.235630726035340299e+00
2.074938322092349186e+00
2.074938322092349186e+00
1.947246925260170292e+00
1.947246925260170292e+00
2.229630542924283532e+00
2.149378093813898438e+00
2.149378093813898438e+00
1.844681295205542026e+00
1.968810083315530868e+00
1.968810083315530868e+00
2.167566148869289222e+00
2.167566148869289222e+00
2.300132694479201767e+00
2.320195806756797818e+00
2.320195806756797818e+00
2.242005920590838475e+00
2.242005920590838475e+00
2.000311044648579006e+00
2.056000244148076028e+00
2.056000244148076028e+00
2.035562120426038124e+00
2.035562120426038124e+00
1.850118961149937347e+00
2.046062440870388244e+00
1.949309488204596263e+00
1.949309488204596263e+00
2.147690542313913653e+00
2.147690542313913653e+00
2.065375530259102366e+00
2.118627155369731785e+00
2.118627155369731785e+00
2.289257362590411127e+00
2.190629352702413879e+00
2.190629352702413879e+00
1.813742851039155335e+00
1.813742851039155335e+00
2.095376445814386202e+00
2.291319925534837321e+00
2.291319925534837321e+00
2.164003540147099169e+00
2.164003540147099169e+00
1.978560380870998392e+00
1.922121158482619663e+00
1.922121158482619663e+00
1.952684591204565612e+00
1.952684591204565612e+00
1.863431867427594923e+00
2.168503677480392078e+00
2.168503677480392078e+00
2.189879329813531950e+00
2.189879329813531950e+00
1.974997772148808339e+00
1.882182439649647598e+00
1.882182439649647598e+00
1.760116214484084729e+00
1.590048524430066834e+00
1.590048524430066834e+00
2.166066103091524919e+00
2.166066103091524919e+00
2.514826746421705117e+00
2.360509537034211291e+00
2.360509537034211291e+00
2.259068941312906365e+00
2.259068941312906365e+00
2.007248756370739073e+00
1.926808801538132832e+00
1.926808801538132832e+00
1.980435438093203437e+00
1.980435438093203437e+00
1.818993011261330173e+00
2.055062715536973172e+00
2.055062715536973172e+00
2.252506241035188150e+00
2.459700064088869986e+00
2.459700064088869986e+00
2.449387249366740793e+00
2.449387249366740793e+00
2.170378734702597345e+00
1.955872188482314478e+00
1.955872188482314478e+00
1.862119327372051103e+00
1.862119327372051103e+00
1.942559282204657345e+00
2.014186468092898252e+00
2.014186468092898252e+00
2.266569170201727434e+00
2.266569170201727434e+00
2.195504501480147752e+00
1.761803765984069292e+00
1.761803765984069292e+00
1.602611407818842260e+00
1.602611407818842260e+00
1.696926786095767303e+00
1.802492507705923730e+00
1.802492507705923730e+00
2.254568803979613900e+00
2.210504959257789892e+00
2.210504959257789892e+00
2.143940427869502674e+00
2.143940427869502674e+00
2.194004455702383449e+00
1.919121066927091501e+00
1.919121066927091501e+00
1.951559556871242496e+00
1.951559556871242496e+00
2.309507980590228104e+00
2.256068849757378203e+00
2.256068849757378203e+00
2.290194891201513983e+00
2.131940061647389140e+00
2.131940061647389140e+00
1.950809533982360344e+00
1.950809533982360344e+00
1.910495803704947093e+00
1.948934476760155077e+00
1.948934476760155077e+00
2.042687337870418673e+00
2.042687337870418673e+00
2.239755851924192243e+00
2.139815301980651618e+00
2.139815301980651618e+00
2.184254158146916147e+00
2.184254158146916147e+00
2.197567064424573946e+00
2.038374706259346247e+00
2.038374706259346247e+00
2.129877498702963390e+00
2.129877498702963390e+00
1.804367564928128997e+00
1.851243995483260685e+00
1.851243995483260685e+00
1.930746421704764071e+00
1.818430494094668504e+00
1.818430494094668504e+00
2.095563951536606684e+00
2.095563951536606684e+00
2.106814294869838289e+00
2.156503311258278099e+00
2.156503311258278099e+00
2.016061525315103520e+00
2.016061525315103520e+00
2.119564683980834197e+00
2.099689077425458628e+00
2.099689077425458628e+00
1.962059877315591949e+00
1.962059877315591949e+00
2.222317819757682944e+00
2.314570635090182460e+00
2.314570635090182460e+00
2.333321207312235135e+00
2.333321207312235135e+00
1.828930814539017957e+00
1.774741660817285682e+00
1.774741660817285682e+00
1.940496719260231373e+00
1.940496719260231373e+00
2.143002899258400262e+00
2.158753379924924776e+00
2.158753379924924776e+00
2.066500564592425260e+00
2.066500564592425260e+00
1.675176122318186023e+00
1.751115939817499356e+00
1.751115939817499356e+00
2.097063997314370987e+00
2.218755211035493335e+00
2.218755211035493335e+00
2.060312875759148010e+00
2.060312875759148010e+00
2.212755027924436124e+00
2.184816675313578038e+00
2.184816675313578038e+00
1.943871822260200721e+00
1.983435529648732043e+00
1.983435529648732043e+00
2.134752647480697263e+00
2.134752647480697263e+00
2.543702627643666059e+00
2.183691640980254700e+00
2.183691640980254700e+00
1.786929532761619921e+00
1.786929532761619921e+00
1.992435804315317194e+00
2.310445509201330516e+00
2.310445509201330516e+00
2.228505508590960638e+00
2.228505508590960638e+00
2.034999603259376677e+00
1.720552507095553629e+00
1.587235938596758933e+00
1.587235938596758933e+00
1.903558091982787470e+00
1.903558091982787470e+00
1.973685232093264519e+00
2.115814569536424106e+00
2.115814569536424106e+00
1.953622119815668245e+00
1.953622119815668245e+00
2.094438917203283790e+00
2.257006378368480615e+00
2.257006378368480615e+00
2.419011322367015993e+00
2.419011322367015993e+00
2.147128025147251762e+00
1.986623126926480909e+00
1.986623126926480909e+00
1.959622302926725235e+00
1.959622302926725235e+00
2.211067476424451339e+00
1.979497909482100804e+00
1.979497909482100804e+00
2.342508987701040546e+00
2.342508987701040546e+00
2.202067201757865966e+00
2.107189306314279698e+00
2.107189306314279698e+00
2.037624683370464318e+00
1.900558000427259309e+00
1.900558000427259309e+00
1.949496993926816524e+00
1.949496993926816524e+00
1.876557267983031796e+00
1.795929807428205294e+00
1.795929807428205294e+00
1.976122806482131455e+00
1.976122806482131455e+00
2.173003814813684542e+00
2.490451002533036640e+00
2.490451002533036640e+00
2.272194341868343237e+00
2.072125736259041062e+00
2.072125736259041062e+00
2.081876033814508364e+00
2.081876033814508364e+00
2.101001617481002448e+00
1.945934385204626693e+00
1.945934385204626693e+00
2.023749259926145072e+00
2.023749259926145072e+00
2.047937498092593067e+00
1.646862758262886528e+00
1.646862758262886528e+00
1.767428937650685317e+00
1.767428937650685317e+00
2.038374706259346247e+00
2.288882351145970162e+00
2.288882351145970162e+00
2.070438184759056277e+00
2.079438459425641650e+00
2.079438459425641650e+00
2.234505691702016961e+00
2.234505691702016961e+00
1.986435621204260427e+00
1.863806878872035888e+00
1.863806878872035888e+00
1.934496536149174606e+00
1.934496536149174606e+00
2.105314249092073986e+00
2.280819605090487201e+00
2.280819605090487201e+00
1.971622669148838769e+00
1.971622669148838769e+00
2.286069765312662039e+00
2.302757774590289408e+00
2.302757774590289408e+00
2.146002990813928868e+00
2.146002990813928868e+00
2.026936857203894160e+00
2.018124088259529714e+00
2.018124088259529714e+00
1.925871272927030420e+00
1.915745963927121709e+00
1.915745963927121709e+00
2.007248756370739073e+00
2.007248756370739073e+00
2.037999694814905283e+00
2.011373882259590129e+00
2.011373882259590129e+00
2.040437269203771997e+00
2.040437269203771997e+00
1.980435438093203437e+00
2.130815027314065802e+00
2.130815027314065802e+00
2.050000061037018817e+00
2.050000061037018817e+00
2.004436170537430950e+00
2.014373973815118735e+00
2.014373973815118735e+00
2.019624134037293572e+00
2.019624134037293572e+00
2.097439008758812395e+00
2.301070223090304623e+00
2.301070223090304623e+00
2.383947752311777357e+00
2.010436353648488161e+00
2.010436353648488161e+00
1.980622943815424142e+00
1.980622943815424142e+00
2.088063722647786058e+00
2.019624134037293572e+00
2.019624134037293572e+00
2.236755760368663637e+00
2.236755760368663637e+00
2.333508713034455617e+00
2.072125736259041062e+00
2.072125736259041062e+00
1.971247657704397804e+00
1.971247657704397804e+00
2.032749534592730889e+00
2.120877224036378017e+00
2.120877224036378017e+00
1.881994933927427116e+00
1.881994933927427116e+00
1.794242255928220509e+00
1.931121433149205036e+00
1.931121433149205036e+00
2.053000152592547423e+00
1.945184362315744542e+00
1.945184362315744542e+00
1.990185735648670962e+00
1.990185735648670962e+00
2.247631092257453833e+00
2.192504409924619146e+00
2.192504409924619146e+00
2.080188482314524023e+00
2.080188482314524023e+00
2.061250404370250422e+00
1.962434888760032914e+00
1.962434888760032914e+00
2.182941618091372327e+00
2.182941618091372327e+00
2.197567064424573946e+00
2.235630726035340299e+00
2.235630726035340299e+00
2.134002624591814889e+00
2.134002624591814889e+00
2.226442945646534444e+00
1.914995941038239557e+00
1.914995941038239557e+00
1.848056398205511819e+00
1.950809533982360344e+00
1.950809533982360344e+00
2.055625232703635064e+00
2.055625232703635064e+00
2.001061067537461380e+00
2.220442762535478121e+00
2.220442762535478121e+00
2.267506698812830290e+00
2.267506698812830290e+00
2.133252601702932960e+00
1.978185369426557427e+00
1.978185369426557427e+00
2.002561113315225683e+00
2.002561113315225683e+00
1.806992645039216416e+00
1.886682576982940063e+00
1.886682576982940063e+00
1.927558824427014983e+00
1.927558824427014983e+00
2.051687612537003602e+00
2.215567613757744247e+00
2.215567613757744247e+00
2.186879238258003344e+00
2.165128574480422063e+00
2.165128574480422063e+00
2.171503769035920239e+00
2.171503769035920239e+00
2.043437360759300603e+00
1.966372508926664153e+00
1.966372508926664153e+00
2.040624774925992480e+00
2.040624774925992480e+00
2.001623584704122827e+00
2.028624408703878945e+00
2.070438184759056277e+00
2.070438184759056277e+00
1.947621936704611478e+00
2.172816309091464060e+00
2.172816309091464060e+00
2.262069032868434526e+00
2.262069032868434526e+00
2.139252784813989727e+00
2.115252052369762659e+00
2.115252052369762659e+00
1.948934476760155077e+00
1.948934476760155077e+00
1.792554704428235723e+00
1.943496810815759979e+00
1.943496810815759979e+00
2.210692464980010374e+00
2.210692464980010374e+00
2.248568620868556689e+00
2.100251594592120075e+00
2.100251594592120075e+00
2.038562211981566730e+00
2.149940610980559885e+00
2.149940610980559885e+00
2.073250770592364400e+00
2.073250770592364400e+00
2.049250038148136888e+00
2.046249946592608282e+00
2.046249946592608282e+00
2.083376079592272667e+00
2.083376079592272667e+00
1.932996490371410303e+00
1.990560747093111926e+00
1.990560747093111926e+00
2.064062990203558545e+00
2.064062990203558545e+00
2.149378093813898438e+00
2.289257362590411127e+00
2.289257362590411127e+00
2.011373882259590129e+00
2.011373882259590129e+00
1.797804864650410339e+00
1.960559831537827868e+00
1.960559831537827868e+00
1.941996765037995676e+00
1.941996765037995676e+00
2.027686880092776089e+00
2.134190130314035372e+00
2.134190130314035372e+00
2.076438367870113488e+00
2.076438367870113488e+00
2.110939420758690233e+00
2.177878963591417971e+00
2.177878963591417971e+00
2.093501388592180934e+00
2.077000885036774935e+00
2.082813562425611220e+00
2.082813562425611220e+00
1.898495437482833337e+00
1.898495437482833337e+00
2.034812097537156195e+00
2.121814752647480873e+00
2.121814752647480873e+00
2.074563310647907777e+00
2.074563310647907777e+00
2.034624591814935712e+00
2.115814569536424106e+00
2.115814569536424106e+00
1.941621753593554489e+00
2.076063356425672080e+00
2.076063356425672080e+00
2.138877773369548763e+00
2.138877773369548763e+00
2.021874202703940249e+00
2.034999603259376677e+00
2.034999603259376677e+00
2.115814569536424106e+00
2.115814569536424106e+00
2.043249855037080120e+00
1.957934751426740450e+00
1.957934751426740450e+00
1.974997772148808339e+00
1.974997772148808339e+00
2.037624683370464318e+00
2.230568071535386387e+00
2.230568071535386387e+00
2.238068300424207457e+00
2.238068300424207457e+00
2.268631733146153184e+00
2.062562944425794242e+00
2.062562944425794242e+00
2.072500747703482027e+00
2.086376171147801273e+00
2.086376171147801273e+00
1.942371776482436641e+00
1.942371776482436641e+00
1.724115115817743460e+00
1.714364818262276158e+00
1.714364818262276158e+00
1.968810083315530868e+00
1.968810083315530868e+00
2.138690267647328280e+00
2.114877040925321250e+00
2.114877040925321250e+00
1.970872646259956840e+00
1.970872646259956840e+00
2.130252510147404355e+00
2.116377086703085553e+00
2.116377086703085553e+00
2.247818597979674760e+00
2.212755027924436124e+00
2.212755027924436124e+00
2.012498916592913467e+00
2.012498916592913467e+00
1.916495986816003860e+00
2.079250953703421168e+00
2.079250953703421168e+00
2.174878872035889810e+00
2.174878872035889810e+00
2.053187658314767905e+00
1.888557634205145552e+00
1.888557634205145552e+00
1.945371868037965024e+00
1.945371868037965024e+00
2.095188940092165719e+00
1.965997497482223189e+00
1.965997497482223189e+00
1.989623218482009515e+00
1.989623218482009515e+00
2.007436262092959556e+00
2.092188848536637558e+00
2.092188848536637558e+00
2.279694570757164307e+00
2.314195623645741495e+00
2.314195623645741495e+00
2.154815759758293314e+00
2.154815759758293314e+00
2.041562303537095335e+00
1.968810083315530868e+00
1.968810083315530868e+00
2.097439008758812395e+00
2.024874294259468410e+00
2.024874294259468410e+00
1.933183996093630785e+00
1.933183996093630785e+00
1.978935392315439357e+00
1.914245918149357406e+00
1.914245918149357406e+00
1.960559831537827868e+00
1.960559831537827868e+00
2.043999877925962494e+00
2.098376537369914807e+00
2.098376537369914807e+00
2.024874294259468410e+00
2.024874294259468410e+00
1.972935209204382367e+00
2.065188024536881883e+00
2.065188024536881883e+00
2.181441572313608468e+00
2.181441572313608468e+00
2.151065645313883223e+00
2.142627887813959298e+00
2.142627887813959298e+00
2.140940336313974068e+00
2.046062440870388244e+00
2.046062440870388244e+00
2.016811548203985893e+00
2.016811548203985893e+00
1.972560197759941625e+00
2.191191869869075770e+00
2.191191869869075770e+00
2.084313608203375079e+00
2.084313608203375079e+00
2.030311960203863730e+00
1.991498275704214560e+00
1.991498275704214560e+00
1.989810724204229997e+00
1.989810724204229997e+00
1.956434705648976147e+00
1.983060518204291078e+00
1.983060518204291078e+00
2.094626422925504272e+00
2.195316995757927270e+00
2.195316995757927270e+00
2.134565141758476781e+00
2.134565141758476781e+00
1.988873195593127363e+00
1.886682576982940063e+00
1.886682576982940063e+00
1.974435254982146670e+00
1.974435254982146670e+00
2.095188940092165719e+00
2.086001159703360308e+00
2.086001159703360308e+00
2.068188116092410045e+00
2.068188116092410045e+00
2.011561387981810611e+00
2.075125827814569668e+00
2.075125827814569668e+00
2.122377269814142320e+00
2.079813470870083059e+00
2.079813470870083059e+00
2.051687612537003602e+00
2.051687612537003602e+00
2.121627246925260390e+00
2.137565233314004942e+00
2.137565233314004942e+00
2.047374980925931620e+00
2.047374980925931620e+00
2.027124362926114642e+00
2.014936490981780626e+00
2.014936490981780626e+00
2.062375438703573760e+00
2.062375438703573760e+00
1.992435804315317194e+00
2.058062807092501334e+00
2.058062807092501334e+00
2.123689809869686140e+00
2.138690267647328280e+00
2.138690267647328280e+00
2.004623676259651432e+00
2.004623676259651432e+00
1.969747611926633502e+00
2.063312967314676172e+00
2.063312967314676172e+00
2.126314889980773337e+00
2.126314889980773337e+00
2.141127842036194995e+00
2.072688253425702509e+00
2.072688253425702509e+00
2.054875209814752690e+00
2.054875209814752690e+00
1.973872737815485001e+00
2.039687246314890068e+00
2.039687246314890068e+00
2.048687520981474997e+00
2.048687520981474997e+00
2.057687795648060813e+00
2.042312326425977265e+00
2.042312326425977265e+00
2.030874477370525177e+00
2.051687612537003602e+00
2.051687612537003602e+00
2.116752098147526517e+00
2.116752098147526517e+00
2.125002349925229961e+00
2.082438550981169811e+00
2.082438550981169811e+00
2.026749351481673678e+00
2.026749351481673678e+00
2.024124271370586037e+00
2.089376262703329878e+00
2.089376262703329878e+00
2.018311593981750196e+00
2.018311593981750196e+00
2.041937314981536300e+00
2.046437452314828764e+00
2.046437452314828764e+00
2.015874019592883037e+00
2.015874019592883037e+00
2.139440290536210654e+00
2.140940336313974068e+00
2.140940336313974068e+00
2.096313974425489057e+00
2.096313974425489057e+00
2.135315164647358710e+00
2.065563035981322848e+00
2.065563035981322848e+00
2.030874477370525177e+00
2.062000427259132795e+00
2.062000427259132795e+00
1.997498458815271549e+00
1.997498458815271549e+00
2.004998687704092397e+00
2.065750541703543330e+00
2.065750541703543330e+00
2.106439283425397324e+00
2.106439283425397324e+00
2.097251503036591469e+00
2.052062623981445011e+00
2.052062623981445011e+00
1.972560197759941625e+00
1.972560197759941625e+00
1.978185369426557427e+00
2.013061433759574914e+00
2.013061433759574914e+00
2.104376720480972018e+00
2.176191412091433186e+00
2.176191412091433186e+00
2.161378460036011973e+00
2.161378460036011973e+00
2.136065187536240639e+00
2.038937223426007694e+00
2.038937223426007694e+00
2.067813104647969080e+00
2.067813104647969080e+00
2.026374340037232713e+00
1.960184820093386682e+00
1.960184820093386682e+00
1.978560380870998392e+00
1.978560380870998392e+00
1.996185918759727951e+00
2.009873836481826270e+00
2.009873836481826270e+00
2.083938596758934114e+00
2.064250495925779028e+00
2.064250495925779028e+00
2.080563493758964988e+00
2.080563493758964988e+00
2.148065553758354618e+00
2.120502212591937052e+00
2.120502212591937052e+00
2.068938138981292418e+00
2.068938138981292418e+00
2.027311868648335125e+00
1.970497634815515653e+00
1.970497634815515653e+00
2.036124637592700015e+00
2.036124637592700015e+00
2.065375530259102366e+00
2.078875942258980203e+00
2.078875942258980203e+00
2.088251228370006540e+00
2.088251228370006540e+00
2.069313150425733383e+00
2.109814386425366894e+00
2.109814386425366894e+00
2.062187932981353278e+00
2.053187658314767905e+00
2.053187658314767905e+00
2.064250495925779028e+00
2.064250495925779028e+00
2.079625965147862576e+00
2.041187292092654371e+00
2.041187292092654371e+00
2.034999603259376677e+00
2.034999603259376677e+00
2.039874752037110550e+00
2.033312051759392336e+00
2.033312051759392336e+00
1.985310586870937088e+00
2.083188573870052185e+00
2.083188573870052185e+00
2.097814020203253360e+00
2.097814020203253360e+00
2.050562578203680708e+00
2.082813562425611220e+00
2.082813562425611220e+00
2.066688070314646186e+00
2.066688070314646186e+00
2.042312326425977265e+00
2.047374980925931620e+00
2.047374980925931620e+00
2.054687704092532208e+00
2.054687704092532208e+00
2.056750267036957958e+00
2.077750907925656865e+00
2.077750907925656865e+00
2.059000335703604190e+00
2.059000335703604190e+00
2.017186559648426858e+00
2.035937131870479533e+00
2.035937131870479533e+00
2.061250404370250422e+00
2.098564043092135289e+00
2.098564043092135289e+00
2.079063447981200685e+00
2.079063447981200685e+00
2.034062074648274265e+00
2.057875301370280852e+00
2.057875301370280852e+00
2.035562120426038124e+00
2.035562120426038124e+00
2.022999237037263143e+00
2.058625324259163225e+00
2.058625324259163225e+00
2.074188299203466812e+00
2.074188299203466812e+00
2.084688619647816488e+00
2.087688711203345093e+00
2.087688711203345093e+00
2.074750816370128703e+00
2.074750816370128703e+00
2.051875118259224084e+00
2.041937314981536300e+00
2.041937314981536300e+00
2.055437726981414581e+00
2.077938413647877791e+00
2.077938413647877791e+00
2.047937498092593067e+00
2.047937498092593067e+00
2.011748893704031538e+00
2.025624317148350340e+00
2.025624317148350340e+00
2.061062898648029940e+00
2.061062898648029940e+00
2.080000976592303541e+00
2.030874477370525177e+00
2.030874477370525177e+00
2.076625873592333971e+00
2.076625873592333971e+00
2.081688528092287882e+00
2.054687704092532208e+00
2.054687704092532208e+00
2.063125461592455689e+00
2.044749900814844423e+00
2.044749900814844423e+00
2.029936948759422766e+00
2.029936948759422766e+00
2.049812555314798335e+00
2.050562578203680708e+00
2.050562578203680708e+00
2.012686422315133949e+00
2.012686422315133949e+00
2.063125461592455689e+00
2.048500015259254514e+00
2.048500015259254514e+00
2.053187658314767905e+00
2.053187658314767905e+00
2.030874477370525177e+00
2.040999786370433888e+00
2.040999786370433888e+00
2.061625415814691387e+00
2.025999328592791304e+00
2.025999328592791304e+00
2.032374523148289480e+00
2.032374523148289480e+00
2.055437726981414581e+00
2.111689443647572162e+00
2.111689443647572162e+00
2.089938779869991325e+00
2.089938779869991325e+00
2.074188299203466812e+00
2.079250953703421168e+00
2.079250953703421168e+00
2.055625232703635064e+00
2.049812555314798335e+00
2.049812555314798335e+00
2.038749717703787212e+00
2.038749717703787212e+00
2.068563127536851454e+00
2.057312784203619849e+00
2.057312784203619849e+00
2.046437452314828764e+00
2.046437452314828764e+00
2.070625690481276759e+00
2.048687520981474997e+00
2.048687520981474997e+00
2.026374340037232713e+00
2.026374340037232713e+00
2.029749443037202283e+00
2.034624591814935712e+00
2.034624591814935712e+00
2.028436902981658463e+00
2.028436902981658463e+00
2.040999786370433888e+00
2.055625232703635064e+00
2.055625232703635064e+00
2.063500473036897098e+00
2.063500473036897098e+00
2.065000518814661401e+00
2.049625049592577852e+00
2.049625049592577852e+00
2.065750541703543330e+00
2.039124729148228621e+00
2.039124729148228621e+00
2.049437543870357370e+00
2.049437543870357370e+00
2.059000335703604190e+00
2.062937955870235207e+00
2.062937955870235207e+00
2.100064088869899592e+00
2.100064088869899592e+00
2.112814477980895500e+00
2.082438550981169811e+00
2.082438550981169811e+00
2.046624958037049247e+00
2.046624958037049247e+00
2.032937040314951371e+00
2.057125278481399366e+00
2.057125278481399366e+00
2.035187108981597159e+00
2.035187108981597159e+00
2.073813287759025847e+00
2.058812829981383707e+00
2.058812829981383707e+00
2.051500106814783120e+00
2.051500106814783120e+00
2.049437543870357370e+00
2.044749900814844423e+00
2.044749900814844423e+00
2.052625141148106458e+00
2.057875301370280852e+00
2.057875301370280852e+00
2.066875576036866669e+00
2.066875576036866669e+00
2.072500747703482027e+00
2.061062898648029940e+00
2.061062898648029940e+00
2.052062623981445011e+00
2.052062623981445011e+00
2.045312417981505870e+00
2.037624683370464318e+00
2.037624683370464318e+00
2.063125461592455689e+00
2.063125461592455689e+00
2.034624591814935712e+00
2.029374431592760875e+00
2.029374431592760875e+00
2.042499832148198191e+00
2.042499832148198191e+00
2.071375713370158689e+00
2.064438001647999510e+00
2.064438001647999510e+00
2.025624317148350340e+00
2.039124729148228621e+00
2.039124729148228621e+00
2.050562578203680708e+00
2.050562578203680708e+00
2.071750724814600098e+00
2.063125461592455689e+00
2.063125461592455689e+00
2.074000793481246330e+00
2.074000793481246330e+00
2.088813745536667987e+00
2.058062807092501334e+00
2.058062807092501334e+00
2.046812463759269729e+00
2.046812463759269729e+00
2.058250312814721816e+00
2.067438093203528116e+00
2.067438093203528116e+00
2.053375164036988387e+00
2.053375164036988387e+00
2.054687704092532208e+00
2.043062349314859638e+00
2.043062349314859638e+00
2.014936490981780626e+00
2.040062257759331033e+00
2.040062257759331033e+00
2.073438276314584883e+00
2.073438276314584883e+00
2.043999877925962494e+00
2.047749992370372585e+00
2.047749992370372585e+00
2.063500473036897098e+00
2.063500473036897098e+00
2.132315073091830104e+00
2.118814661091952267e+00
2.118814661091952267e+00
2.034624591814935712e+00
1.987935666982024729e+00
1.987935666982024729e+00
1.999936033204138486e+00
1.999936033204138486e+00
2.044562395092623941e+00
2.048500015259254514e+00
2.048500015259254514e+00
2.046062440870388244e+00
2.046062440870388244e+00
2.048875026703695923e+00
2.063687978759117581e+00
2.063687978759117581e+00
2.055812738425855546e+00
2.055812738425855546e+00
2.055437726981414581e+00
2.060875392925809457e+00
2.060875392925809457e+00
2.069500656147953865e+00
2.069500656147953865e+00
2.058062807092501334e+00
2.058250312814721816e+00
2.058250312814721816e+00
2.039687246314890068e+00
2.036874660481581945e+00
2.036874660481581945e+00
2.052062623981445011e+00
2.052062623981445011e+00
2.047562486648152102e+00
2.051687612537003602e+00
2.051687612537003602e+00
2.064813013092440475e+00
2.064813013092440475e+00
2.059750358592486119e+00
2.058437818536942299e+00
2.058437818536942299e+00
2.063125461592455689e+00
2.063125461592455689e+00
2.069688161870173904e+00
2.064250495925779028e+00
2.064250495925779028e+00
2.056000244148076028e+00
2.056000244148076028e+00
2.046999969481490211e+00
2.060687887203588975e+00
2.060687887203588975e+00
2.059375347148045154e+00
2.042874843592639156e+00
2.042874843592639156e+00
2.057875301370280852e+00
2.057875301370280852e+00
2.060500381481368493e+00
2.062937955870235207e+00
2.062937955870235207e+00
2.049812555314798335e+00
2.049812555314798335e+00
2.071188207647938206e+00
2.100064088869899592e+00
2.100064088869899592e+00
2.060125370036927084e+00
2.060125370036927084e+00
2.022811731315042216e+00
2.042124820703756782e+00
2.042124820703756782e+00
2.075688344981231115e+00
2.075688344981231115e+00
2.073438276314584883e+00
2.058250312814721816e+00
2.058250312814721816e+00
2.034437086092715230e+00
2.054500198370311725e+00
2.054500198370311725e+00
2.070625690481276759e+00
2.070625690481276759e+00
2.072688253425702509e+00
2.079438459425641650e+00
2.079438459425641650e+00
2.060875392925809457e+00
2.060875392925809457e+00
2.047374980925931620e+00
2.046999969481490211e+00
2.046999969481490211e+00
2.060687887203588975e+00
2.060687887203588975e+00
2.044374889370403459e+00
2.075875850703451597e+00
2.075875850703451597e+00
2.060500381481368493e+00
2.060500381481368493e+00
2.045874935148167761e+00
2.043812372203741567e+00
2.043812372203741567e+00
2.068000610370189563e+00
2.068000610370189563e+00
2.057312784203619849e+00
2.043249855037080120e+00
2.043249855037080120e+00
2.048312509537034032e+00
2.048312509537034032e+00
2.050750083925901190e+00
2.063687978759117581e+00
2.063687978759117581e+00
2.074375804925687294e+00
2.058437818536942299e+00
2.058437818536942299e+00
2.046437452314828764e+00
2.046437452314828764e+00
2.063500473036897098e+00
2.072125736259041062e+00
2.072125736259041062e+00
2.074375804925687294e+00
2.074375804925687294e+00
2.064625507370219992e+00
2.058625324259163225e+00
2.058625324259163225e+00
2.051875118259224084e+00
2.051875118259224084e+00
2.062750450148014725e+00
2.057125278481399366e+00
2.057125278481399366e+00
2.061625415814691387e+00
2.061625415814691387e+00
2.049062532425916405e+00
2.072500747703482027e+00
2.072500747703482027e+00
2.072500747703482027e+00
2.041937314981536300e+00
2.041937314981536300e+00
2.052437635425885976e+00
2.052437635425885976e+00
2.053750175481429796e+00
2.078500930814539238e+00
2.078500930814539238e+00
2.066875576036866669e+00
2.066875576036866669e+00
2.051500106814783120e+00
2.049250038148136888e+00
2.049250038148136888e+00
2.050750083925901190e+00
2.071563219092379615e+00
2.071563219092379615e+00
2.067625598925748598e+00
2.067625598925748598e+00
2.043249855037080120e+00
2.038374706259346247e+00
2.038374706259346247e+00
2.066875576036866669e+00
2.066875576036866669e+00
2.079063447981200685e+00
2.076813379314554453e+00
2.076813379314554453e+00
2.059750358592486119e+00
2.059750358592486119e+00
2.051125095370342155e+00
2.056937772759178884e+00
2.056937772759178884e+00
2.064062990203558545e+00
2.064062990203558545e+00
2.065750541703543330e+00
2.049625049592577852e+00
2.049625049592577852e+00
2.058250312814721816e+00
2.058250312814721816e+00
2.062750450148014725e+00
2.071938230536820580e+00
2.071938230536820580e+00
2.076813379314554453e+00
2.069688161870173904e+00
2.069688161870173904e+00
2.054875209814752690e+00
2.054875209814752690e+00
2.053562669759208870e+00
2.064250495925779028e+00
2.064250495925779028e+00
2.022436719870601696e+00
2.022436719870601696e+00
2.036499649037140980e+00
2.053562669759208870e+00
2.053562669759208870e+00
2.049812555314798335e+00
2.049812555314798335e+00
2.052062623981445011e+00
2.060875392925809457e+00
2.060875392925809457e+00
2.076438367870113488e+00
2.076438367870113488e+00
2.072875759147922992e+00
2.074563310647907777e+00
2.074563310647907777e+00
2.079625965147862576e+00
2.079625965147862576e+00
2.080188482314524023e+00
2.077750907925656865e+00
2.077750907925656865e+00
2.057125278481399366e+00
2.037437177648243392e+00
2.037437177648243392e+00
2.038749717703787212e+00
2.038749717703787212e+00
2.065563035981322848e+00
2.058812829981383707e+00
2.058812829981383707e+00
2.042687337870418673e+00
2.042687337870418673e+00
2.046437452314828764e+00
2.060125370036927084e+00
2.060125370036927084e+00
2.075500839259010633e+00
2.075500839259010633e+00
2.076625873592333971e+00
2.059000335703604190e+00
2.059000335703604190e+00
2.044187383648182976e+00
2.044187383648182976e+00
2.053187658314767905e+00
2.074000793481246330e+00
2.074000793481246330e+00
2.053562669759208870e+00
2.053562669759208870e+00
2.042874843592639156e+00
2.083376079592272667e+00
2.083376079592272667e+00
2.073063264870143918e+00
2.056750267036957958e+00
2.056750267036957958e+00
2.089938779869991325e+00
2.089938779869991325e+00
2.041374797814874853e+00
2.050562578203680708e+00
2.050562578203680708e+00
2.080375988036744506e+00
2.080375988036744506e+00
2.053937681203650278e+00
2.058437818536942299e+00
2.058437818536942299e+00
2.078125919370098273e+00
2.078125919370098273e+00
2.059562852870265637e+00
2.009873836481826270e+00
2.009873836481826270e+00
2.027499374370555607e+00
2.027499374370555607e+00
2.065750541703543330e+00
2.071188207647938206e+00
2.071188207647938206e+00
2.052250129703665493e+00
2.052250129703665493e+00
2.058437818536942299e+00
2.068000610370189563e+00
2.068000610370189563e+00
2.062750450148014725e+00
2.054125186925870761e+00
2.054125186925870761e+00
2.055062715536973172e+00
2.055062715536973172e+00
2.077375896481215900e+00
2.095938962981048093e+00
2.095938962981048093e+00
2.065750541703543330e+00
2.065750541703543330e+00
2.052812646870326940e+00
2.066125553147984295e+00
2.066125553147984295e+00
2.088251228370006540e+00
2.058250312814721816e+00
2.031249488814966586e+00
2.031249488814966586e+00
2.062375438703573760e+00
2.062375438703573760e+00
2.060687887203588975e+00
2.067625598925748598e+00
2.067625598925748598e+00
2.050562578203680708e+00
2.050562578203680708e+00
2.056937772759178884e+00
2.068938138981292418e+00
2.068938138981292418e+00
2.064625507370219992e+00
2.064625507370219992e+00
2.094813928647724754e+00
2.080938505203405953e+00
2.080938505203405953e+00
2.057312784203619849e+00
2.057312784203619849e+00
2.032562028870509963e+00
2.028061891537217498e+00
2.028061891537217498e+00
2.048687520981474997e+00
2.048687520981474997e+00
2.076625873592333971e+00
2.065000518814661401e+00
2.065000518814661401e+00
2.030874477370525177e+00
2.038937223426007694e+00
2.038937223426007694e+00
2.089001251258888470e+00
2.089001251258888470e+00
2.081313516647846917e+00
2.068188116092410045e+00
2.068188116092410045e+00
2.077563402203436382e+00
2.077563402203436382e+00
2.057500289925840331e+00
2.059937864314706601e+00
2.059937864314706601e+00
2.057312784203619849e+00
2.057312784203619849e+00
2.071188207647938206e+00
2.082626056703390294e+00
2.082626056703390294e+00
2.077375896481215900e+00
2.077375896481215900e+00
2.044374889370403459e+00
2.047187475203710694e+00
2.047187475203710694e+00
2.073250770592364400e+00
2.043624866481521085e+00
2.043624866481521085e+00
2.012873928037354432e+00
2.012873928037354432e+00
2.029749443037202283e+00
2.053750175481429796e+00
2.080750999481185470e+00
2.080750999481185470e+00
2.069500656147953865e+00
2.069500656147953865e+00
2.066125553147984295e+00
2.067250587481307633e+00
2.067250587481307633e+00
2.071938230536820580e+00
2.071188207647938206e+00
2.071188207647938206e+00
2.053937681203650278e+00
2.053937681203650278e+00
2.055812738425855546e+00
2.056750267036957958e+00
2.056750267036957958e+00
2.061250404370250422e+00
2.061250404370250422e+00
2.054500198370311725e+00
2.068563127536851454e+00
2.068563127536851454e+00
2.082438550981169811e+00
2.082438550981169811e+00
2.079250953703421168e+00
2.086938688314462720e+00
2.086938688314462720e+00
2.063875484481338063e+00
2.063875484481338063e+00
2.031812005981628033e+00
2.024499282815027001e+00
2.024499282815027001e+00
2.035749626148258606e+00
2.030124454481643248e+00
2.030124454481643248e+00
2.045687429425947279e+00
2.045687429425947279e+00
2.018124088259529714e+00
2.059562852870265637e+00
2.059562852870265637e+00
2.093313882869960452e+00
2.093313882869960452e+00
2.113564500869777874e+00
2.129877498702963390e+00
2.129877498702963390e+00
2.088438734092227023e+00
2.088438734092227023e+00
2.087313699758903685e+00
1.955684682760093995e+00
1.955684682760093995e+00
2.017936582537308787e+00
2.023186742759483625e+00
2.023186742759483625e+00
2.050000061037018817e+00
2.050000061037018817e+00
2.086938688314462720e+00
2.098001525925473842e+00
2.098001525925473842e+00
2.079813470870083059e+00
2.079813470870083059e+00
2.102689168980987233e+00
2.103814203314310571e+00
2.103814203314310571e+00
2.059750358592486119e+00
2.046624958037049247e+00
2.046624958037049247e+00
2.078875942258980203e+00
2.078875942258980203e+00
2.069688161870173904e+00
2.038562211981566730e+00
2.038562211981566730e+00
2.055625232703635064e+00
2.055625232703635064e+00
2.048500015259254514e+00
2.032749534592730889e+00
2.032749534592730889e+00
2.058250312814721816e+00
2.074000793481246330e+00
2.074000793481246330e+00
2.067063081759087151e+00
2.067063081759087151e+00
2.004248664815210468e+00
1.978560380870998392e+00
1.978560380870998392e+00
2.026936857203894160e+00
2.026936857203894160e+00
2.047562486648152102e+00
2.073813287759025847e+00
2.073813287759025847e+00
2.083188573870052185e+00
2.083188573870052185e+00
2.093688894314401416e+00
2.103439191869869163e+00
2.103439191869869163e+00
2.076063356425672080e+00
2.076063356425672080e+00
2.050375072481459782e+00
2.034437086092715230e+00
2.034437086092715230e+00
2.059750358592486119e+00
2.073625782036805365e+00
2.073625782036805365e+00
2.054312692648091243e+00
2.054312692648091243e+00
2.039874752037110550e+00
2.069500656147953865e+00
2.069500656147953865e+00
2.087688711203345093e+00
2.087688711203345093e+00
2.061437910092470904e+00
2.092563859981078966e+00
2.092563859981078966e+00
2.058812829981383707e+00
2.058812829981383707e+00
2.036124637592700015e+00
1.924746238593707082e+00
2.079250953703421168e+00
2.079250953703421168e+00
2.075313333536790150e+00
2.075313333536790150e+00
2.043062349314859638e+00
2.055062715536973172e+00
2.055062715536973172e+00
2.078875942258980203e+00
2.078875942258980203e+00
2.065000518814661401e+00
2.057500289925840331e+00
2.057500289925840331e+00
2.051125095370342155e+00
2.051125095370342155e+00
2.082438550981169811e+00
2.050937589648121673e+00
2.050937589648121673e+00
2.078500930814539238e+00
2.078500930814539238e+00
2.111689443647572162e+00
2.110001892147587377e+00
2.110001892147587377e+00
2.043624866481521085e+00
2.034437086092715230e+00
2.034437086092715230e+00
2.062187932981353278e+00
2.062187932981353278e+00
2.059187841425824672e+00
2.015499008148442073e+00
2.015499008148442073e+00
2.029374431592760875e+00
2.029374431592760875e+00
2.051687612537003602e+00
2.054125186925870761e+00
2.054125186925870761e+00
2.092563859981078966e+00
2.092563859981078966e+00
2.075688344981231115e+00
2.067625598925748598e+00
2.067625598925748598e+00
2.043249855037080120e+00
2.016249031037324002e+00
2.016249031037324002e+00
2.053187658314767905e+00
2.053187658314767905e+00
2.063875484481338063e+00
2.088813745536667987e+00
2.088813745536667987e+00
2.044374889370403459e+00
2.044374889370403459e+00
2.000498550370799933e+00
2.037999694814905283e+00
2.037999694814905283e+00
2.059937864314706601e+00
2.059937864314706601e+00
2.092376354258858040e+00
2.077000885036774935e+00
2.077000885036774935e+00
2.032937040314951371e+00
2.032937040314951371e+00
1.988310678426465694e+00
2.002561113315225683e+00
2.002561113315225683e+00
2.072688253425702509e+00
2.072688253425702509e+00
2.101564134647663895e+00
2.077750907925656865e+00
2.077750907925656865e+00
2.063125461592455689e+00
2.084688619647816488e+00
2.084688619647816488e+00
2.101001617481002448e+00
2.101001617481002448e+00
2.082438550981169811e+00
2.059000335703604190e+00
2.059000335703604190e+00
2.071375713370158689e+00
2.071375713370158689e+00
2.081876033814508364e+00
2.056187749870296511e+00
2.056187749870296511e+00
2.059187841425824672e+00
2.059187841425824672e+00
2.069688161870173904e+00
2.076250862147892562e+00
2.076250862147892562e+00
2.036312143314920498e+00
2.036312143314920498e+00
2.033124546037171854e+00
2.056562761314737475e+00
2.056562761314737475e+00
2.068563127536851454e+00
2.068563127536851454e+00
2.040812280648213406e+00
2.033124546037171854e+00
2.033124546037171854e+00
2.018499099703970678e+00
2.069125644703512901e+00
2.069125644703512901e+00
2.090876308481094181e+00
2.090876308481094181e+00
2.065188024536881883e+00
2.071188207647938206e+00
2.071188207647938206e+00
2.075313333536790150e+00
2.075313333536790150e+00
2.029374431592760875e+00
2.024686788537247928e+00
2.024686788537247928e+00
2.032374523148289480e+00
2.032374523148289480e+00
2.037437177648243392e+00
1.985310586870937088e+00
1.985310586870937088e+00
2.055062715536973172e+00
2.086376171147801273e+00
2.086376171147801273e+00
2.136065187536240639e+00
2.136065187536240639e+00
2.115064546647541732e+00
2.088063722647786058e+00
2.088063722647786058e+00
2.070625690481276759e+00
2.070625690481276759e+00
2.060687887203588975e+00
1.988685689870906881e+00
1.988685689870906881e+00
2.002561113315225683e+00
2.002561113315225683e+00
2.011373882259590129e+00
2.051687612537003602e+00
2.051687612537003602e+00
2.062937955870235207e+00
2.062937955870235207e+00
2.068375621814630971e+00
2.059937864314706601e+00
2.059937864314706601e+00
2.128939970091860534e+00
2.128939970091860534e+00
2.118627155369731785e+00
2.100814111758781966e+00
2.100814111758781966e+00
2.073438276314584883e+00
2.081876033814508364e+00
2.081876033814508364e+00
2.099501571703238145e+00
2.099501571703238145e+00
2.034249580370494748e+00
2.005186193426313324e+00
2.005186193426313324e+00
2.006873744926298109e+00
2.006873744926298109e+00
1.991873287148655747e+00
2.057687795648060813e+00
2.057687795648060813e+00
2.084126102481154597e+00
2.084126102481154597e+00
2.078875942258980203e+00
2.048500015259254514e+00
2.048500015259254514e+00
2.053000152592547423e+00
2.053000152592547423e+00
2.077750907925656865e+00
2.059187841425824672e+00
2.059187841425824672e+00
2.065000518814661401e+00
2.037624683370464318e+00
2.037624683370464318e+00
2.034624591814935712e+00
2.034624591814935712e+00
2.059375347148045154e+00
2.042687337870418673e+00
2.042687337870418673e+00
2.045687429425947279e+00
2.045687429425947279e+00
2.121627246925260390e+00
2.078875942258980203e+00
2.078875942258980203e+00
2.055062715536973172e+00
2.055062715536973172e+00
2.005186193426313324e+00
2.013811456648457288e+00
2.013811456648457288e+00
2.067250587481307633e+00
2.067250587481307633e+00
2.112626972258675018e+00
2.044374889370403459e+00
2.044374889370403459e+00
1.984560563982054937e+00
1.984560563982054937e+00
2.022249214148381213e+00
2.083563585314493150e+00
2.083563585314493150e+00
2.087876216925565576e+00
2.103626697592089645e+00
2.103626697592089645e+00
2.092751365703299449e+00
2.092751365703299449e+00
2.071938230536820580e+00
2.042499832148198191e+00
2.042499832148198191e+00
2.029561937314981801e+00
2.029561937314981801e+00
2.012498916592913467e+00
2.022624225592822178e+00
2.022624225592822178e+00
2.028436902981658463e+00
2.036124637592700015e+00
2.036124637592700015e+00
2.016999053926206376e+00
2.016999053926206376e+00
2.050375072481459782e+00
2.131002533036286284e+00
2.131002533036286284e+00
2.141502853480635959e+00
2.141502853480635959e+00
2.086563676870021755e+00
2.067438093203528116e+00
2.067438093203528116e+00
2.100814111758781966e+00
2.100814111758781966e+00
2.139252784813989727e+00
2.080563493758964988e+00
2.080563493758964988e+00
2.029561937314981801e+00
2.029561937314981801e+00
2.040812280648213406e+00
2.027499374370555607e+00
2.027499374370555607e+00
1.988498184148686176e+00
2.016436536759544484e+00
2.016436536759544484e+00
2.107751823480941145e+00
2.108876857814264483e+00
2.108876857814264483e+00
2.080000976592303541e+00
2.034437086092715230e+00
2.034437086092715230e+00
2.031436994537187068e+00
2.079625965147862576e+00
2.079625965147862576e+00
2.101939146092104860e+00
2.101939146092104860e+00
2.132127567369609622e+00
2.113376995147556947e+00
2.113376995147556947e+00
2.060312875759148010e+00
2.060312875759148010e+00
2.037437177648243392e+00
1.989435712759789032e+00
1.989435712759789032e+00
2.038374706259346247e+00
2.038374706259346247e+00
2.107001800592058771e+00
1.981560472426526776e+00
1.981560472426526776e+00
1.941059236426893042e+00
1.999373516037476817e+00
1.999373516037476817e+00
2.157253334147160473e+00
2.157253334147160473e+00
2.144315439313944083e+00
2.121252235480818982e+00
2.121252235480818982e+00
2.078500930814539238e+00
2.078500930814539238e+00
2.004436170537430950e+00
2.033687063203833301e+00
2.033687063203833301e+00
