2.054875209814752690e+00
2.055062715536973172e+00
2.055062715536973172e+00
2.051687612537003602e+00
2.068563127536851454e+00
2.068563127536851454e+00
2.066313058870204777e+00
2.066313058870204777e+00
2.064625507370219992e+00
2.052062623981445011e+00
2.052062623981445011e+00
2.046999969481490211e+00
2.046999969481490211e+00
2.073438276314584883e+00
2.064813013092440475e+00
2.064813013092440475e+00
2.061812921536912313e+00
2.036312143314920498e+00
2.036312143314920498e+00
1.996373424481948211e+00
1.996373424481948211e+00
2.016624042481765411e+00
2.069313150425733383e+00
2.069313150425733383e+00
2.098376537369914807e+00
2.098376537369914807e+00
2.081876033814508364e+00
2.111689443647572162e+00
2.111689443647572162e+00
2.080750999481185470e+00
2.080750999481185470e+00
2.058250312814721816e+00
2.054687704092532208e+00
2.054687704092532208e+00
2.041374797814874853e+00
2.059000335703604190e+00
2.057125278481399366e+00
2.065375530259102366e+00
2.065375530259102366e+00
2.040999786370433888e+00
2.054312692648091243e+00
2.054312692648091243e+00
2.077000885036774935e+00
2.077000885036774935e+00
2.084876125370036970e+00
2.076438367870113488e+00
2.076438367870113488e+00
2.057875301370280852e+00
2.057875301370280852e+00
2.035937131870479533e+00
2.038562211981566730e+00
2.038562211981566730e+00
2.069875667592394830e+00
2.069875667592394830e+00
2.037624683370464318e+00
2.003311136204107612e+00
2.003311136204107612e+00
1.994123355815301979e+00
2.022624225592822178e+00
2.022624225592822178e+00
2.088626239814447505e+00
2.088626239814447505e+00
2.147690542313913653e+00
1.971435163426618287e+00
1.971435163426618287e+00
2.098376537369914807e+00
2.098376537369914807e+00
2.087501205481124167e+00
2.087501205481124167e+00
2.105314249092073986e+00
2.063875484481338063e+00
2.063875484481338063e+00
2.080188482314524023e+00
2.080188482314524023e+00
2.088063722647786058e+00
2.096126468703268575e+00
2.096126468703268575e+00
2.048312509537034032e+00
2.047937498092593067e+00
2.047937498092593067e+00
2.046812463759269729e+00
2.046812463759269729e+00
2.052062623981445011e+00
2.039124729148228621e+00
2.039124729148228621e+00
1.987748161259804025e+00
1.987748161259804025e+00
2.010998870815149164e+00
2.039499740592669585e+00
2.039499740592669585e+00
2.073063264870143918e+00
2.073063264870143918e+00
2.090688802758873255e+00
2.104939237647633021e+00
2.104939237647633021e+00
2.072875759147922992e+00
2.072875759147922992e+00
2.096876491592150504e+00
2.115814569536424106e+00
2.115814569536424106e+00
2.083376079592272667e+00
2.083376079592272667e+00
2.046999969481490211e+00
2.003686147648549021e+00
2.003686147648549021e+00
2.033499557481612818e+00
2.064062990203558545e+00
2.064062990203558545e+00
2.041562303537095335e+00
2.041562303537095335e+00
2.045499923703726353e+00
2.072875759147922992e+00
2.072875759147922992e+00
2.056375255592516993e+00
2.056375255592516993e+00
2.050000061037018817e+00
2.035374614703817642e+00
2.035374614703817642e+00
2.047562486648152102e+00
2.047562486648152102e+00
2.049437543870357370e+00
2.071938230536820580e+00
2.071938230536820580e+00
2.044937406537064906e+00
2.044937406537064906e+00
2.026749351481673678e+00
2.046624958037049247e+00
2.046624958037049247e+00
2.055437726981414581e+00
2.050000061037018817e+00
2.050000061037018817e+00
2.020186651203955464e+00
2.020186651203955464e+00
2.030874477370525177e+00
2.086376171147801273e+00
2.086376171147801273e+00
2.052062623981445011e+00
2.052062623981445011e+00
2.025811822870570822e+00
2.063312967314676172e+00
2.063312967314676172e+00
2.059375347148045154e+00
2.059375347148045154e+00
2.053375164036988387e+00
2.048500015259254514e+00
2.048500015259254514e+00
2.071375713370158689e+00
2.071375713370158689e+00
2.071750724814600098e+00
2.054500198370311725e+00
2.054500198370311725e+00
2.055625232703635064e+00
2.065188024536881883e+00
2.065188024536881883e+00
2.048312509537034032e+00
2.048312509537034032e+00
2.035749626148258606e+00
2.027874385814997016e+00
2.027874385814997016e+00
1.995435895870845799e+00
2.081876033814508364e+00
2.081876033814508364e+00
2.097251503036591469e+00
2.097251503036591469e+00
2.062750450148014725e+00
2.063687978759117581e+00
2.063687978759117581e+00
2.053000152592547423e+00
2.053000152592547423e+00
2.047374980925931620e+00
2.045874935148167761e+00
2.061625415814691387e+00
2.056937772759178884e+00
2.056937772759178884e+00
2.086001159703360308e+00
2.088438734092227023e+00
2.088438734092227023e+00
2.070063173314615312e+00
2.070063173314615312e+00
2.071938230536820580e+00
2.058812829981383707e+00
2.058812829981383707e+00
2.031436994537187068e+00
2.031436994537187068e+00
2.026186834315011787e+00
2.045499923703726353e+00
2.045499923703726353e+00
2.076813379314554453e+00
2.076813379314554453e+00
2.009873836481826270e+00
2.004436170537430950e+00
2.004436170537430950e+00
2.048312509537034032e+00
2.048312509537034032e+00
2.052437635425885976e+00
2.046249946592608282e+00
2.046249946592608282e+00
2.062750450148014725e+00
2.050187566759239299e+00
2.043999877925962494e+00
2.043999877925962494e+00
2.072688253425702509e+00
2.072688253425702509e+00
2.095376445814386202e+00
2.074750816370128703e+00
2.074750816370128703e+00
2.077000885036774935e+00
2.077000885036774935e+00
2.070625690481276759e+00
2.065188024536881883e+00
2.065188024536881883e+00
2.057687795648060813e+00
2.051312601092562637e+00
2.051312601092562637e+00
2.047749992370372585e+00
2.047749992370372585e+00
2.073438276314584883e+00
2.065375530259102366e+00
2.065375530259102366e+00
2.047374980925931620e+00
2.047374980925931620e+00
2.055250221259193655e+00
2.093876400036621899e+00
2.093876400036621899e+00
2.098751548814355772e+00
2.098751548814355772e+00
2.065188024536881883e+00
2.048875026703695923e+00
2.048875026703695923e+00
2.058250312814721816e+00
2.058250312814721816e+00
2.062187932981353278e+00
2.062937955870235207e+00
2.062937955870235207e+00
2.038187200537125765e+00
2.042874843592639156e+00
2.042874843592639156e+00
2.071000701925717724e+00
2.045874935148167761e+00
2.045874935148167761e+00
2.038562211981566730e+00
2.038562211981566730e+00
2.058625324259163225e+00
2.065563035981322848e+00
2.065563035981322848e+00
2.062937955870235207e+00
2.062937955870235207e+00
2.077563402203436382e+00
2.054312692648091243e+00
2.054312692648091243e+00
2.061625415814691387e+00
2.061625415814691387e+00
2.057125278481399366e+00
2.071938230536820580e+00
2.071938230536820580e+00
2.095001434369945237e+00
2.095001434369945237e+00
2.080563493758964988e+00
2.053750175481429796e+00
2.053750175481429796e+00
2.018124088259529714e+00
1.998810998870815148e+00
1.998810998870815148e+00
2.038562211981566730e+00
2.038562211981566730e+00
2.055625232703635064e+00
2.043999877925962494e+00
2.043999877925962494e+00
2.070813196203497242e+00
2.070813196203497242e+00
2.073813287759025847e+00
2.082251045258949329e+00
2.082251045258949329e+00
2.117877132480849411e+00
2.117877132480849411e+00
2.075313333536790150e+00
2.026749351481673678e+00
2.026749351481673678e+00
2.028436902981658463e+00
2.028436902981658463e+00
2.055250221259193655e+00
2.062562944425794242e+00
2.062562944425794242e+00
2.057875301370280852e+00
2.057875301370280852e+00
2.016999053926206376e+00
2.050937589648121673e+00
2.050937589648121673e+00
2.076438367870113488e+00
2.067625598925748598e+00
2.067625598925748598e+00
2.072500747703482027e+00
2.072500747703482027e+00
2.071563219092379615e+00
2.080750999481185470e+00
2.080750999481185470e+00
2.048687520981474997e+00
2.048687520981474997e+00
2.086563676870021755e+00
2.064438001647999510e+00
2.064438001647999510e+00
2.068375621814630971e+00
2.068375621814630971e+00
2.051875118259224084e+00
1.999748527481917781e+00
2.039124729148228621e+00
2.039124729148228621e+00
2.070063173314615312e+00
2.070063173314615312e+00
2.119752189703054679e+00
2.105689260536515395e+00
2.105689260536515395e+00
2.066313058870204777e+00
2.066313058870204777e+00
2.059000335703604190e+00
2.118252143925290376e+00
2.118252143925290376e+00
2.117127109591967482e+00
2.117127109591967482e+00
2.081126010925626435e+00
2.076813379314554453e+00
2.076813379314554453e+00
2.042874843592639156e+00
2.042874843592639156e+00
2.070438184759056277e+00
2.038937223426007694e+00
2.038937223426007694e+00
2.024686788537247928e+00
2.075313333536790150e+00
2.075313333536790150e+00
2.054875209814752690e+00
2.054875209814752690e+00
2.015499008148442073e+00
1.994498367259743166e+00
2.016436536759544484e+00
2.016436536759544484e+00
2.055062715536973172e+00
2.055062715536973172e+00
2.074188299203466812e+00
2.090876308481094181e+00
2.090876308481094181e+00
2.086938688314462720e+00
2.119002166814172750e+00
2.119002166814172750e+00
2.068750633259071936e+00
2.068750633259071936e+00
2.063687978759117581e+00
2.081313516647846917e+00
2.081313516647846917e+00
2.144877956480605530e+00
2.144877956480605530e+00
2.066313058870204777e+00
2.033312051759392336e+00
2.033312051759392336e+00
2.013998962370677770e+00
2.013998962370677770e+00
2.020936674092837393e+00
2.099876583147679110e+00
2.099876583147679110e+00
2.078500930814539238e+00
2.078500930814539238e+00
2.083563585314493150e+00
2.028436902981658463e+00
2.028436902981658463e+00
2.016249031037324002e+00
2.017749076815088305e+00
2.017749076815088305e+00
2.050187566759239299e+00
2.050187566759239299e+00
2.053750175481429796e+00
2.079063447981200685e+00
2.079063447981200685e+00
2.080188482314524023e+00
2.080188482314524023e+00
2.105314249092073986e+00
2.145065462202826012e+00
2.145065462202826012e+00
2.066125553147984295e+00
2.028436902981658463e+00
2.028436902981658463e+00
2.015123996704001108e+00
2.015123996704001108e+00
2.018124088259529714e+00
2.084313608203375079e+00
2.084313608203375079e+00
2.089563768425550361e+00
2.089563768425550361e+00
2.036499649037140980e+00
2.091438825647755628e+00
2.091438825647755628e+00
2.115064546647541732e+00
2.150128116702780368e+00
2.150128116702780368e+00
2.084688619647816488e+00
2.084688619647816488e+00
2.045312417981505870e+00
2.074938322092349186e+00
2.074938322092349186e+00
2.088251228370006540e+00
2.088251228370006540e+00
2.076438367870113488e+00
2.031061983092746104e+00
2.031061983092746104e+00
1.990935758537552891e+00
1.990935758537552891e+00
2.047187475203710694e+00
2.055812738425855546e+00
2.055812738425855546e+00
2.057687795648060813e+00
2.057687795648060813e+00
2.074375804925687294e+00
2.101751640369884377e+00
2.101751640369884377e+00
2.100064088869899592e+00
2.100064088869899592e+00
2.068188116092410045e+00
2.018874111148411643e+00
2.018874111148411643e+00
2.050187566759239299e+00
2.157440839869380955e+00
2.157440839869380955e+00
2.144502945036164565e+00
2.144502945036164565e+00
2.041562303537095335e+00
1.952872096926786094e+00
1.952872096926786094e+00
1.965059968871120333e+00
1.965059968871120333e+00
2.011748893704031538e+00
2.114502029480880285e+00
2.114502029480880285e+00
2.122564775536362802e+00
2.122564775536362802e+00
2.096501480147709540e+00
2.088251228370006540e+00
2.088251228370006540e+00
2.062750450148014725e+00
2.081501022370067400e+00
2.123502304147465658e+00
2.123502304147465658e+00
2.062187932981353278e+00
2.062187932981353278e+00
2.076625873592333971e+00
2.096126468703268575e+00
2.096126468703268575e+00
2.057687795648060813e+00
2.057687795648060813e+00
2.008561296426282894e+00
2.047749992370372585e+00
2.047749992370372585e+00
2.025999328592791304e+00
2.025999328592791304e+00
2.026561845759453195e+00
2.068000610370189563e+00
2.068000610370189563e+00
2.128939970091860534e+00
2.109064363536484965e+00
2.109064363536484965e+00
2.130815027314065802e+00
2.130815027314065802e+00
2.053375164036988387e+00
2.030874477370525177e+00
2.030874477370525177e+00
2.048687520981474997e+00
2.048687520981474997e+00
2.059000335703604190e+00
2.059000335703604190e+00
2.062937955870235207e+00
2.065563035981322848e+00
2.065563035981322848e+00
2.042687337870418673e+00
2.055437726981414581e+00
2.055437726981414581e+00
2.018311593981750196e+00
2.018311593981750196e+00
2.043249855037080120e+00
2.079438459425641650e+00
2.079438459425641650e+00
2.064250495925779028e+00
2.064250495925779028e+00
2.044749900814844423e+00
2.065000518814661401e+00
2.065000518814661401e+00
2.082626056703390294e+00
2.082626056703390294e+00
2.057687795648060813e+00
2.086563676870021755e+00
2.086563676870021755e+00
2.145065462202826012e+00
2.145065462202826012e+00
2.134940153202917745e+00
2.085626148258918899e+00
2.085626148258918899e+00
2.032937040314951371e+00
2.075313333536790150e+00
2.075313333536790150e+00
2.075500839259010633e+00
2.075500839259010633e+00
2.114689535203100768e+00
2.092751365703299449e+00
2.092751365703299449e+00
2.086188665425580790e+00
2.086188665425580790e+00
2.091251319925535146e+00
2.007623767815180038e+00
2.007623767815180038e+00
1.965622486037782002e+00
1.965622486037782002e+00
1.999186010315256334e+00
1.958684774315622379e+00
1.958684774315622379e+00
2.020374156926175946e+00
2.203004730368968822e+00
2.203004730368968822e+00
2.150128116702780368e+00
2.150128116702780368e+00
2.025624317148350340e+00
2.071188207647938206e+00
2.071188207647938206e+00
2.103814203314310571e+00
2.103814203314310571e+00
2.121627246925260390e+00
2.103626697592089645e+00
2.103626697592089645e+00
2.032937040314951371e+00
2.041187292092654371e+00
2.041187292092654371e+00
2.044562395092623941e+00
2.044562395092623941e+00
2.062750450148014725e+00
2.177878963591417971e+00
2.177878963591417971e+00
2.099876583147679110e+00
2.099876583147679110e+00
1.978935392315439357e+00
2.094813928647724754e+00
2.094813928647724754e+00
2.168503677480392078e+00
2.168503677480392078e+00
2.131377544480727693e+00
2.134940153202917745e+00
2.134940153202917745e+00
2.072875759147922992e+00
2.072875759147922992e+00
1.911808343760490692e+00
2.029561937314981801e+00
2.029561937314981801e+00
2.018311593981750196e+00
2.050562578203680708e+00
2.050562578203680708e+00
2.115439558091983141e+00
2.115439558091983141e+00
2.080563493758964988e+00
2.010998870815149164e+00
2.010998870815149164e+00
1.936371593371379873e+00
1.936371593371379873e+00
1.916120975371562896e+00
1.989248207037568328e+00
1.989248207037568328e+00
2.105314249092073986e+00
2.105314249092073986e+00
2.188566789757988129e+00
2.180879055146946577e+00
2.180879055146946577e+00
2.087501205481124167e+00
2.087501205481124167e+00
2.059750358592486119e+00
2.058062807092501334e+00
2.058062807092501334e+00
2.113001983703115982e+00
2.025436811426129857e+00
2.025436811426129857e+00
2.038187200537125765e+00
2.038187200537125765e+00
2.110751915036469750e+00
2.017374065370647340e+00
2.017374065370647340e+00
2.002936124759666647e+00
2.002936124759666647e+00
2.102314157536546269e+00
2.120127201147496088e+00
2.120127201147496088e+00
1.990560747093111926e+00
1.870369579149754324e+00
1.870369579149754324e+00
1.977060335093234089e+00
1.977060335093234089e+00
2.127814935758537640e+00
2.135315164647358710e+00
2.135315164647358710e+00
2.108126834925382109e+00
2.108126834925382109e+00
2.049437543870357370e+00
2.057687795648060813e+00
2.057687795648060813e+00
2.013811456648457288e+00
2.013811456648457288e+00
2.206004821924497428e+00
2.185379192480239485e+00
2.119564683980834197e+00
2.140190313425092139e+00
2.140190313425092139e+00
2.122377269814142320e+00
2.122377269814142320e+00
2.172253791924802613e+00
2.137002716147343495e+00
2.137002716147343495e+00
1.977435346537675276e+00
1.977435346537675276e+00
1.947809442426831961e+00
1.999186010315256334e+00
1.999186010315256334e+00
2.080188482314524023e+00
1.940684224982451855e+00
1.940684224982451855e+00
2.006311227759636218e+00
2.006311227759636218e+00
2.112626972258675018e+00
2.038374706259346247e+00
2.038374706259346247e+00
1.992435804315317194e+00
1.992435804315317194e+00
2.080750999481185470e+00
2.143752922147282192e+00
2.143752922147282192e+00
2.089001251258888470e+00
2.089001251258888470e+00
2.071750724814600098e+00
2.113189489425336465e+00
2.113189489425336465e+00
2.086938688314462720e+00
2.086938688314462720e+00
2.004436170537430950e+00
2.152565691091647082e+00
2.152565691091647082e+00
2.088251228370006540e+00
1.963934934537797217e+00
1.963934934537797217e+00
1.973685232093264519e+00
2.107564317758720662e+00
2.107564317758720662e+00
2.128189947202978605e+00
2.128189947202978605e+00
2.121064729758598499e+00
2.073438276314584883e+00
2.073438276314584883e+00
2.043812372203741567e+00
2.043812372203741567e+00
1.992998321481978863e+00
1.952872096926786094e+00
1.952872096926786094e+00
1.988873195593127363e+00
1.988873195593127363e+00
2.084501113925596005e+00
2.091063814203314664e+00
2.091063814203314664e+00
2.123689809869686140e+00
1.982310495315408927e+00
1.982310495315408927e+00
1.857431684316537934e+00
1.857431684316537934e+00
1.872432142094180296e+00
2.087501205481124167e+00
2.087501205481124167e+00
2.292257454145939732e+00
2.292257454145939732e+00
2.341946470534379099e+00
2.095938962981048093e+00
2.095938962981048093e+00
2.058625324259163225e+00
2.058625324259163225e+00
2.096501480147709540e+00
1.977060335093234089e+00
1.977060335093234089e+00
2.072500747703482027e+00
2.072500747703482027e+00
2.150128116702780368e+00
1.978747886593218652e+00
1.978747886593218652e+00
1.942559282204657345e+00
2.010811365092929126e+00
2.010811365092929126e+00
2.149190588091677956e+00
2.149190588091677956e+00
2.154628254036072832e+00
2.018874111148411643e+00
2.018874111148411643e+00
1.973122714926602850e+00
1.973122714926602850e+00
1.983623035370952525e+00
2.094813928647724754e+00
2.094813928647724754e+00
2.276694479201635701e+00
2.276694479201635701e+00
2.209379924924466998e+00
2.118439649647511303e+00
2.118439649647511303e+00
2.034249580370494748e+00
2.100439100314340557e+00
2.100439100314340557e+00
2.140752830591753586e+00
2.140752830591753586e+00
1.947059419537949809e+00
1.944434339426862390e+00
2.155190771202734279e+00
2.096876491592150504e+00
2.096876491592150504e+00
2.008373790704061967e+00
2.008373790704061967e+00
2.069875667592394830e+00
2.000311044648579006e+00
2.000311044648579006e+00
2.099314065981017663e+00
2.099314065981017663e+00
2.147315530869472244e+00
2.176941434980315559e+00
2.176941434980315559e+00
2.142065370647297406e+00
2.080938505203405953e+00
2.080938505203405953e+00
1.972372692037720920e+00
1.972372692037720920e+00
1.883869991149632384e+00
1.937121616260262025e+00
1.937121616260262025e+00
2.127252418591876193e+00
2.127252418591876193e+00
2.190441846980193397e+00
2.195692007202368234e+00
1.995248390148625317e+00
2.019999145481734981e+00
2.019999145481734981e+00
2.067813104647969080e+00
2.067813104647969080e+00
1.887057588427381249e+00
2.038187200537125765e+00
2.038187200537125765e+00
2.110564409314249268e+00
2.110564409314249268e+00
2.075313333536790150e+00
2.204129764702292160e+00
2.204129764702292160e+00
2.082813562425611220e+00
2.082813562425611220e+00
2.028249397259437981e+00
2.115252052369762659e+00
2.115252052369762659e+00
1.961684865871150762e+00
1.940684224982451855e+00
1.940684224982451855e+00
2.031624500259407551e+00
2.031624500259407551e+00
2.186691732535783306e+00
2.103439191869869163e+00
2.103439191869869163e+00
2.125752372814111890e+00
2.125752372814111890e+00
2.115814569536424106e+00
2.115814569536424106e+00
2.076813379314554453e+00
2.041937314981536300e+00
2.041937314981536300e+00
2.061437910092470904e+00
2.036124637592700015e+00
2.036124637592700015e+00
2.142627887813959298e+00
2.142627887813959298e+00
2.127814935758537640e+00
2.062000427259132795e+00
2.062000427259132795e+00
2.030124454481643248e+00
2.198129581591235393e+00
2.198129581591235393e+00
2.251568712424085295e+00
2.251568712424085295e+00
2.082626056703390294e+00
2.067438093203528116e+00
2.067438093203528116e+00
2.018499099703970678e+00
2.018499099703970678e+00
1.944809350871303355e+00
2.071750724814600098e+00
2.071750724814600098e+00
2.031999511703848516e+00
2.021124179815057875e+00
2.021124179815057875e+00
1.943309305093539274e+00
1.943309305093539274e+00
2.054687704092532208e+00
2.054687704092532208e+00
2.054687704092532208e+00
1.937871639149143954e+00
1.937871639149143954e+00
1.950434522537919158e+00
1.992810815759758380e+00
1.992810815759758380e+00
2.104376720480972018e+00
2.104376720480972018e+00
2.247256080813012868e+00
2.261131504257332114e+00
2.261131504257332114e+00
2.037999694814905283e+00
2.037999694814905283e+00
2.038374706259346247e+00
2.037062166203802427e+00
2.037062166203802427e+00
1.999748527481917781e+00
2.094063905758842381e+00
2.094063905758842381e+00
1.999373516037476817e+00
1.999373516037476817e+00
2.157815851313821920e+00
2.198692098757896396e+00
2.198692098757896396e+00
2.165316080202642990e+00
2.016999053926206376e+00
2.016999053926206376e+00
2.216880153813287624e+00
2.216880153813287624e+00
2.158190862758262885e+00
1.944809350871303355e+00
1.944809350871303355e+00
1.853681569872127621e+00
1.853681569872127621e+00
1.418480788598284859e+00
1.588548478652302753e+00
2.572203497421186036e+00
2.604829493087557513e+00
2.604829493087557513e+00
2.367072237311929506e+00
2.135315164647358710e+00
2.135315164647358710e+00
2.058437818536942299e+00
2.058437818536942299e+00
1.836993560594500696e+00
1.908995757927182790e+00
1.908995757927182790e+00
2.076063356425672080e+00
2.189316812646870059e+00
2.226817957090975852e+00
2.226817957090975852e+00
2.196442030091250608e+00
2.196442030091250608e+00
2.074188299203466812e+00
1.933934018982512937e+00
1.933934018982512937e+00
1.894745323038422802e+00
1.894745323038422802e+00
1.886682576982940063e+00
2.029374431592760875e+00
2.029374431592760875e+00
2.192129398480178182e+00
2.285319742423780109e+00
2.121814752647480873e+00
2.121814752647480873e+00
1.849368938261055417e+00
2.108126834925382109e+00
2.108126834925382109e+00
2.059375347148045154e+00
2.059375347148045154e+00
2.021311685537278358e+00
2.051875118259224084e+00
2.051875118259224084e+00
2.017936582537308787e+00
2.017936582537308787e+00
1.870557084871974807e+00
2.173378826258125951e+00
2.173378826258125951e+00
2.041374797814874853e+00
2.041374797814874853e+00
2.097626514481032878e+00
2.235630726035340299e+00
2.235630726035340299e+00
2.161003448591571008e+00
2.161003448591571008e+00
2.022624225592822178e+00
1.935809076204718204e+00
1.935809076204718204e+00
2.065750541703543330e+00
2.065750541703543330e+00
2.086751182592242237e+00
2.181816583758049433e+00
2.181816583758049433e+00
2.045124912259285388e+00
2.095563951536606684e+00
2.095563951536606684e+00
2.001436078981902345e+00
2.001436078981902345e+00
2.111314432203131197e+00
1.972935209204382367e+00
1.972935209204382367e+00
1.797617358928189857e+00
1.893057771538438017e+00
1.893057771538438017e+00
2.137190221869563977e+00
2.137190221869563977e+00
2.232818140202032620e+00
1.962809900204474101e+00
1.962809900204474101e+00
2.263944090090640238e+00
2.141690359202856442e+00
2.141690359202856442e+00
1.944246833704641908e+00
1.944246833704641908e+00
1.961872371593371245e+00
2.291882442701498768e+00
2.291882442701498768e+00
2.257193884090700653e+00
2.257193884090700653e+00
2.015123996704001108e+00
2.160815942869350526e+00
2.160815942869350526e+00
2.152940702536088047e+00
2.044187383648182976e+00
2.044187383648182976e+00
1.933559007538071750e+00
1.933559007538071750e+00
2.067813104647969080e+00
2.037437177648243392e+00
2.037437177648243392e+00
2.129314981536301499e+00
2.129314981536301499e+00
2.079625965147862576e+00
2.051500106814783120e+00
2.051500106814783120e+00
1.869057039094210726e+00
1.869057039094210726e+00
1.638800012207403789e+00
1.947996948149052443e+00
1.947996948149052443e+00
2.122752281258583285e+00
2.122752281258583285e+00
2.197754570146794428e+00
1.879557359538560180e+00
1.879557359538560180e+00
2.013436445204016323e+00
2.174878872035889810e+00
2.174878872035889810e+00
2.386760338145085036e+00
2.386760338145085036e+00
2.207504867702261730e+00
1.977435346537675276e+00
1.977435346537675276e+00
2.294132511368144556e+00
2.294132511368144556e+00
2.307070406201360946e+00
1.620424451429792301e+00
1.620424451429792301e+00
1.678738731040376075e+00
1.678738731040376075e+00
2.272569353312784202e+00
2.067250587481307633e+00
2.067250587481307633e+00
2.153878231147190458e+00
2.063875484481338063e+00
2.063875484481338063e+00
2.062375438703573760e+00
2.062375438703573760e+00
2.149940610980559885e+00
2.038937223426007694e+00
2.038937223426007694e+00
2.021124179815057875e+00
2.021124179815057875e+00
2.047562486648152102e+00
1.990373241370891666e+00
1.990373241370891666e+00
2.131940061647389140e+00
2.131940061647389140e+00
1.768366466261787728e+00
1.987560655537583543e+00
1.987560655537583543e+00
2.155753288369396170e+00
2.390697958311716054e+00
2.390697958311716054e+00
2.218380199591051927e+00
2.218380199591051927e+00
1.950434522537919158e+00
1.889495162816248186e+00
1.889495162816248186e+00
2.009686330759605788e+00
2.009686330759605788e+00
2.085626148258918899e+00
1.897932920316171668e+00
1.897932920316171668e+00
1.888557634205145552e+00
1.888557634205145552e+00
2.097251503036591469e+00
2.243130954924161813e+00
2.243130954924161813e+00
1.741178136539811350e+00
2.169441206091494490e+00
2.169441206091494490e+00
2.385260292367321178e+00
2.385260292367321178e+00
2.390135441145054607e+00
2.162691000091555793e+00
2.162691000091555793e+00
1.697114291817987786e+00
1.697114291817987786e+00
1.808680196539200979e+00
2.391260475478377501e+00
2.391260475478377501e+00
2.154440748313852350e+00
2.048687520981474997e+00
2.048687520981474997e+00
1.864181890316477075e+00
1.864181890316477075e+00
1.832118411816766823e+00
2.064250495925779028e+00
2.064250495925779028e+00
2.197004547257912055e+00
2.197004547257912055e+00
2.041562303537095335e+00
2.034812097537156195e+00
2.034812097537156195e+00
2.059937864314706601e+00
2.059937864314706601e+00
2.059000335703604190e+00
2.072875759147922992e+00
2.072875759147922992e+00
2.157815851313821920e+00
2.309132969145787140e+00
2.309132969145787140e+00
2.149565599536118921e+00
2.149565599536118921e+00
1.909183263649403273e+00
2.029936948759422766e+00
2.029936948759422766e+00
1.895120334482863989e+00
1.895120334482863989e+00
1.893620288705099686e+00
2.272569353312784202e+00
2.272569353312784202e+00
2.175441389202551257e+00
2.175441389202551257e+00
2.097063997314370987e+00
2.137565233314004942e+00
2.137565233314004942e+00
1.931496444593646222e+00
1.931496444593646222e+00
2.013248939481795396e+00
1.996560930204168693e+00
1.996560930204168693e+00
2.004623676259651432e+00
2.094063905758842381e+00
2.094063905758842381e+00
2.254193792535172935e+00
2.254193792535172935e+00
1.934871547593615571e+00
1.841868709372234347e+00
1.841868709372234347e+00
2.148815576647236547e+00
2.148815576647236547e+00
2.331071138645588459e+00
2.090501297036652772e+00
2.090501297036652772e+00
2.002373607593005200e+00
2.002373607593005200e+00
1.832305917538987305e+00
1.921746147038178698e+00
1.921746147038178698e+00
2.131752555925168657e+00
2.168316171758171151e+00
2.168316171758171151e+00
2.263194067201757864e+00
2.263194067201757864e+00
2.108314340647602592e+00
1.971997680593279956e+00
1.971997680593279956e+00
2.213880062257759462e+00
2.213880062257759462e+00
2.061812921536912313e+00
1.979122898037659839e+00
1.979122898037659839e+00
2.067625598925748598e+00
2.067625598925748598e+00
1.787679555650502072e+00
1.845431318094424178e+00
1.845431318094424178e+00
2.024311777092806519e+00
2.024311777092806519e+00
2.053937681203650278e+00
2.017186559648426858e+00
2.017186559648426858e+00
2.252318735312967224e+00
2.025624317148350340e+00
2.025624317148350340e+00
2.089563768425550361e+00
2.089563768425550361e+00
2.237130771813104602e+00
2.237318277535325084e+00
2.237318277535325084e+00
2.065188024536881883e+00
2.065188024536881883e+00
1.988873195593127363e+00
1.929996398815881919e+00
1.867744499038666905e+00
1.867744499038666905e+00
1.878244819483016581e+00
2.058625324259163225e+00
2.058625324259163225e+00
2.091063814203314664e+00
2.091063814203314664e+00
2.118439649647511303e+00
2.179754020813623683e+00
2.179754020813623683e+00
2.113939512314218838e+00
2.113939512314218838e+00
2.009498825037385306e+00
2.070438184759056277e+00
2.070438184759056277e+00
2.071188207647938206e+00
2.071188207647938206e+00
1.987373149815363060e+00
2.016249031037324002e+00
2.016249031037324002e+00
2.141127842036194995e+00
2.141127842036194995e+00
2.178066469313638454e+00
2.123502304147465658e+00
2.123502304147465658e+00
1.798929898983733677e+00
1.757116122928556123e+00
1.757116122928556123e+00
1.983060518204291078e+00
2.380760155034028269e+00
2.380760155034028269e+00
2.333508713034455617e+00
2.333508713034455617e+00
2.209004913480026033e+00
2.207879879146702695e+00
2.207879879146702695e+00
2.197567064424573946e+00
2.197567064424573946e+00
1.959622302926725235e+00
1.886120059816278616e+00
1.886120059816278616e+00
1.865681936094241156e+00
1.865681936094241156e+00
1.983435529648732043e+00
2.126314889980773337e+00
2.126314889980773337e+00
2.247631092257453833e+00
2.247631092257453833e+00
2.225880428479872997e+00
2.206942350535599839e+00
2.206942350535599839e+00
2.128002441480758122e+00
2.007811273537400520e+00
2.007811273537400520e+00
1.962434888760032914e+00
1.927558824427014983e+00
1.927558824427014983e+00
1.922683675649281332e+00
1.925308755760368751e+00
1.925308755760368751e+00
2.049250038148136888e+00
2.049250038148136888e+00
1.981935483870967740e+00
2.026186834315011787e+00
2.026186834315011787e+00
2.198692098757896396e+00
2.198692098757896396e+00
2.122752281258583285e+00
2.059562852870265637e+00
2.059562852870265637e+00
1.911245826593829245e+00
1.911245826593829245e+00
1.962247383037812432e+00
1.953997131260109432e+00
1.953997131260109432e+00
2.018499099703970678e+00
2.311195532090212890e+00
2.311195532090212890e+00
2.177878963591417971e+00
2.177878963591417971e+00
2.100814111758781966e+00
2.033124546037171854e+00
2.033124546037171854e+00
2.128377452925199087e+00
2.128377452925199087e+00
2.018874111148411643e+00
1.931308938871425740e+00
1.931308938871425740e+00
1.920621112704855360e+00
1.920621112704855360e+00
2.201317178868984037e+00
2.120314706869716570e+00
2.120314706869716570e+00
1.967122531815546083e+00
2.146002990813928868e+00
2.146002990813928868e+00
2.148440565202795582e+00
2.148440565202795582e+00
2.092938871425519931e+00
2.010623859370708644e+00
2.010623859370708644e+00
1.742303170873134688e+00
1.742303170873134688e+00
1.832118411816766823e+00
1.939184179204687553e+00
1.939184179204687553e+00
2.243130954924161813e+00
2.314570635090182460e+00
2.314570635090182460e+00
2.212005005035553751e+00
2.212005005035553751e+00
1.989623218482009515e+00
2.018124088259529714e+00
2.018124088259529714e+00
2.109626880703146412e+00
2.109626880703146412e+00
2.195504501480147752e+00
2.090876308481094181e+00
2.090876308481094181e+00
2.191379375591296252e+00
2.191379375591296252e+00
2.092938871425519931e+00
2.116939603869747000e+00
2.116939603869747000e+00
2.118064638203069894e+00
1.912558366649372843e+00
1.912558366649372843e+00
1.925496261482589233e+00
1.925496261482589233e+00
1.960747337260048351e+00
1.981560472426526776e+00
1.981560472426526776e+00
2.129502487258521981e+00
2.129502487258521981e+00
2.045499923703726353e+00
2.139627796258431136e+00
2.139627796258431136e+00
2.134752647480697263e+00
2.134752647480697263e+00
1.973685232093264519e+00
2.032937040314951371e+00
2.032937040314951371e+00
1.990748252815332409e+00
1.960372325815607386e+00
1.960372325815607386e+00
1.994123355815301979e+00
1.994123355815301979e+00
2.118252143925290376e+00
2.179379009369182274e+00
2.179379009369182274e+00
2.023561754203924590e+00
2.023561754203924590e+00
1.967122531815546083e+00
2.105876766258735877e+00
2.105876766258735877e+00
2.180504043702505612e+00
2.180504043702505612e+00
2.087126194036683202e+00
2.031436994537187068e+00
2.031436994537187068e+00
1.960372325815607386e+00
2.017561571092867823e+00
2.017561571092867823e+00
2.018874111148411643e+00
2.018874111148411643e+00
2.014936490981780626e+00
2.059000335703604190e+00
2.059000335703604190e+00
2.114689535203100768e+00
2.123689809869686140e+00
2.123689809869686140e+00
1.988310678426465694e+00
1.988310678426465694e+00
1.931871456038086965e+00
1.921746147038178698e+00
1.921746147038178698e+00
1.923246192815943001e+00
1.923246192815943001e+00
2.188379284035767647e+00
2.284382213812677254e+00
2.284382213812677254e+00
2.173003814813684542e+00
2.071938230536820580e+00
2.071938230536820580e+00
2.021311685537278358e+00
2.021311685537278358e+00
2.046249946592608282e+00
2.189129306924649576e+00
2.189129306924649576e+00
2.081876033814508364e+00
2.081876033814508364e+00
1.953247108371227281e+00
1.996373424481948211e+00
1.996373424481948211e+00
1.936746604815820838e+00
1.936746604815820838e+00
2.021124179815057875e+00
2.047937498092593067e+00
2.047937498092593067e+00
2.208067384868923178e+00
2.208067384868923178e+00
2.170941251869258792e+00
2.051875118259224084e+00
2.051875118259224084e+00
1.987373149815363060e+00
2.028624408703878945e+00
2.028624408703878945e+00
2.101939146092104860e+00
2.101939146092104860e+00
2.040062257759331033e+00
2.142440382091738371e+00
2.142440382091738371e+00
2.010436353648488161e+00
2.010436353648488161e+00
1.940309213538010891e+00
2.006498733481856700e+00
2.006498733481856700e+00
2.076250862147892562e+00
2.076250862147892562e+00
2.119564683980834197e+00
2.043437360759300603e+00
2.043437360759300603e+00
2.051687612537003602e+00
2.051687612537003602e+00
2.076625873592333971e+00
2.073438276314584883e+00
2.073438276314584883e+00
2.083563585314493150e+00
2.141877864925076924e+00
2.141877864925076924e+00
2.026936857203894160e+00
2.026936857203894160e+00
2.013623950926236805e+00
1.969560106204413019e+00
1.969560106204413019e+00
2.094438917203283790e+00
2.094438917203283790e+00
2.192316904202398664e+00
2.133065095980712478e+00
2.133065095980712478e+00
2.013061433759574914e+00
2.013061433759574914e+00
1.971997680593279956e+00
2.015123996704001108e+00
2.015123996704001108e+00
1.992435804315317194e+00
1.992435804315317194e+00
1.999373516037476817e+00
2.031061983092746104e+00
2.031061983092746104e+00
2.056187749870296511e+00
2.034437086092715230e+00
2.034437086092715230e+00
2.019999145481734981e+00
2.019999145481734981e+00
2.065938047425763813e+00
2.088251228370006540e+00
2.088251228370006540e+00
2.080000976592303541e+00
2.080000976592303541e+00
2.104939237647633021e+00
2.159128391369365740e+00
2.159128391369365740e+00
2.145815485091708386e+00
2.145815485091708386e+00
2.026374340037232713e+00
1.969372600482192537e+00
1.969372600482192537e+00
2.047562486648152102e+00
2.023186742759483625e+00
2.023186742759483625e+00
2.042499832148198191e+00
2.042499832148198191e+00
2.046062440870388244e+00
2.029749443037202283e+00
2.029749443037202283e+00
2.059000335703604190e+00
2.059000335703604190e+00
2.102689168980987233e+00
2.123314798425245176e+00
2.123314798425245176e+00
2.048875026703695923e+00
2.048875026703695923e+00
2.067250587481307633e+00
2.134752647480697263e+00
2.134752647480697263e+00
2.124627338480788552e+00
2.071563219092379615e+00
2.071563219092379615e+00
2.011373882259590129e+00
2.011373882259590129e+00
1.949872005371257710e+00
2.039687246314890068e+00
2.039687246314890068e+00
2.139065279091769245e+00
2.088438734092227023e+00
2.088438734092227023e+00
1.975935300759910973e+00
1.975935300759910973e+00
1.990185735648670962e+00
1.977247840815454571e+00
1.977247840815454571e+00
2.025999328592791304e+00
2.025999328592791304e+00
2.093876400036621899e+00
2.046812463759269729e+00
2.046812463759269729e+00
1.998248481704153479e+00
1.998248481704153479e+00
2.014936490981780626e+00
2.065750541703543330e+00
2.065750541703543330e+00
2.094813928647724754e+00
2.094813928647724754e+00
1.982122989593188223e+00
2.045312417981505870e+00
2.045312417981505870e+00
2.137190221869563977e+00
2.137190221869563977e+00
2.107001800592058771e+00
2.050750083925901190e+00
2.050750083925901190e+00
2.100439100314340557e+00
2.055437726981414581e+00
2.055437726981414581e+00
2.106626789147617806e+00
2.106626789147617806e+00
2.114877040925321250e+00
2.059000335703604190e+00
2.059000335703604190e+00
2.035937131870479533e+00
2.035937131870479533e+00
2.037812189092684800e+00
2.068750633259071936e+00
2.068750633259071936e+00
2.130815027314065802e+00
2.130815027314065802e+00
2.110751915036469750e+00
2.112064455092013571e+00
2.112064455092013571e+00
2.083376079592272667e+00
2.083376079592272667e+00
2.087688711203345093e+00
2.047187475203710694e+00
2.047187475203710694e+00
2.075875850703451597e+00
2.028436902981658463e+00
2.028436902981658463e+00
1.986998138370922096e+00
1.986998138370922096e+00
2.001998596148564236e+00
2.036312143314920498e+00
2.036312143314920498e+00
2.018311593981750196e+00
2.018311593981750196e+00
2.087313699758903685e+00
2.042687337870418673e+00
2.042687337870418673e+00
2.037624683370464318e+00
2.037624683370464318e+00
2.072688253425702509e+00
2.009686330759605788e+00
2.009686330759605788e+00
2.019624134037293572e+00
2.046062440870388244e+00
2.046062440870388244e+00
2.085063631092257452e+00
2.085063631092257452e+00
2.092563859981078966e+00
2.024311777092806519e+00
2.024311777092806519e+00
2.018686605426191161e+00
2.018686605426191161e+00
2.118252143925290376e+00
2.102689168980987233e+00
2.102689168980987233e+00
2.062562944425794242e+00
2.062562944425794242e+00
2.036687154759361462e+00
2.066875576036866669e+00
2.066875576036866669e+00
2.027311868648335125e+00
2.027311868648335125e+00
2.065375530259102366e+00
2.020374156926175946e+00
2.020374156926175946e+00
2.055812738425855546e+00
2.055812738425855546e+00
2.154440748313852350e+00
2.090313791314432290e+00
2.090313791314432290e+00
2.016624042481765411e+00
2.049250038148136888e+00
2.049250038148136888e+00
2.106439283425397324e+00
2.106439283425397324e+00
2.125564867091891408e+00
2.031999511703848516e+00
2.031999511703848516e+00
1.962247383037812432e+00
1.962247383037812432e+00
1.975560289315469786e+00
2.134752647480697263e+00
2.134752647480697263e+00
2.155378276924954761e+00
2.111126926480910715e+00
2.111126926480910715e+00
2.082626056703390294e+00
2.011748893704031538e+00
2.011748893704031538e+00
2.021686696981719766e+00
2.021686696981719766e+00
2.053750175481429796e+00
1.998998504593035630e+00
1.998998504593035630e+00
2.073625782036805365e+00
2.073625782036805365e+00
2.096876491592150504e+00
2.082063539536728847e+00
2.082063539536728847e+00
2.097814020203253360e+00
2.097814020203253360e+00
2.108314340647602592e+00
2.056937772759178884e+00
2.056937772759178884e+00
1.941621753593554489e+00
1.941621753593554489e+00
1.913870906704916663e+00
2.005186193426313324e+00
2.005186193426313324e+00
2.098939054536576698e+00
2.033687063203833301e+00
2.033687063203833301e+00
2.104189214758751536e+00
2.104189214758751536e+00
2.110751915036469750e+00
2.061062898648029940e+00
2.061062898648029940e+00
1.988873195593127363e+00
1.988873195593127363e+00
1.999936033204138486e+00
2.013811456648457288e+00
2.013811456648457288e+00
2.103814203314310571e+00
2.103814203314310571e+00
2.132877590258491995e+00
2.105689260536515395e+00
2.105689260536515395e+00
2.099501571703238145e+00
2.099501571703238145e+00
2.051687612537003602e+00
2.039687246314890068e+00
2.039687246314890068e+00
2.034249580370494748e+00
2.018499099703970678e+00
2.018499099703970678e+00
2.080938505203405953e+00
2.080938505203405953e+00
2.078125919370098273e+00
2.060875392925809457e+00
2.060875392925809457e+00
2.041562303537095335e+00
2.041562303537095335e+00
2.034999603259376677e+00
2.029186925870540392e+00
2.029186925870540392e+00
2.040999786370433888e+00
2.040999786370433888e+00
2.049812555314798335e+00
2.088251228370006540e+00
2.088251228370006540e+00
2.059187841425824672e+00
2.049812555314798335e+00
2.049812555314798335e+00
2.075875850703451597e+00
2.075875850703451597e+00
2.040999786370433888e+00
2.041749809259315818e+00
2.041749809259315818e+00
2.049062532425916405e+00
2.049062532425916405e+00
2.057687795648060813e+00
2.066313058870204777e+00
2.066313058870204777e+00
2.093876400036621899e+00
2.093876400036621899e+00
2.088251228370006540e+00
2.024311777092806519e+00
2.024311777092806519e+00
2.015123996704001108e+00
2.036874660481581945e+00
2.036874660481581945e+00
2.069688161870173904e+00
2.069688161870173904e+00
2.015499008148442073e+00
2.026186834315011787e+00
2.026186834315011787e+00
2.075875850703451597e+00
2.075875850703451597e+00
2.090688802758873255e+00
2.063500473036897098e+00
2.063500473036897098e+00
2.068188116092410045e+00
2.068188116092410045e+00
2.071188207647938206e+00
2.061250404370250422e+00
2.061250404370250422e+00
2.066125553147984295e+00
2.066125553147984295e+00
2.065188024536881883e+00
2.059375347148045154e+00
2.059375347148045154e+00
2.061625415814691387e+00
2.061625415814691387e+00
2.042874843592639156e+00
2.067063081759087151e+00
2.067063081759087151e+00
2.039874752037110550e+00
2.036687154759361462e+00
2.036687154759361462e+00
2.061625415814691387e+00
2.061625415814691387e+00
2.092938871425519931e+00
2.071000701925717724e+00
2.071000701925717724e+00
2.071188207647938206e+00
2.071188207647938206e+00
2.086938688314462720e+00
2.080000976592303541e+00
2.080000976592303541e+00
2.038562211981566730e+00
2.038562211981566730e+00
2.021124179815057875e+00
2.037999694814905283e+00
2.037999694814905283e+00
2.013811456648457288e+00
2.013811456648457288e+00
2.054500198370311725e+00
2.057875301370280852e+00
2.057875301370280852e+00
2.077000885036774935e+00
2.087688711203345093e+00
2.087688711203345093e+00
2.102876674703207716e+00
2.102876674703207716e+00
2.086751182592242237e+00
2.065563035981322848e+00
2.065563035981322848e+00
2.019811639759514499e+00
2.019811639759514499e+00
2.020936674092837393e+00
2.011373882259590129e+00
2.011373882259590129e+00
2.044562395092623941e+00
2.044562395092623941e+00
2.058437818536942299e+00
2.065938047425763813e+00
2.065938047425763813e+00
2.072688253425702509e+00
2.072688253425702509e+00
2.058250312814721816e+00
2.069500656147953865e+00
2.069500656147953865e+00
2.053000152592547423e+00
2.039687246314890068e+00
2.039687246314890068e+00
2.068000610370189563e+00
2.068000610370189563e+00
2.065188024536881883e+00
2.051312601092562637e+00
2.051312601092562637e+00
2.035374614703817642e+00
2.035374614703817642e+00
2.034062074648274265e+00
2.078875942258980203e+00
2.078875942258980203e+00
2.089938779869991325e+00
2.089938779869991325e+00
2.082626056703390294e+00
2.087126194036683202e+00
2.087126194036683202e+00
2.043062349314859638e+00
2.043062349314859638e+00
2.039499740592669585e+00
2.033687063203833301e+00
2.033687063203833301e+00
2.028249397259437981e+00
2.077750907925656865e+00
2.077750907925656865e+00
2.093126377147739969e+00
2.093126377147739969e+00
2.064438001647999510e+00
2.064062990203558545e+00
2.064062990203558545e+00
2.070063173314615312e+00
2.070063173314615312e+00
2.070625690481276759e+00
2.052062623981445011e+00
2.052062623981445011e+00
2.044749900814844423e+00
2.044749900814844423e+00
2.043624866481521085e+00
2.059375347148045154e+00
2.059375347148045154e+00
2.051500106814783120e+00
2.050562578203680708e+00
2.050562578203680708e+00
2.060125370036927084e+00
2.060125370036927084e+00
2.065188024536881883e+00
2.054687704092532208e+00
2.054687704092532208e+00
2.054687704092532208e+00
2.054687704092532208e+00
2.070625690481276759e+00
2.071375713370158689e+00
2.071375713370158689e+00
2.082251045258949329e+00
2.082251045258949329e+00
2.063125461592455689e+00
2.056562761314737475e+00
2.056562761314737475e+00
2.049250038148136888e+00
2.058062807092501334e+00
2.058062807092501334e+00
2.059187841425824672e+00
2.059187841425824672e+00
2.061812921536912313e+00
2.064813013092440475e+00
2.064813013092440475e+00
2.025624317148350340e+00
2.025624317148350340e+00
2.040062257759331033e+00
2.054875209814752690e+00
2.054875209814752690e+00
2.058625324259163225e+00
2.058625324259163225e+00
2.055437726981414581e+00
2.108876857814264483e+00
2.108876857814264483e+00
2.102314157536546269e+00
2.102314157536546269e+00
2.103626697592089645e+00
2.071750724814600098e+00
2.071750724814600098e+00
2.048875026703695923e+00
2.048875026703695923e+00
2.050937589648121673e+00
2.062562944425794242e+00
2.062562944425794242e+00
2.042874843592639156e+00
2.037812189092684800e+00
2.037812189092684800e+00
2.057687795648060813e+00
2.057687795648060813e+00
2.070438184759056277e+00
2.056000244148076028e+00
2.056000244148076028e+00
2.055625232703635064e+00
2.055625232703635064e+00
2.069125644703512901e+00
2.068563127536851454e+00
2.068563127536851454e+00
2.058437818536942299e+00
2.058437818536942299e+00
2.050375072481459782e+00
2.067438093203528116e+00
2.067438093203528116e+00
2.052625141148106458e+00
2.052625141148106458e+00
2.077750907925656865e+00
2.086751182592242237e+00
2.086751182592242237e+00
2.070250679036835795e+00
2.053562669759208870e+00
2.053562669759208870e+00
2.064625507370219992e+00
2.064625507370219992e+00
2.078313425092318756e+00
2.095563951536606684e+00
2.095563951536606684e+00
2.068375621814630971e+00
2.068375621814630971e+00
2.044187383648182976e+00
2.044937406537064906e+00
2.044937406537064906e+00
2.049625049592577852e+00
2.070625690481276759e+00
2.070625690481276759e+00
2.085063631092257452e+00
2.085063631092257452e+00
2.060125370036927084e+00
2.040624774925992480e+00
2.040624774925992480e+00
2.058625324259163225e+00
2.058625324259163225e+00
2.038937223426007694e+00
2.051875118259224084e+00
2.051875118259224084e+00
2.056750267036957958e+00
2.059000335703604190e+00
2.059000335703604190e+00
2.062750450148014725e+00
2.062750450148014725e+00
2.071563219092379615e+00
2.078313425092318756e+00
2.078313425092318756e+00
2.065563035981322848e+00
2.065563035981322848e+00
2.076813379314554453e+00
2.059187841425824672e+00
2.059187841425824672e+00
2.037437177648243392e+00
2.037437177648243392e+00
2.068000610370189563e+00
2.062000427259132795e+00
2.062000427259132795e+00
2.050750083925901190e+00
2.050750083925901190e+00
2.074375804925687294e+00
2.079625965147862576e+00
2.079625965147862576e+00
2.050750083925901190e+00
2.053937681203650278e+00
2.053937681203650278e+00
2.062937955870235207e+00
2.062937955870235207e+00
2.055062715536973172e+00
2.057312784203619849e+00
2.057312784203619849e+00
2.052812646870326940e+00
2.052812646870326940e+00
2.061812921536912313e+00
2.069500656147953865e+00
2.069500656147953865e+00
2.066313058870204777e+00
2.066313058870204777e+00
2.065375530259102366e+00
2.049437543870357370e+00
2.049437543870357370e+00
2.054312692648091243e+00
2.062375438703573760e+00
2.062375438703573760e+00
2.068563127536851454e+00
2.068563127536851454e+00
2.075688344981231115e+00
2.077563402203436382e+00
2.077563402203436382e+00
2.066875576036866669e+00
2.066875576036866669e+00
2.052812646870326940e+00
2.059375347148045154e+00
2.059375347148045154e+00
2.061812921536912313e+00
2.056000244148076028e+00
2.056000244148076028e+00
2.058437818536942299e+00
2.058437818536942299e+00
2.052250129703665493e+00
2.054687704092532208e+00
2.054687704092532208e+00
2.060687887203588975e+00
2.060687887203588975e+00
2.075875850703451597e+00
2.077188390758995418e+00
2.077188390758995418e+00
2.060687887203588975e+00
2.060687887203588975e+00
2.066125553147984295e+00
2.056562761314737475e+00
2.056562761314737475e+00
2.053375164036988387e+00
2.065375530259102366e+00
2.065375530259102366e+00
2.077750907925656865e+00
2.077750907925656865e+00
2.063125461592455689e+00
2.055625232703635064e+00
2.055625232703635064e+00
2.054500198370311725e+00
2.054500198370311725e+00
2.062000427259132795e+00
2.065750541703543330e+00
2.065750541703543330e+00
2.053000152592547423e+00
2.053000152592547423e+00
2.057687795648060813e+00
2.068188116092410045e+00
2.068188116092410045e+00
2.066313058870204777e+00
2.066313058870204777e+00
2.078500930814539238e+00
2.075688344981231115e+00
2.075688344981231115e+00
2.076813379314554453e+00
2.062562944425794242e+00
2.062562944425794242e+00
2.047562486648152102e+00
2.047562486648152102e+00
2.047374980925931620e+00
2.068750633259071936e+00
2.068750633259071936e+00
2.077938413647877791e+00
2.077938413647877791e+00
2.080188482314524023e+00
2.062937955870235207e+00
2.062937955870235207e+00
2.058437818536942299e+00
2.055250221259193655e+00
2.055250221259193655e+00
2.054125186925870761e+00
2.062000427259132795e+00
2.054687704092532208e+00
2.054687704092532208e+00
2.063687978759117581e+00
2.063687978759117581e+00
2.056937772759178884e+00
2.066688070314646186e+00
2.066688070314646186e+00
2.065750541703543330e+00
2.065750541703543330e+00
2.040437269203771997e+00
2.056000244148076028e+00
2.056000244148076028e+00
2.070250679036835795e+00
2.070250679036835795e+00
2.079438459425641650e+00
2.071375713370158689e+00
2.071375713370158689e+00
2.064062990203558545e+00
2.064062990203558545e+00
2.073063264870143918e+00
2.077375896481215900e+00
2.062375438703573760e+00
2.057312784203619849e+00
2.057312784203619849e+00
2.051125095370342155e+00
2.051125095370342155e+00
2.063312967314676172e+00
2.066500564592425260e+00
2.066500564592425260e+00
2.056187749870296511e+00
2.067063081759087151e+00
2.067063081759087151e+00
2.071563219092379615e+00
2.071563219092379615e+00
2.081688528092287882e+00
2.066125553147984295e+00
2.066125553147984295e+00
2.068000610370189563e+00
2.068000610370189563e+00
2.059750358592486119e+00
2.064438001647999510e+00
2.064438001647999510e+00
2.069313150425733383e+00
2.069313150425733383e+00
2.060500381481368493e+00
2.051500106814783120e+00
2.051500106814783120e+00
2.054125186925870761e+00
2.054125186925870761e+00
2.056187749870296511e+00
2.046437452314828764e+00
2.046437452314828764e+00
2.048312509537034032e+00
2.063312967314676172e+00
2.063312967314676172e+00
2.064250495925779028e+00
2.064438001647999510e+00
2.064438001647999510e+00
2.069875667592394830e+00
2.075313333536790150e+00
2.075313333536790150e+00
2.060875392925809457e+00
2.065563035981322848e+00
2.065563035981322848e+00
2.054125186925870761e+00
2.054125186925870761e+00
2.058812829981383707e+00
2.068750633259071936e+00
2.068750633259071936e+00
2.056000244148076028e+00
2.056000244148076028e+00
2.054687704092532208e+00
2.070625690481276759e+00
2.070625690481276759e+00
2.053187658314767905e+00
2.053187658314767905e+00
2.052062623981445011e+00
2.066125553147984295e+00
2.066125553147984295e+00
2.065188024536881883e+00
2.054875209814752690e+00
2.054875209814752690e+00
2.045499923703726353e+00
2.045499923703726353e+00
2.053562669759208870e+00
2.056750267036957958e+00
2.056750267036957958e+00
2.073625782036805365e+00
2.073625782036805365e+00
2.067250587481307633e+00
2.068563127536851454e+00
2.068563127536851454e+00
2.054312692648091243e+00
2.054312692648091243e+00
2.044562395092623941e+00
2.056000244148076028e+00
2.056000244148076028e+00
2.080563493758964988e+00
2.080563493758964988e+00
2.072313241981261545e+00
1.944809350871303355e+00
1.944809350871303355e+00
2.080563493758964988e+00
2.071750724814600098e+00
2.071750724814600098e+00
2.071563219092379615e+00
2.071563219092379615e+00
2.074938322092349186e+00
2.056000244148076028e+00
2.056000244148076028e+00
2.077750907925656865e+00
2.077750907925656865e+00
2.069875667592394830e+00
2.041374797814874853e+00
2.041374797814874853e+00
2.046999969481490211e+00
2.046999969481490211e+00
2.046812463759269729e+00
2.062375438703573760e+00
2.062375438703573760e+00
2.083188573870052185e+00
2.083188573870052185e+00
2.059000335703604190e+00
2.046062440870388244e+00
2.046062440870388244e+00
2.069125644703512901e+00
2.076063356425672080e+00
2.076063356425672080e+00
2.075688344981231115e+00
2.075688344981231115e+00
2.083751091036713632e+00
2.051312601092562637e+00
2.051312601092562637e+00
2.054875209814752690e+00
2.062750450148014725e+00
2.062750450148014725e+00
2.050375072481459782e+00
2.050375072481459782e+00
2.080188482314524023e+00
2.056562761314737475e+00
2.056562761314737475e+00
2.071000701925717724e+00
2.071000701925717724e+00
2.065750541703543330e+00
2.060875392925809457e+00
2.060875392925809457e+00
2.071750724814600098e+00
2.071750724814600098e+00
2.053187658314767905e+00
2.069500656147953865e+00
2.069500656147953865e+00
2.067250587481307633e+00
2.067250587481307633e+00
2.065563035981322848e+00
2.065563035981322848e+00
2.055812738425855546e+00
2.051500106814783120e+00
2.051500106814783120e+00
2.048687520981474997e+00
2.043812372203741567e+00
2.043812372203741567e+00
2.071188207647938206e+00
2.071188207647938206e+00
2.080375988036744506e+00
2.055625232703635064e+00
2.055625232703635064e+00
2.044749900814844423e+00
2.044749900814844423e+00
2.071188207647938206e+00
2.074000793481246330e+00
2.074000793481246330e+00
2.071938230536820580e+00
2.071938230536820580e+00
2.078500930814539238e+00
2.071938230536820580e+00
2.071938230536820580e+00
2.057125278481399366e+00
2.057125278481399366e+00
2.059937864314706601e+00
2.060875392925809457e+00
2.060875392925809457e+00
2.065188024536881883e+00
2.072125736259041062e+00
2.072125736259041062e+00
2.031812005981628033e+00
2.031812005981628033e+00
2.051875118259224084e+00
2.057125278481399366e+00
2.057125278481399366e+00
2.030499465926084213e+00
2.030499465926084213e+00
2.028436902981658463e+00
2.072500747703482027e+00
2.072500747703482027e+00
2.075313333536790150e+00
2.095001434369945237e+00
2.095001434369945237e+00
2.084313608203375079e+00
2.084313608203375079e+00
2.101939146092104860e+00
2.094813928647724754e+00
2.094813928647724754e+00
2.055437726981414581e+00
2.055437726981414581e+00
2.053937681203650278e+00
2.051687612537003602e+00
2.051687612537003602e+00
2.055250221259193655e+00
2.054875209814752690e+00
2.054875209814752690e+00
2.043624866481521085e+00
2.043624866481521085e+00
2.051687612537003602e+00
2.044187383648182976e+00
2.044187383648182976e+00
2.049812555314798335e+00
2.068938138981292418e+00
2.068938138981292418e+00
2.085251136814477935e+00
2.085251136814477935e+00
2.072125736259041062e+00
2.077375896481215900e+00
2.077375896481215900e+00
2.084126102481154597e+00
2.012873928037354432e+00
2.012873928037354432e+00
1.975935300759910973e+00
1.975935300759910973e+00
2.021499191259499284e+00
2.064062990203558545e+00
2.064062990203558545e+00
2.102501663258766751e+00
2.102501663258766751e+00
2.108689352092044000e+00
2.098189031647694325e+00
2.098189031647694325e+00
2.065938047425763813e+00
2.065938047425763813e+00
2.045312417981505870e+00
2.058062807092501334e+00
2.058062807092501334e+00
2.043999877925962494e+00
2.043999877925962494e+00
2.059750358592486119e+00
2.068375621814630971e+00
2.068375621814630971e+00
2.073438276314584883e+00
2.052250129703665493e+00
2.052250129703665493e+00
2.046437452314828764e+00
2.046437452314828764e+00
2.046062440870388244e+00
2.081501022370067400e+00
2.081501022370067400e+00
2.086188665425580790e+00
2.086188665425580790e+00
2.067063081759087151e+00
2.055437726981414581e+00
2.055437726981414581e+00
2.057875301370280852e+00
2.057875301370280852e+00
2.056562761314737475e+00
2.051125095370342155e+00
2.075875850703451597e+00
2.080000976592303541e+00
2.080000976592303541e+00
2.047749992370372585e+00
2.051125095370342155e+00
2.051125095370342155e+00
2.040999786370433888e+00
2.040999786370433888e+00
2.050750083925901190e+00
2.083563585314493150e+00
2.083563585314493150e+00
1.795179784539323142e+00
2.063500473036897098e+00
2.063500473036897098e+00
2.133815118869594407e+00
2.133815118869594407e+00
2.082813562425611220e+00
2.060312875759148010e+00
2.060312875759148010e+00
2.017749076815088305e+00
2.017749076815088305e+00
2.081501022370067400e+00
2.073625782036805365e+00
2.093876400036621899e+00
2.089938779869991325e+00
2.089938779869991325e+00
2.079813470870083059e+00
2.079813470870083059e+00
2.065563035981322848e+00
2.056562761314737475e+00
2.056562761314737475e+00
2.042687337870418673e+00
2.055812738425855546e+00
2.055812738425855546e+00
2.073438276314584883e+00
2.073438276314584883e+00
2.054687704092532208e+00
2.041374797814874853e+00
2.041374797814874853e+00
2.056187749870296511e+00
2.056187749870296511e+00
2.065563035981322848e+00
2.037437177648243392e+00
2.037437177648243392e+00
2.079813470870083059e+00
2.079813470870083059e+00
2.081126010925626435e+00
2.059562852870265637e+00
2.059562852870265637e+00
2.073813287759025847e+00
2.073813287759025847e+00
2.066500564592425260e+00
2.053562669759208870e+00
2.053562669759208870e+00
2.058812829981383707e+00
2.069688161870173904e+00
2.069688161870173904e+00
2.078688436536759720e+00
2.078688436536759720e+00
2.071563219092379615e+00
2.038937223426007694e+00
2.038937223426007694e+00
2.069688161870173904e+00
2.069688161870173904e+00
2.080938505203405953e+00
2.071750724814600098e+00
2.050562578203680708e+00
2.050562578203680708e+00
2.055812738425855546e+00
2.055812738425855546e+00
2.047749992370372585e+00
2.016249031037324002e+00
2.016249031037324002e+00
2.034437086092715230e+00
2.034437086092715230e+00
2.052812646870326940e+00
2.039687246314890068e+00
2.039687246314890068e+00
2.079625965147862576e+00
2.079625965147862576e+00
2.092938871425519931e+00
2.077938413647877791e+00
2.077938413647877791e+00
2.048875026703695923e+00
2.070250679036835795e+00
2.070250679036835795e+00
2.048125003814813549e+00
2.048125003814813549e+00
2.060125370036927084e+00
2.051687612537003602e+00
2.051687612537003602e+00
2.043062349314859638e+00
2.043062349314859638e+00
2.040812280648213406e+00
2.043812372203741567e+00
2.043812372203741567e+00
2.065188024536881883e+00
2.065188024536881883e+00
2.065188024536881883e+00
2.112439466536454535e+00
2.112439466536454535e+00
2.105126743369853504e+00
2.105126743369853504e+00
2.089001251258888470e+00
2.022061708426160731e+00
2.022061708426160731e+00
2.039874752037110550e+00
2.039874752037110550e+00
2.085813653981139382e+00
2.082626056703390294e+00
2.082626056703390294e+00
2.032749534592730889e+00
2.024124271370586037e+00
2.024124271370586037e+00
2.040249763481551515e+00
2.040249763481551515e+00
2.033499557481612818e+00
2.028624408703878945e+00
2.028624408703878945e+00
2.052437635425885976e+00
2.052437635425885976e+00
2.031249488814966586e+00
2.063875484481338063e+00
2.063875484481338063e+00
2.097439008758812395e+00
2.097439008758812395e+00
2.081313516647846917e+00
2.041749809259315818e+00
2.041749809259315818e+00
2.030874477370525177e+00
2.030874477370525177e+00
2.030874477370525177e+00
2.052437635425885976e+00
2.054500198370311725e+00
2.050187566759239299e+00
2.050187566759239299e+00
2.067250587481307633e+00
2.083188573870052185e+00
2.083188573870052185e+00
2.096688985869930022e+00
2.096688985869930022e+00
2.065188024536881883e+00
2.023749259926145072e+00
2.023749259926145072e+00
2.043999877925962494e+00
2.043999877925962494e+00
2.066125553147984295e+00
2.038937223426007694e+00
2.038937223426007694e+00
2.073250770592364400e+00
2.130065004425183872e+00
2.130065004425183872e+00
2.094438917203283790e+00
2.094438917203283790e+00
2.071375713370158689e+00
2.057500289925840331e+00
2.057500289925840331e+00
2.035187108981597159e+00
2.035187108981597159e+00
2.061062898648029940e+00
2.069313150425733383e+00
2.069313150425733383e+00
2.063687978759117581e+00
2.063687978759117581e+00
2.059750358592486119e+00
2.082251045258949329e+00
2.082251045258949329e+00
2.061625415814691387e+00
2.061625415814691387e+00
2.091626331369976111e+00
2.075500839259010633e+00
2.075500839259010633e+00
2.068375621814630971e+00
2.068375621814630971e+00
2.048312509537034032e+00
2.017561571092867823e+00
2.017561571092867823e+00
2.034437086092715230e+00
2.024124271370586037e+00
2.024124271370586037e+00
2.037437177648243392e+00
2.037437177648243392e+00
2.024874294259468410e+00
2.080750999481185470e+00
2.080750999481185470e+00
2.104376720480972018e+00
2.104376720480972018e+00
2.084876125370036970e+00
2.098564043092135289e+00
2.082438550981169811e+00
2.082438550981169811e+00
2.061250404370250422e+00
2.061250404370250422e+00
2.075500839259010633e+00
2.047749992370372585e+00
2.047749992370372585e+00
2.041374797814874853e+00
2.073063264870143918e+00
2.073063264870143918e+00
2.064438001647999510e+00
2.064438001647999510e+00
2.026186834315011787e+00
2.068000610370189563e+00
2.068000610370189563e+00
2.106064271980956359e+00
2.106064271980956359e+00
2.099876583147679110e+00
2.078875942258980203e+00
2.078875942258980203e+00
2.074563310647907777e+00
2.049812555314798335e+00
2.049812555314798335e+00
2.042312326425977265e+00
2.042312326425977265e+00
2.056187749870296511e+00
2.041749809259315818e+00
2.041749809259315818e+00
2.044374889370403459e+00
2.044374889370403459e+00
2.011936399426252020e+00
2.045499923703726353e+00
2.045499923703726353e+00
2.036124637592700015e+00
2.013436445204016323e+00
2.013436445204016323e+00
2.025624317148350340e+00
2.025624317148350340e+00
2.061625415814691387e+00
2.074000793481246330e+00
2.074000793481246330e+00
2.108314340647602592e+00
2.108314340647602592e+00
2.090688802758873255e+00
2.082063539536728847e+00
2.082063539536728847e+00
1.978372875148777910e+00
1.978372875148777910e+00
1.993935850093081497e+00
2.136065187536240639e+00
2.136065187536240639e+00
2.088438734092227023e+00
2.059750358592486119e+00
2.059750358592486119e+00
2.073250770592364400e+00
2.073250770592364400e+00
2.050000061037018817e+00
2.051125095370342155e+00
2.051125095370342155e+00
2.066500564592425260e+00
2.066500564592425260e+00
2.109439374980925930e+00
2.107751823480941145e+00
2.107751823480941145e+00
2.112251960814234053e+00
2.112251960814234053e+00
2.059750358592486119e+00
2.007998779259621003e+00
2.007998779259621003e+00
2.043624866481521085e+00
2.089188756981108952e+00
2.089188756981108952e+00
2.062000427259132795e+00
2.062000427259132795e+00
2.034062074648274265e+00
2.057500289925840331e+00
2.088626239814447505e+00
2.088626239814447505e+00
2.103626697592089645e+00
2.059187841425824672e+00
2.059187841425824672e+00
2.028061891537217498e+00
2.028061891537217498e+00
2.043812372203741567e+00
2.017936582537308787e+00
2.017936582537308787e+00
2.010436353648488161e+00
2.010436353648488161e+00
2.088251228370006540e+00
2.073438276314584883e+00
2.073438276314584883e+00
2.080188482314524023e+00
2.080188482314524023e+00
2.071375713370158689e+00
2.086376171147801273e+00
2.086376171147801273e+00
2.086563676870021755e+00
2.077563402203436382e+00
2.047749992370372585e+00
2.083376079592272667e+00
2.083376079592272667e+00
2.060687887203588975e+00
2.060687887203588975e+00
2.047937498092593067e+00
2.027874385814997016e+00
2.027874385814997016e+00
2.024124271370586037e+00
2.024124271370586037e+00
2.085438642536698417e+00
2.114877040925321250e+00
2.114877040925321250e+00
2.089001251258888470e+00
2.074563310647907777e+00
2.074563310647907777e+00
2.056937772759178884e+00
2.056937772759178884e+00
2.084126102481154597e+00
2.075500839259010633e+00
2.075500839259010633e+00
2.067063081759087151e+00
2.067063081759087151e+00
2.157253334147160473e+00
2.108126834925382109e+00
2.108126834925382109e+00
2.048500015259254514e+00
2.048500015259254514e+00
2.053750175481429796e+00
2.088251228370006540e+00
2.088251228370006540e+00
1.997685964537492032e+00
1.973685232093264519e+00
1.973685232093264519e+00
2.012686422315133949e+00
2.012686422315133949e+00
2.017374065370647340e+00
2.033687063203833301e+00
2.033687063203833301e+00
2.048687520981474997e+00
2.048687520981474997e+00
2.102314157536546269e+00
2.130627521591845319e+00
2.130627521591845319e+00
2.078875942258980203e+00
2.062562944425794242e+00
2.062562944425794242e+00
2.021686696981719766e+00
2.021686696981719766e+00
2.013623950926236805e+00
2.029374431592760875e+00
2.029374431592760875e+00
2.061625415814691387e+00
2.061625415814691387e+00
2.130815027314065802e+00
2.104939237647633021e+00
2.104939237647633021e+00
2.086188665425580790e+00
2.086188665425580790e+00
2.077938413647877791e+00
2.069500656147953865e+00
2.069500656147953865e+00
2.039687246314890068e+00
2.039687246314890068e+00
2.035562120426038124e+00
2.013061433759574914e+00
2.013061433759574914e+00
2.027124362926114642e+00
2.057125278481399366e+00
2.057125278481399366e+00
2.124439832758568070e+00
2.124439832758568070e+00
2.109251869258705447e+00
2.102126651814325342e+00
2.102126651814325342e+00
2.137377727591784460e+00
2.137377727591784460e+00
2.133815118869594407e+00
2.138690267647328280e+00
2.138690267647328280e+00
2.123689809869686140e+00
2.123689809869686140e+00
2.053187658314767905e+00
2.014561479537339217e+00
2.014561479537339217e+00
1.959059785760063566e+00
1.959059785760063566e+00
2.030874477370525177e+00
2.049437543870357370e+00
2.049437543870357370e+00
2.002373607593005200e+00
2.059937864314706601e+00
2.059937864314706601e+00
2.046999969481490211e+00
2.046999969481490211e+00
2.068188116092410045e+00
2.077938413647877791e+00
2.077938413647877791e+00
2.036874660481581945e+00
2.036874660481581945e+00
2.089376262703329878e+00
2.086563676870021755e+00
2.086563676870021755e+00
2.093688894314401416e+00
2.093688894314401416e+00
2.074938322092349186e+00
2.038937223426007694e+00
2.038937223426007694e+00
1.999936033204138486e+00
1.999936033204138486e+00
2.057687795648060813e+00
2.116189580980865070e+00
2.116189580980865070e+00
2.090876308481094181e+00
2.066313058870204777e+00
2.066313058870204777e+00
2.077750907925656865e+00
2.070063173314615312e+00
2.070063173314615312e+00
2.050000061037018817e+00
2.050000061037018817e+00
2.088063722647786058e+00
2.084876125370036970e+00
2.084876125370036970e+00
2.000686056093020415e+00
2.000686056093020415e+00
1.944621845149082873e+00
2.017186559648426858e+00
2.017186559648426858e+00
2.098751548814355772e+00
2.098751548814355772e+00
2.084876125370036970e+00
2.086563676870021755e+00
2.069313150425733383e+00
2.069313150425733383e+00
2.022249214148381213e+00
2.028999420148319910e+00
2.028999420148319910e+00
2.072500747703482027e+00
2.113564500869777874e+00
2.113564500869777874e+00
2.101001617481002448e+00
2.101001617481002448e+00
2.070438184759056277e+00
2.058812829981383707e+00
2.058812829981383707e+00
2.076813379314554453e+00
2.076813379314554453e+00
2.066688070314646186e+00
1.993185827204199345e+00
1.993185827204199345e+00
1.958684774315622379e+00
1.958684774315622379e+00
2.017561571092867823e+00
2.087313699758903685e+00
2.087313699758903685e+00
2.160065919980468152e+00
2.160065919980468152e+00
2.225505417035432032e+00
2.160440931424909561e+00
2.160440931424909561e+00
2.161753471480452937e+00
2.161753471480452937e+00
2.185191686758019003e+00
2.084688619647816488e+00
2.084688619647816488e+00
1.994123355815301979e+00
1.997873470259712514e+00
1.997873470259712514e+00
1.964872463148899850e+00
1.964872463148899850e+00
1.876932279427472761e+00
1.949121982482375781e+00
1.949121982482375781e+00
2.083938596758934114e+00
2.083938596758934114e+00
2.115627063814203623e+00
2.198879604480116878e+00
2.198879604480116878e+00
2.145252967925046494e+00
2.125939878536332373e+00
2.125939878536332373e+00
2.042312326425977265e+00
1.987373149815363060e+00
1.987373149815363060e+00
1.971435163426618287e+00
1.971435163426618287e+00
2.046437452314828764e+00
2.118627155369731785e+00
2.118627155369731785e+00
2.104564226203192501e+00
2.104564226203192501e+00
2.068375621814630971e+00
2.074375804925687294e+00
2.074375804925687294e+00
2.153690725424969976e+00
2.153690725424969976e+00
2.158190862758262885e+00
2.134940153202917745e+00
2.134940153202917745e+00
2.078125919370098273e+00
2.055812738425855546e+00
2.055812738425855546e+00
2.037062166203802427e+00
2.037062166203802427e+00
1.970122623371074688e+00
2.051687612537003602e+00
2.051687612537003602e+00
1.991310769981994078e+00
1.991310769981994078e+00
1.984935575426496124e+00
2.005748710592974771e+00
2.005748710592974771e+00
2.109064363536484965e+00
2.109064363536484965e+00
2.105689260536515395e+00
2.038374706259346247e+00
2.038374706259346247e+00
2.038374706259346247e+00
2.038374706259346247e+00
2.080563493758964988e+00
2.128752464369640052e+00
2.128752464369640052e+00
2.159690908536027187e+00
2.159690908536027187e+00
2.104376720480972018e+00
2.065938047425763813e+00
2.065938047425763813e+00
2.032562028870509963e+00
2.019624134037293572e+00
2.019624134037293572e+00
1.988310678426465694e+00
1.988310678426465694e+00
2.047749992370372585e+00
2.086376171147801273e+00
2.086376171147801273e+00
2.081501022370067400e+00
2.081501022370067400e+00
2.121252235480818982e+00
2.055062715536973172e+00
2.055062715536973172e+00
2.087876216925565576e+00
2.087876216925565576e+00
2.157253334147160473e+00
2.147315530869472244e+00
2.147315530869472244e+00
2.004998687704092397e+00
1.968435071871089903e+00
1.968435071871089903e+00
2.004436170537430950e+00
1.961872371593371245e+00
1.961872371593371245e+00
2.010623859370708644e+00
2.010623859370708644e+00
2.147128025147251762e+00
2.171878780480361648e+00
2.171878780480361648e+00
2.190254341257972914e+00
2.190254341257972914e+00
2.147690542313913653e+00
2.108314340647602592e+00
2.108314340647602592e+00
2.065938047425763813e+00
2.065938047425763813e+00
1.977810357982116241e+00
1.901495529038361942e+00
1.901495529038361942e+00
1.953622119815668245e+00
2.019999145481734981e+00
2.028436902981658463e+00
2.028436902981658463e+00
2.011936399426252020e+00
2.011936399426252020e+00
2.142252876369517889e+00
2.194754478591265823e+00
2.194754478591265823e+00
2.279319559312723342e+00
2.279319559312723342e+00
2.162691000091555793e+00
2.066688070314646186e+00
2.066688070314646186e+00
2.021311685537278358e+00
2.027686880092776089e+00
2.027686880092776089e+00
2.014186468092898252e+00
2.014186468092898252e+00
1.969747611926633502e+00
1.961122348704489093e+00
1.961122348704489093e+00
2.046062440870388244e+00
2.046062440870388244e+00
2.105126743369853504e+00
2.065563035981322848e+00
2.065563035981322848e+00
1.926808801538132832e+00
1.926808801538132832e+00
2.057687795648060813e+00
2.236755760368663637e+00
2.236755760368663637e+00
2.193816949980162967e+00
2.145440473647266977e+00
2.145440473647266977e+00
2.064062990203558545e+00
2.064062990203558545e+00
1.942371776482436641e+00
1.984748069704275641e+00
1.984748069704275641e+00
2.018499099703970678e+00
2.018499099703970678e+00
2.048500015259254514e+00
2.060875392925809457e+00
2.051312601092562637e+00
2.051312601092562637e+00
2.059562852870265637e+00
2.059562852870265637e+00
2.113189489425336465e+00
2.116752098147526517e+00
2.116752098147526517e+00
2.225692922757652514e+00
2.225692922757652514e+00
2.136627704702902530e+00
2.113189489425336465e+00
2.113189489425336465e+00
2.039687246314890068e+00
2.039687246314890068e+00
2.027874385814997016e+00
2.103439191869869163e+00
2.103439191869869163e+00
2.064438001647999510e+00
1.992435804315317194e+00
1.992435804315317194e+00
1.970122623371074688e+00
1.970122623371074688e+00
2.002936124759666647e+00
2.087501205481124167e+00
2.087501205481124167e+00
2.061437910092470904e+00
2.061437910092470904e+00
2.010623859370708644e+00
2.017936582537308787e+00
2.017936582537308787e+00
2.184066652424695665e+00
2.184066652424695665e+00
2.275381939146092325e+00
2.137190221869563977e+00
2.137190221869563977e+00
1.909745780816064942e+00
1.906933194982757040e+00
1.906933194982757040e+00
2.066125553147984295e+00
2.066125553147984295e+00
2.077563402203436382e+00
1.980622943815424142e+00
1.980622943815424142e+00
1.929433881649220250e+00
1.929433881649220250e+00
1.983248023926511561e+00
2.004998687704092397e+00
2.004998687704092397e+00
2.140377819147312621e+00
2.140377819147312621e+00
2.171316263313699757e+00
2.217817682424390480e+00
2.217817682424390480e+00
2.144877956480605530e+00
2.144877956480605530e+00
2.085251136814477935e+00
2.022249214148381213e+00
2.022249214148381213e+00
2.127252418591876193e+00
2.127252418591876193e+00
2.028624408703878945e+00
1.971247657704397804e+00
1.971247657704397804e+00
2.062000427259132795e+00
2.100251594592120075e+00
2.100251594592120075e+00
1.980622943815424142e+00
1.978372875148777910e+00
2.105501754814294912e+00
2.105501754814294912e+00
2.115814569536424106e+00
2.185754203924680450e+00
2.185754203924680450e+00
2.199442121646778769e+00
2.199442121646778769e+00
2.042124820703756782e+00
2.003123630481887130e+00
2.003123630481887130e+00
2.042874843592639156e+00
2.033499557481612818e+00
2.033499557481612818e+00
2.078688436536759720e+00
2.078688436536759720e+00
2.203567247535630269e+00
2.182754112369151844e+00
2.182754112369151844e+00
2.106814294869838289e+00
2.106814294869838289e+00
2.042312326425977265e+00
2.042312326425977265e+00
2.061625415814691387e+00
1.929621387371440955e+00
1.929621387371440955e+00
1.838306100650044295e+00
1.838306100650044295e+00
1.854244087038789068e+00
1.842993743705557463e+00
1.842993743705557463e+00
2.052812646870326940e+00
2.377760063478499664e+00
2.377760063478499664e+00
2.351321756645405436e+00
2.351321756645405436e+00
2.100064088869899592e+00
2.123127292703024249e+00
2.123127292703024249e+00
2.055062715536973172e+00
2.055062715536973172e+00
1.934121524704733419e+00
1.955122165593432548e+00
1.955122165593432548e+00
2.040999786370433888e+00
2.040999786370433888e+00
2.051125095370342155e+00
2.029561937314981801e+00
2.029561937314981801e+00
2.089001251258888470e+00
2.089001251258888470e+00
2.125002349925229961e+00
2.131002533036286284e+00
2.131002533036286284e+00
2.165316080202642990e+00
2.165316080202642990e+00
2.016811548203985893e+00
2.014748985259559699e+00
2.014748985259559699e+00
2.116377086703085553e+00
1.901870540482802907e+00
1.901870540482802907e+00
2.065375530259102366e+00
2.065375530259102366e+00
1.871494613483077663e+00
1.938434156315805401e+00
1.938434156315805401e+00
2.067438093203528116e+00
2.067438093203528116e+00
2.189316812646870059e+00
2.253256263924070080e+00
2.253256263924070080e+00
2.177128940702536042e+00
2.094626422925504272e+00
2.094626422925504272e+00
2.260381481368449741e+00
2.260381481368449741e+00
2.237880794701986531e+00
1.985685598315378275e+00
1.985685598315378275e+00
1.939934202093569704e+00
1.939934202093569704e+00
2.125002349925229961e+00
2.154065736869411385e+00
2.154065736869411385e+00
2.059187841425824672e+00
2.059187841425824672e+00
2.065375530259102366e+00
2.023561754203924590e+00
2.023561754203924590e+00
2.058250312814721816e+00
2.058250312814721816e+00
2.119189672536393232e+00
2.015311502426221590e+00
2.015311502426221590e+00
1.916120975371562896e+00
1.916120975371562896e+00
2.087688711203345093e+00
2.207317361980041248e+00
2.207317361980041248e+00
2.047937498092593067e+00
1.929621387371440955e+00
1.929621387371440955e+00
1.943871822260200721e+00
1.943871822260200721e+00
2.124252327036347587e+00
2.038562211981566730e+00
2.038562211981566730e+00
2.020749168370616911e+00
2.020749168370616911e+00
2.094813928647724754e+00
2.141690359202856442e+00
2.141690359202856442e+00
2.010436353648488161e+00
2.010436353648488161e+00
1.998810998870815148e+00
2.016436536759544484e+00
2.016436536759544484e+00
1.921183629871517029e+00
1.921183629871517029e+00
1.963559923093356252e+00
2.035562120426038124e+00
2.035562120426038124e+00
2.011936399426252020e+00
2.011936399426252020e+00
2.105501754814294912e+00
2.164753563035981099e+00
2.164753563035981099e+00
2.028624408703878945e+00
2.060687887203588975e+00
2.060687887203588975e+00
2.063875484481338063e+00
2.063875484481338063e+00
2.104939237647633021e+00
2.212567522202215642e+00
2.212567522202215642e+00
2.132127567369609622e+00
2.134190130314035372e+00
2.134190130314035372e+00
1.996185918759727951e+00
1.996185918759727951e+00
1.980435438093203437e+00
2.064062990203558545e+00
2.064062990203558545e+00
1.981372966704306293e+00
1.981372966704306293e+00
2.107564317758720662e+00
2.494763634144108178e+00
2.494763634144108178e+00
2.167753654591509704e+00
2.167753654591509704e+00
1.984373058259834677e+00
2.194004455702383449e+00
2.194004455702383449e+00
1.858556718649861272e+00
1.875057222205267493e+00
2.192129398480178182e+00
2.245193517868587563e+00
2.245193517868587563e+00
2.023374248481704107e+00
2.023374248481704107e+00
2.102501663258766751e+00
2.333133701590014208e+00
2.333133701590014208e+00
2.147503036591693171e+00
2.147503036591693171e+00
1.864556901760918040e+00
1.869807061983092877e+00
1.869807061983092877e+00
2.045499923703726353e+00
2.045499923703726353e+00
1.998060975981932996e+00
1.960559831537827868e+00
1.960559831537827868e+00
1.825930722983489574e+00
1.825930722983489574e+00
1.917433515427106494e+00
2.220817773979919085e+00
2.220817773979919085e+00
2.172253791924802613e+00
2.215380108035523765e+00
2.215380108035523765e+00
2.145252967925046494e+00
2.145252967925046494e+00
2.158565874202703849e+00
1.900370494705038604e+00
1.900370494705038604e+00
1.890620197149571302e+00
1.890620197149571302e+00
2.389572923978392716e+00
2.130440015869624837e+00
2.130440015869624837e+00
1.982498001037629409e+00
1.982498001037629409e+00
1.752240974150822472e+00
1.965622486037782002e+00
1.965622486037782002e+00
2.106064271980956359e+00
2.106064271980956359e+00
2.080000976592303541e+00
1.944434339426862390e+00
1.944434339426862390e+00
1.828368297372356288e+00
1.921371135593737511e+00
1.921371135593737511e+00
2.159690908536027187e+00
2.159690908536027187e+00
2.197379558702353020e+00
2.149190588091677956e+00
2.149190588091677956e+00
2.205629810480056463e+00
2.215005096591082356e+00
2.215005096591082356e+00
2.067438093203528116e+00
2.067438093203528116e+00
1.801367473372600614e+00
2.025249305703909375e+00
2.025249305703909375e+00
2.166066103091524919e+00
2.166066103091524919e+00
2.277256996368297592e+00
2.132877590258491995e+00
2.132877590258491995e+00
2.188941801202429094e+00
2.121814752647480873e+00
2.121814752647480873e+00
1.961684865871150762e+00
1.961684865871150762e+00
1.958309762871181414e+00
2.174316354869228363e+00
2.174316354869228363e+00
2.008373790704061967e+00
2.008373790704061967e+00
2.031812005981628033e+00
1.965809991760002484e+00
1.965809991760002484e+00
2.073438276314584883e+00
2.073438276314584883e+00
2.119189672536393232e+00
2.241443403424177028e+00
2.241443403424177028e+00
2.045499923703726353e+00
2.045499923703726353e+00
1.905433149204992960e+00
2.094626422925504272e+00
2.094626422925504272e+00
1.975185277871028822e+00
1.975185277871028822e+00
1.912370860927152361e+00
1.979122898037659839e+00
1.979122898037659839e+00
2.207317361980041248e+00
2.127627430036317158e+00
2.127627430036317158e+00
2.026561845759453195e+00
2.026561845759453195e+00
1.988873195593127363e+00
1.943871822260200721e+00
1.943871822260200721e+00
2.133252601702932960e+00
2.133252601702932960e+00
1.983060518204291078e+00
1.847493881038850150e+00
1.847493881038850150e+00
2.020749168370616911e+00
2.020749168370616911e+00
2.043999877925962494e+00
2.166253608813745402e+00
2.350759239478743989e+00
2.221380291146580532e+00
2.221380291146580532e+00
2.088813745536667987e+00
1.987185644093142578e+00
1.987185644093142578e+00
2.050375072481459782e+00
2.050375072481459782e+00
2.217067659535508550e+00
2.077750907925656865e+00
2.077750907925656865e+00
1.943684316537980239e+00
1.943684316537980239e+00
2.028999420148319910e+00
1.954559648426770879e+00
1.954559648426770879e+00
1.801742484817041579e+00
1.801742484817041579e+00
1.947434430982390996e+00
2.206754844813379357e+00
2.181629078035828950e+00
2.181629078035828950e+00
2.188941801202429094e+00
2.206754844813379357e+00
2.206754844813379357e+00
2.116189580980865070e+00
2.116189580980865070e+00
2.182191595202490397e+00
2.092563859981078966e+00
2.092563859981078966e+00
1.882182439649647598e+00
1.846181340983306329e+00
1.846181340983306329e+00
1.930933927426984553e+00
1.930933927426984553e+00
1.889682668538468668e+00
1.808305185094760015e+00
1.808305185094760015e+00
2.263944090090640238e+00
2.263944090090640238e+00
2.123127292703024249e+00
2.271631824701681346e+00
2.271631824701681346e+00
2.293382488479262626e+00
2.293382488479262626e+00
2.183691640980254700e+00
2.037624683370464318e+00
2.037624683370464318e+00
2.040437269203771997e+00
2.040437269203771997e+00
2.064250495925779028e+00
1.902245551927244094e+00
1.902245551927244094e+00
1.828368297372356288e+00
1.910495803704947093e+00
1.910495803704947093e+00
1.991685781426435042e+00
2.222505325479903426e+00
2.222505325479903426e+00
2.387697866756187448e+00
2.261881527146214044e+00
2.261881527146214044e+00
2.133627613147373925e+00
2.133627613147373925e+00
1.989248207037568328e+00
2.039124729148228621e+00
2.039124729148228621e+00
2.060500381481368493e+00
2.060500381481368493e+00
2.059562852870265637e+00
2.004623676259651432e+00
2.004623676259651432e+00
1.977622852259895758e+00
1.977622852259895758e+00
2.031999511703848516e+00
1.931871456038086965e+00
1.931871456038086965e+00
2.085438642536698417e+00
2.203754753257850751e+00
2.203754753257850751e+00
2.122189764091921838e+00
2.122189764091921838e+00
2.111876949369793088e+00
2.104751731925412539e+00
2.104751731925412539e+00
1.967310037537766565e+00
1.967310037537766565e+00
1.999373516037476817e+00
1.952122074037903943e+00
1.952122074037903943e+00
1.907120700704977745e+00
1.997873470259712514e+00
1.997873470259712514e+00
2.217630176702169997e+00
2.217630176702169997e+00
2.164378551591540134e+00
2.019811639759514499e+00
2.019811639759514499e+00
2.026561845759453195e+00
2.026561845759453195e+00
1.972747703482162107e+00
1.886120059816278616e+00
1.886120059816278616e+00
2.194004455702383449e+00
2.194004455702383449e+00
2.057125278481399366e+00
2.091063814203314664e+00
2.091063814203314664e+00
2.077938413647877791e+00
1.899432966093935971e+00
1.899432966093935971e+00
2.175253883480330774e+00
2.175253883480330774e+00
2.204129764702292160e+00
2.112251960814234053e+00
2.112251960814234053e+00
2.195129490035706787e+00
2.195129490035706787e+00
1.902433057649464576e+00
1.781304361095004118e+00
1.781304361095004118e+00
1.893807794427320168e+00
1.893807794427320168e+00
2.035562120426038124e+00
2.223442854091006282e+00
2.223442854091006282e+00
2.165316080202642990e+00
2.165316080202642990e+00
2.081501022370067400e+00
2.197567064424573946e+00
2.197567064424573946e+00
2.203004730368968822e+00
2.105501754814294912e+00
1.998248481704153479e+00
1.998248481704153479e+00
1.958872280037843083e+00
2.033874568926053783e+00
2.033874568926053783e+00
1.942559282204657345e+00
1.942559282204657345e+00
1.825180700094607422e+00
2.019811639759514499e+00
2.019811639759514499e+00
2.077375896481215900e+00
2.077375896481215900e+00
2.015874019592883037e+00
2.067813104647969080e+00
2.067813104647969080e+00
2.151815668202764709e+00
2.151815668202764709e+00
2.269569261757255596e+00
2.205442304757835537e+00
2.203567247535630269e+00
2.127439924314096675e+00
2.127439924314096675e+00
1.994123355815301979e+00
2.016436536759544484e+00
2.016436536759544484e+00
1.963747428815576734e+00
1.963747428815576734e+00
1.842243720816675312e+00
1.884807519760735017e+00
1.884807519760735017e+00
1.924933744315927786e+00
2.141690359202856442e+00
2.141690359202856442e+00
2.050000061037018817e+00
2.050000061037018817e+00
2.088626239814447505e+00
2.158003357036042402e+00
2.158003357036042402e+00
2.090126285592211808e+00
2.090126285592211808e+00
2.057687795648060813e+00
2.085813653981139382e+00
2.085813653981139382e+00
2.106626789147617806e+00
2.106626789147617806e+00
2.068938138981292418e+00
2.015874019592883037e+00
2.015874019592883037e+00
2.003686147648549021e+00
2.300132694479201767e+00
2.300132694479201767e+00
2.281569627979369130e+00
2.281569627979369130e+00
2.126877407147435228e+00
1.934871547593615571e+00
1.934871547593615571e+00
1.861744315927610138e+00
1.861744315927610138e+00
1.867181981872005458e+00
1.873744682149723673e+00
1.873744682149723673e+00
2.016999053926206376e+00
2.016999053926206376e+00
2.195879512924588717e+00
2.146190496536149350e+00
2.146190496536149350e+00
1.980622943815424142e+00
2.181066560869167059e+00
2.181066560869167059e+00
2.243693472090823260e+00
2.243693472090823260e+00
2.077938413647877791e+00
2.034062074648274265e+00
2.034062074648274265e+00
2.000123538926358524e+00
2.000123538926358524e+00
2.030311960203863730e+00
2.016811548203985893e+00
2.016811548203985893e+00
2.051875118259224084e+00
2.026561845759453195e+00
2.026561845759453195e+00
2.170191228980376863e+00
2.170191228980376863e+00
2.311383037812433372e+00
2.080188482314524023e+00
2.080188482314524023e+00
1.965434980315561520e+00
1.965434980315561520e+00
1.972747703482162107e+00
1.930933927426984553e+00
1.930933927426984553e+00
2.046812463759269729e+00
2.046812463759269729e+00
2.129877498702963390e+00
2.098751548814355772e+00
2.098751548814355772e+00
2.005561204870754288e+00
2.005561204870754288e+00
2.019249122592852608e+00
2.232630634479812137e+00
2.232630634479812137e+00
2.044749900814844423e+00
1.981372966704306293e+00
1.981372966704306293e+00
2.098939054536576698e+00
2.098939054536576698e+00
1.950247016815698675e+00
1.867181981872005458e+00
1.867181981872005458e+00
1.966747520371105118e+00
1.966747520371105118e+00
1.987748161259804025e+00
2.103064180425428198e+00
2.103064180425428198e+00
2.104751731925412539e+00
2.104751731925412539e+00
2.225505417035432032e+00
2.122564775536362802e+00
2.122564775536362802e+00
2.122189764091921838e+00
2.122189764091921838e+00
2.169816217535935454e+00
2.172253791924802613e+00
2.172253791924802613e+00
2.027311868648335125e+00
2.027311868648335125e+00
1.920996124149296547e+00
1.990185735648670962e+00
1.990185735648670962e+00
2.067813104647969080e+00
2.007623767815180038e+00
2.007623767815180038e+00
2.006498733481856700e+00
2.006498733481856700e+00
2.019999145481734981e+00
2.071375713370158689e+00
2.071375713370158689e+00
2.193629444257942485e+00
2.193629444257942485e+00
2.146190496536149350e+00
2.043249855037080120e+00
2.043249855037080120e+00
2.061437910092470904e+00
1.958309762871181414e+00
1.958309762871181414e+00
1.945184362315744542e+00
1.945184362315744542e+00
2.056750267036957958e+00
2.186879238258003344e+00
2.186879238258003344e+00
2.238818323313089387e+00
2.238818323313089387e+00
1.956247199926755442e+00
1.956247199926755442e+00
1.944059327982421204e+00
1.937309121982482507e+00
1.937309121982482507e+00
2.026936857203894160e+00
2.026936857203894160e+00
2.076438367870113488e+00
2.265256630146183614e+00
2.265256630146183614e+00
2.188004272591326682e+00
2.188004272591326682e+00
2.074750816370128703e+00
2.058437818536942299e+00
2.058437818536942299e+00
1.995623401593066282e+00
2.073438276314584883e+00
2.073438276314584883e+00
2.118439649647511303e+00
2.118439649647511303e+00
1.884995025482955278e+00
1.906370677816095593e+00
1.906370677816095593e+00
2.006123722037415735e+00
2.006123722037415735e+00
2.124252327036347587e+00
2.164003540147099169e+00
2.164003540147099169e+00
2.133627613147373925e+00
2.133627613147373925e+00
2.045312417981505870e+00
1.912370860927152361e+00
1.912370860927152361e+00
2.043812372203741567e+00
2.043812372203741567e+00
2.141877864925076924e+00
2.043999877925962494e+00
2.043999877925962494e+00
2.115439558091983141e+00
2.156315805536057617e+00
2.156315805536057617e+00
2.202442213202307375e+00
2.202442213202307375e+00
2.099501571703238145e+00
1.957372234260078780e+00
1.957372234260078780e+00
1.987560655537583543e+00
1.987560655537583543e+00
1.905808160649433924e+00
1.953059602649006798e+00
1.953059602649006798e+00
2.018499099703970678e+00
2.018499099703970678e+00
2.097814020203253360e+00
2.118252143925290376e+00
2.118252143925290376e+00
2.106439283425397324e+00
2.068750633259071936e+00
2.068750633259071936e+00
2.044562395092623941e+00
2.044562395092623941e+00
2.008373790704061967e+00
1.935246559038056535e+00
1.935246559038056535e+00
2.168128666035950669e+00
2.168128666035950669e+00
2.209942442091128445e+00
2.051875118259224084e+00
2.051875118259224084e+00
1.989623218482009515e+00
1.989623218482009515e+00
1.978372875148777910e+00
2.032562028870509963e+00
2.032562028870509963e+00
2.046999969481490211e+00
2.130440015869624837e+00
2.130440015869624837e+00
2.195692007202368234e+00
2.195692007202368234e+00
2.031624500259407551e+00
2.054125186925870761e+00
2.054125186925870761e+00
2.083938596758934114e+00
2.083938596758934114e+00
1.963934934537797217e+00
2.013248939481795396e+00
2.013248939481795396e+00
2.128752464369640052e+00
2.128752464369640052e+00
2.133252601702932960e+00
2.104939237647633021e+00
2.104939237647633021e+00
2.085813653981139382e+00
2.085813653981139382e+00
1.994310861537522683e+00
1.951747062593462978e+00
1.951747062593462978e+00
1.992060792870876229e+00
1.909183263649403273e+00
1.909183263649403273e+00
2.109626880703146412e+00
2.109626880703146412e+00
2.144502945036164565e+00
2.038749717703787212e+00
2.038749717703787212e+00
1.984748069704275641e+00
1.984748069704275641e+00
2.033687063203833301e+00
2.062375438703573760e+00
2.062375438703573760e+00
2.055062715536973172e+00
2.055062715536973172e+00
1.976872829371013607e+00
1.990748252815332409e+00
2.153315713980529011e+00
2.262819055757316900e+00
2.262819055757316900e+00
2.135127658925138228e+00
2.101751640369884377e+00
2.101751640369884377e+00
2.083751091036713632e+00
2.083751091036713632e+00
2.159315897091586223e+00
1.990560747093111926e+00
1.990560747093111926e+00
1.951747062593462978e+00
1.951747062593462978e+00
2.062937955870235207e+00
2.020749168370616911e+00
2.020749168370616911e+00
2.009311319315164823e+00
2.016436536759544484e+00
2.016436536759544484e+00
2.041749809259315818e+00
1.983623035370952525e+00
1.983998046815393712e+00
1.983998046815393712e+00
2.043812372203741567e+00
2.043812372203741567e+00
2.018311593981750196e+00
2.140565324869533104e+00
2.140565324869533104e+00
2.139815301980651618e+00
2.139815301980651618e+00
2.037624683370464318e+00
2.031812005981628033e+00
2.031812005981628033e+00
2.108314340647602592e+00
2.108314340647602592e+00
2.130252510147404355e+00
2.048312509537034032e+00
2.048312509537034032e+00
2.035374614703817642e+00
2.035374614703817642e+00
2.110939420758690233e+00
2.044187383648182976e+00
2.044187383648182976e+00
2.063500473036897098e+00
2.061812921536912313e+00
2.061812921536912313e+00
2.027686880092776089e+00
2.027686880092776089e+00
2.001811090426343309e+00
1.994873378704184130e+00
1.994873378704184130e+00
2.027874385814997016e+00
2.027874385814997016e+00
2.092563859981078966e+00
2.134565141758476781e+00
2.015686513870662555e+00
2.015686513870662555e+00
2.007998779259621003e+00
2.007998779259621003e+00
1.970872646259956840e+00
1.986248115482039944e+00
1.986248115482039944e+00
2.104564226203192501e+00
2.104564226203192501e+00
2.134002624591814889e+00
2.089001251258888470e+00
2.089001251258888470e+00
2.109814386425366894e+00
2.067813104647969080e+00
2.067813104647969080e+00
2.054125186925870761e+00
2.054125186925870761e+00
2.012311410870692985e+00
2.070625690481276759e+00
2.070625690481276759e+00
2.097814020203253360e+00
2.097814020203253360e+00
2.113939512314218838e+00
2.083001068147831703e+00
2.083001068147831703e+00
2.052812646870326940e+00
2.027311868648335125e+00
2.027311868648335125e+00
2.101001617481002448e+00
2.101001617481002448e+00
2.124627338480788552e+00
2.073625782036805365e+00
2.073625782036805365e+00
2.062187932981353278e+00
2.062187932981353278e+00
2.099314065981017663e+00
2.012873928037354432e+00
2.012873928037354432e+00
1.932996490371410303e+00
1.932996490371410303e+00
2.017186559648426858e+00
2.037999694814905283e+00
2.037999694814905283e+00
2.107001800592058771e+00
2.107001800592058771e+00
2.082251045258949329e+00
2.089751274147770843e+00
2.089751274147770843e+00
1.974060243537705706e+00
2.083188573870052185e+00
2.083188573870052185e+00
2.077000885036774935e+00
2.077000885036774935e+00
2.071188207647938206e+00
2.021874202703940249e+00
2.021874202703940249e+00
2.015686513870662555e+00
2.015686513870662555e+00
2.042124820703756782e+00
2.095001434369945237e+00
2.095001434369945237e+00
2.080750999481185470e+00
2.080750999481185470e+00
2.043624866481521085e+00
2.117502121036408447e+00
2.117502121036408447e+00
2.158565874202703849e+00
2.087501205481124167e+00
2.087501205481124167e+00
2.045124912259285388e+00
2.045124912259285388e+00
2.024124271370586037e+00
2.004811181981871915e+00
2.004811181981871915e+00
2.053000152592547423e+00
2.053000152592547423e+00
2.051875118259224084e+00
2.102126651814325342e+00
2.128752464369640052e+00
2.128752464369640052e+00
2.139815301980651618e+00
2.027874385814997016e+00
2.027874385814997016e+00
2.021874202703940249e+00
2.021874202703940249e+00
2.079063447981200685e+00
2.058250312814721816e+00
2.058250312814721816e+00
2.046062440870388244e+00
2.046062440870388244e+00
1.986810632648701391e+00
2.021124179815057875e+00
2.021124179815057875e+00
2.001436078981902345e+00
2.001436078981902345e+00
2.076250862147892562e+00
2.146190496536149350e+00
2.122564775536362802e+00
2.122564775536362802e+00
2.038749717703787212e+00
2.000498550370799933e+00
2.000498550370799933e+00
2.040062257759331033e+00
2.040062257759331033e+00
2.110939420758690233e+00
2.081126010925626435e+00
2.081126010925626435e+00
2.013248939481795396e+00
1.989435712759789032e+00
1.989435712759789032e+00
2.005748710592974771e+00
2.005748710592974771e+00
2.082438550981169811e+00
2.192504409924619146e+00
2.192504409924619146e+00
2.104751731925412539e+00
2.104751731925412539e+00
2.056562761314737475e+00
2.090501297036652772e+00
2.090501297036652772e+00
2.084688619647816488e+00
2.084688619647816488e+00
2.058062807092501334e+00
1.996560930204168693e+00
1.996560930204168693e+00
2.039312234870449103e+00
2.039312234870449103e+00
2.104564226203192501e+00
2.102314157536546269e+00
2.102314157536546269e+00
2.020186651203955464e+00
1.971622669148838769e+00
1.971622669148838769e+00
2.074938322092349186e+00
2.074938322092349186e+00
2.039687246314890068e+00
2.095376445814386202e+00
2.095376445814386202e+00
2.104939237647633021e+00
2.104939237647633021e+00
2.082063539536728847e+00
2.068938138981292418e+00
2.006311227759636218e+00
2.006311227759636218e+00
2.007623767815180038e+00
2.007623767815180038e+00
2.022436719870601696e+00
2.047749992370372585e+00
2.047749992370372585e+00
2.072500747703482027e+00
2.072500747703482027e+00
2.094251411481063307e+00
2.122002258369701355e+00
2.122002258369701355e+00
2.099876583147679110e+00
2.092188848536637558e+00
2.092188848536637558e+00
2.052812646870326940e+00
2.052812646870326940e+00
2.061437910092470904e+00
2.057875301370280852e+00
2.057875301370280852e+00
2.065375530259102366e+00
2.065375530259102366e+00
2.065375530259102366e+00
2.044187383648182976e+00
2.044187383648182976e+00
2.073813287759025847e+00
2.073813287759025847e+00
2.085813653981139382e+00
2.068000610370189563e+00
2.068000610370189563e+00
2.038562211981566730e+00
2.038562211981566730e+00
1.999936033204138486e+00
2.029186925870540392e+00
2.029186925870540392e+00
2.083188573870052185e+00
2.085438642536698417e+00
2.085438642536698417e+00
2.072875759147922992e+00
2.072875759147922992e+00
2.068188116092410045e+00
2.081688528092287882e+00
2.081688528092287882e+00
2.049625049592577852e+00
2.049625049592577852e+00
2.048875026703695923e+00
2.096876491592150504e+00
2.096876491592150504e+00
2.077375896481215900e+00
2.077375896481215900e+00
2.058250312814721816e+00
2.062937955870235207e+00
2.062937955870235207e+00
2.075313333536790150e+00
2.034249580370494748e+00
2.034249580370494748e+00
1.997498458815271549e+00
1.997498458815271549e+00
2.020936674092837393e+00
2.079250953703421168e+00
2.079250953703421168e+00
2.074188299203466812e+00
2.074188299203466812e+00
2.046624958037049247e+00
2.059000335703604190e+00
2.059000335703604190e+00
2.113376995147556947e+00
2.113376995147556947e+00
2.119002166814172750e+00
2.114689535203100768e+00
2.114689535203100768e+00
2.099501571703238145e+00
2.075125827814569668e+00
2.075125827814569668e+00
2.053562669759208870e+00
2.053562669759208870e+00
2.004061159092989985e+00
2.039312234870449103e+00
2.039312234870449103e+00
2.035187108981597159e+00
2.035187108981597159e+00
2.022061708426160731e+00
2.086751182592242237e+00
2.086751182592242237e+00
2.107939329203161627e+00
2.072875759147922992e+00
2.072875759147922992e+00
2.126502395702994264e+00
2.083376079592272667e+00
2.016811548203985893e+00
2.016811548203985893e+00
2.032749534592730889e+00
2.059375347148045154e+00
2.059375347148045154e+00
2.070813196203497242e+00
2.070813196203497242e+00
2.046999969481490211e+00
2.012686422315133949e+00
2.012686422315133949e+00
2.068375621814630971e+00
2.093313882869960452e+00
2.093313882869960452e+00
2.101189123203222930e+00
2.101189123203222930e+00
2.056562761314737475e+00
2.050937589648121673e+00
2.050937589648121673e+00
2.077000885036774935e+00
2.077000885036774935e+00
2.057687795648060813e+00
2.048500015259254514e+00
2.048500015259254514e+00
2.085626148258918899e+00
2.085626148258918899e+00
2.058812829981383707e+00
2.066313058870204777e+00
2.066313058870204777e+00
2.047749992370372585e+00
2.047749992370372585e+00
2.042687337870418673e+00
2.051875118259224084e+00
2.051875118259224084e+00
2.052250129703665493e+00
2.080938505203405953e+00
2.080938505203405953e+00
2.091813837092196593e+00
2.091813837092196593e+00
2.047562486648152102e+00
2.053000152592547423e+00
2.053000152592547423e+00
2.037249671926022909e+00
2.037249671926022909e+00
2.065188024536881883e+00
2.064438001647999510e+00
2.064438001647999510e+00
2.076813379314554453e+00
2.070813196203497242e+00
2.070813196203497242e+00
2.062750450148014725e+00
2.062750450148014725e+00
2.061625415814691387e+00
2.077938413647877791e+00
2.077938413647877791e+00
2.080000976592303541e+00
2.080000976592303541e+00
2.065188024536881883e+00
2.052062623981445011e+00
2.052062623981445011e+00
2.072500747703482027e+00
2.072500747703482027e+00
2.040812280648213406e+00
2.050750083925901190e+00
2.050750083925901190e+00
2.069875667592394830e+00
2.069875667592394830e+00
2.044562395092623941e+00
2.064625507370219992e+00
2.064625507370219992e+00
2.069125644703512901e+00
2.080000976592303541e+00
2.080000976592303541e+00
2.084313608203375079e+00
2.084313608203375079e+00
2.047562486648152102e+00
2.004248664815210468e+00
2.004248664815210468e+00
2.021499191259499284e+00
2.021499191259499284e+00
2.070438184759056277e+00
2.037812189092684800e+00
2.037812189092684800e+00
2.037437177648243392e+00
2.037437177648243392e+00
2.036687154759361462e+00
2.077188390758995418e+00
2.077188390758995418e+00
2.042687337870418673e+00
2.042687337870418673e+00
2.025811822870570822e+00
2.054687704092532208e+00
2.054687704092532208e+00
2.077375896481215900e+00
2.059750358592486119e+00
2.059750358592486119e+00
2.056187749870296511e+00
2.056187749870296511e+00
2.065563035981322848e+00
2.066500564592425260e+00
2.066500564592425260e+00
2.055062715536973172e+00
2.055062715536973172e+00
2.022999237037263143e+00
2.039312234870449103e+00
2.039312234870449103e+00
2.060312875759148010e+00
2.060312875759148010e+00
2.072125736259041062e+00
2.068563127536851454e+00
2.068563127536851454e+00
2.051500106814783120e+00
2.051500106814783120e+00
2.047937498092593067e+00
2.059000335703604190e+00
2.059000335703604190e+00
2.059750358592486119e+00
2.072688253425702509e+00
2.072688253425702509e+00
2.059187841425824672e+00
2.059187841425824672e+00
2.073813287759025847e+00
2.055625232703635064e+00
2.055625232703635064e+00
2.074938322092349186e+00
2.074938322092349186e+00
2.059750358592486119e+00
2.071375713370158689e+00
2.071375713370158689e+00
2.071938230536820580e+00
2.064438001647999510e+00
2.064438001647999510e+00
2.068375621814630971e+00
2.068375621814630971e+00
2.051500106814783120e+00
2.051500106814783120e+00
2.063875484481338063e+00
2.054312692648091243e+00
2.054312692648091243e+00
2.031061983092746104e+00
2.031061983092746104e+00
2.052437635425885976e+00
2.055812738425855546e+00
2.055812738425855546e+00
2.059187841425824672e+00
2.059187841425824672e+00
2.067250587481307633e+00
2.060312875759148010e+00
2.060312875759148010e+00
2.046999969481490211e+00
2.046999969481490211e+00
2.075875850703451597e+00
2.074000793481246330e+00
2.074000793481246330e+00
2.061062898648029940e+00
2.061062898648029940e+00
2.068000610370189563e+00
2.076813379314554453e+00
2.076813379314554453e+00
2.095376445814386202e+00
2.095376445814386202e+00
2.079813470870083059e+00
2.068563127536851454e+00
2.068563127536851454e+00
2.013811456648457288e+00
2.024874294259468410e+00
2.024874294259468410e+00
2.042499832148198191e+00
2.042499832148198191e+00
2.053187658314767905e+00
2.036874660481581945e+00
2.036874660481581945e+00
2.047562486648152102e+00
2.047562486648152102e+00
2.064813013092440475e+00
2.057875301370280852e+00
2.057875301370280852e+00
2.065375530259102366e+00
2.065375530259102366e+00
2.095376445814386202e+00
2.098939054536576698e+00
2.095001434369945237e+00
2.095001434369945237e+00
2.065750541703543330e+00
2.065750541703543330e+00
2.067813104647969080e+00
2.035749626148258606e+00
2.035749626148258606e+00
2.033124546037171854e+00
2.033124546037171854e+00
2.022249214148381213e+00
2.038749717703787212e+00
2.038749717703787212e+00
2.079625965147862576e+00
2.079625965147862576e+00
2.111689443647572162e+00
2.109251869258705447e+00
2.109251869258705447e+00
2.086001159703360308e+00
2.039499740592669585e+00
2.039499740592669585e+00
2.042312326425977265e+00
2.042312326425977265e+00
2.049437543870357370e+00
2.072313241981261545e+00
2.072313241981261545e+00
2.044749900814844423e+00
2.044749900814844423e+00
1.988123172704245212e+00
1.994498367259743166e+00
1.994498367259743166e+00
2.058812829981383707e+00
2.058812829981383707e+00
2.059187841425824672e+00
2.069500656147953865e+00
2.069500656147953865e+00
2.058250312814721816e+00
2.074563310647907777e+00
2.074563310647907777e+00
2.074000793481246330e+00
2.074000793481246330e+00
2.061062898648029940e+00
2.066688070314646186e+00
2.066688070314646186e+00
2.080000976592303541e+00
2.080000976592303541e+00
2.064438001647999510e+00
2.039124729148228621e+00
2.039124729148228621e+00
2.050937589648121673e+00
2.050937589648121673e+00
2.070250679036835795e+00
2.045312417981505870e+00
2.045312417981505870e+00
2.059562852870265637e+00
2.059562852870265637e+00
2.053937681203650278e+00
2.070250679036835795e+00
2.070250679036835795e+00
2.062562944425794242e+00
2.066313058870204777e+00
2.066313058870204777e+00
2.067250587481307633e+00
2.067250587481307633e+00
2.075875850703451597e+00
2.090501297036652772e+00
2.090501297036652772e+00
2.058625324259163225e+00
2.058625324259163225e+00
2.076438367870113488e+00
2.042312326425977265e+00
2.042312326425977265e+00
2.053187658314767905e+00
2.040999786370433888e+00
2.040999786370433888e+00
2.077938413647877791e+00
2.077938413647877791e+00
2.073063264870143918e+00
2.075875850703451597e+00
2.075875850703451597e+00
2.062750450148014725e+00
2.062750450148014725e+00
2.080375988036744506e+00
2.091063814203314664e+00
2.091063814203314664e+00
2.091438825647755628e+00
2.091438825647755628e+00
2.071563219092379615e+00
2.069500656147953865e+00
2.066313058870204777e+00
2.066313058870204777e+00
2.049250038148136888e+00
2.065375530259102366e+00
2.065375530259102366e+00
2.061625415814691387e+00
2.061625415814691387e+00
2.063500473036897098e+00
2.076250862147892562e+00
2.076250862147892562e+00
2.076813379314554453e+00
2.076813379314554453e+00
2.085063631092257452e+00
2.063875484481338063e+00
2.063875484481338063e+00
2.066125553147984295e+00
2.066125553147984295e+00
2.031249488814966586e+00
2.025249305703909375e+00
2.025249305703909375e+00
2.038374706259346247e+00
2.031812005981628033e+00
2.031812005981628033e+00
2.037812189092684800e+00
2.037812189092684800e+00
2.069500656147953865e+00
2.086938688314462720e+00
2.086938688314462720e+00
2.081501022370067400e+00
2.081501022370067400e+00
2.079438459425641650e+00
2.060312875759148010e+00
2.060312875759148010e+00
2.085626148258918899e+00
2.085626148258918899e+00
2.059562852870265637e+00
2.005561204870754288e+00
2.005561204870754288e+00
2.055062715536973172e+00
2.083376079592272667e+00
2.083376079592272667e+00
2.066875576036866669e+00
2.066875576036866669e+00
2.062375438703573760e+00
2.097439008758812395e+00
2.097439008758812395e+00
2.052250129703665493e+00
2.052250129703665493e+00
2.081501022370067400e+00
2.095938962981048093e+00
2.095938962981048093e+00
2.079250953703421168e+00
2.079250953703421168e+00
2.078125919370098273e+00
2.047187475203710694e+00
2.047187475203710694e+00
2.008748802148503376e+00
2.008748802148503376e+00
2.065000518814661401e+00
2.092188848536637558e+00
2.092188848536637558e+00
2.060500381481368493e+00
2.055437726981414581e+00
2.055437726981414581e+00
2.045312417981505870e+00
2.045312417981505870e+00
2.061437910092470904e+00
2.062375438703573760e+00
2.062375438703573760e+00
2.069125644703512901e+00
2.069125644703512901e+00
2.065188024536881883e+00
2.083376079592272667e+00
2.083376079592272667e+00
2.078125919370098273e+00
2.078125919370098273e+00
2.031061983092746104e+00
2.043437360759300603e+00
2.043437360759300603e+00
2.043812372203741567e+00
2.056187749870296511e+00
2.056187749870296511e+00
2.053187658314767905e+00
2.053187658314767905e+00
2.033499557481612818e+00
2.039499740592669585e+00
2.039499740592669585e+00
2.072500747703482027e+00
2.072500747703482027e+00
2.048500015259254514e+00
2.051500106814783120e+00
2.051500106814783120e+00
2.061812921536912313e+00
2.061812921536912313e+00
2.091626331369976111e+00
2.090126285592211808e+00
2.090126285592211808e+00
2.078125919370098273e+00
2.078125919370098273e+00
2.070063173314615312e+00
2.064438001647999510e+00
2.064438001647999510e+00
2.062562944425794242e+00
2.062562944425794242e+00
2.050937589648121673e+00
2.070438184759056277e+00
2.070438184759056277e+00
2.071375713370158689e+00
2.072125736259041062e+00
2.072125736259041062e+00
2.082063539536728847e+00
2.082063539536728847e+00
2.074750816370128703e+00
2.022999237037263143e+00
2.022999237037263143e+00
2.006123722037415735e+00
2.042874843592639156e+00
2.042874843592639156e+00
2.069313150425733383e+00
2.069313150425733383e+00
2.047187475203710694e+00
2.055812738425855546e+00
2.055812738425855546e+00
2.097814020203253360e+00
2.097814020203253360e+00
2.104189214758751536e+00
2.113189489425336465e+00
2.113189489425336465e+00
2.037437177648243392e+00
2.037437177648243392e+00
2.028999420148319910e+00
2.090501297036652772e+00
2.090501297036652772e+00
2.068375621814630971e+00
2.068375621814630971e+00
2.043249855037080120e+00
2.059562852870265637e+00
2.059562852870265637e+00
2.061812921536912313e+00
2.061812921536912313e+00
2.050937589648121673e+00
2.037812189092684800e+00
2.037812189092684800e+00
2.056562761314737475e+00
2.056562761314737475e+00
2.060125370036927084e+00
2.056750267036957958e+00
2.056750267036957958e+00
2.049437543870357370e+00
2.049437543870357370e+00
2.014186468092898252e+00
2.010436353648488161e+00
2.010436353648488161e+00
1.998623493148594665e+00
2.038374706259346247e+00
2.038374706259346247e+00
2.090501297036652772e+00
2.090501297036652772e+00
2.119002166814172750e+00
2.108876857814264483e+00
2.108876857814264483e+00
2.102876674703207716e+00
2.102876674703207716e+00
2.077188390758995418e+00
2.049062532425916405e+00
2.049062532425916405e+00
2.037437177648243392e+00
2.037437177648243392e+00
2.038937223426007694e+00
2.050375072481459782e+00
2.050375072481459782e+00
2.084313608203375079e+00
2.084313608203375079e+00
2.064813013092440475e+00
2.071750724814600098e+00
2.071750724814600098e+00
2.056562761314737475e+00
2.043437360759300603e+00
2.043437360759300603e+00
2.045687429425947279e+00
2.045687429425947279e+00
2.038749717703787212e+00
2.025999328592791304e+00
2.025999328592791304e+00
2.031812005981628033e+00
2.047562486648152102e+00
2.047562486648152102e+00
2.074563310647907777e+00
2.074563310647907777e+00
2.082813562425611220e+00
2.059375347148045154e+00
2.059375347148045154e+00
2.044187383648182976e+00
2.044187383648182976e+00
2.046624958037049247e+00
2.073250770592364400e+00
2.073250770592364400e+00
2.063312967314676172e+00
2.063312967314676172e+00
2.044749900814844423e+00
2.024311777092806519e+00
2.024311777092806519e+00
2.049625049592577852e+00
2.051125095370342155e+00
2.051125095370342155e+00
2.054875209814752690e+00
2.054875209814752690e+00
2.105314249092073986e+00
2.141127842036194995e+00
2.141127842036194995e+00
2.172816309091464060e+00
2.172816309091464060e+00
2.114127018036439321e+00
2.047937498092593067e+00
2.047937498092593067e+00
2.017374065370647340e+00
2.017374065370647340e+00
2.036687154759361462e+00
2.107751823480941145e+00
2.107751823480941145e+00
2.135315164647358710e+00
2.135315164647358710e+00
2.040812280648213406e+00
2.024311777092806519e+00
2.024311777092806519e+00
2.040437269203771997e+00
2.036687154759361462e+00
2.036687154759361462e+00
2.007998779259621003e+00
2.007998779259621003e+00
2.032374523148289480e+00
2.043437360759300603e+00
2.043437360759300603e+00
2.061062898648029940e+00
2.061062898648029940e+00
2.081688528092287882e+00
2.064625507370219992e+00
2.064625507370219992e+00
2.023749259926145072e+00
2.023749259926145072e+00
1.986810632648701391e+00
2.032749534592730889e+00
2.032749534592730889e+00
1.994498367259743166e+00
1.994498367259743166e+00
2.008186284981841485e+00
2.089376262703329878e+00
2.123314798425245176e+00
2.130065004425183872e+00
2.130065004425183872e+00
2.142815393536179780e+00
2.142815393536179780e+00
2.107001800592058771e+00
2.038749717703787212e+00
2.038749717703787212e+00
2.027311868648335125e+00
2.017936582537308787e+00
2.017936582537308787e+00
2.035937131870479533e+00
2.035937131870479533e+00
2.077563402203436382e+00
2.052062623981445011e+00
2.052062623981445011e+00
2.054500198370311725e+00
2.038374706259346247e+00
2.031249488814966586e+00
2.031249488814966586e+00
2.016249031037324002e+00
2.027124362926114642e+00
2.027124362926114642e+00
2.013623950926236805e+00
2.013623950926236805e+00
2.046249946592608282e+00
2.068188116092410045e+00
2.068188116092410045e+00
2.106251777703176842e+00
2.116752098147526517e+00
2.116752098147526517e+00
2.122939786980803767e+00
2.122939786980803767e+00
2.109626880703146412e+00
2.055437726981414581e+00
2.055437726981414581e+00
2.033124546037171854e+00
2.033124546037171854e+00
2.014748985259559699e+00
2.063312967314676172e+00
2.063312967314676172e+00
2.113752006591998356e+00
2.113752006591998356e+00
2.110001892147587377e+00
2.058250312814721816e+00
2.058250312814721816e+00
2.001811090426343309e+00
2.001811090426343309e+00
2.013248939481795396e+00
2.039687246314890068e+00
2.039687246314890068e+00
2.052625141148106458e+00
2.061250404370250422e+00
2.061250404370250422e+00
2.042499832148198191e+00
2.031061983092746104e+00
2.031061983092746104e+00
2.016811548203985893e+00
2.059000335703604190e+00
2.059000335703604190e+00
2.108876857814264483e+00
2.108876857814264483e+00
2.076063356425672080e+00
2.080000976592303541e+00
2.080000976592303541e+00
2.098564043092135289e+00
2.083751091036713632e+00
2.083751091036713632e+00
2.036874660481581945e+00
2.022249214148381213e+00
2.022249214148381213e+00
2.029561937314981801e+00
2.029561937314981801e+00
2.056187749870296511e+00
2.064250495925779028e+00
2.064250495925779028e+00
2.089376262703329878e+00
2.089376262703329878e+00
2.070813196203497242e+00
2.043812372203741567e+00
2.043812372203741567e+00
2.037062166203802427e+00
2.037062166203802427e+00
2.023936765648365554e+00
2.018686605426191161e+00
2.018686605426191161e+00
2.014561479537339217e+00
2.014561479537339217e+00
2.073063264870143918e+00
2.057125278481399366e+00
2.057125278481399366e+00
2.019811639759514499e+00
2.053562669759208870e+00
2.053562669759208870e+00
2.067063081759087151e+00
2.067063081759087151e+00
2.065750541703543330e+00
2.076250862147892562e+00
2.076250862147892562e+00
2.091063814203314664e+00
2.091063814203314664e+00
2.050187566759239299e+00
1.975747795037690491e+00
1.975747795037690491e+00
2.111126926480910715e+00
2.111126926480910715e+00
2.092751365703299449e+00
2.053937681203650278e+00
2.053937681203650278e+00
2.063125461592455689e+00
2.057687795648060813e+00
2.057687795648060813e+00
2.053187658314767905e+00
2.053187658314767905e+00
2.039687246314890068e+00
2.030686971648304695e+00
2.030686971648304695e+00
2.045312417981505870e+00
2.045312417981505870e+00
2.065188024536881883e+00
2.053187658314767905e+00
2.053187658314767905e+00
2.049625049592577852e+00
2.049625049592577852e+00
2.058625324259163225e+00
2.085251136814477935e+00
2.085251136814477935e+00
2.117877132480849411e+00
2.117877132480849411e+00
2.095376445814386202e+00
2.060312875759148010e+00
2.060312875759148010e+00
2.007436262092959556e+00
1.984748069704275641e+00
1.984748069704275641e+00
1.994310861537522683e+00
2.008936307870723859e+00
2.008936307870723859e+00
2.031624500259407551e+00
2.031624500259407551e+00
2.062000427259132795e+00
2.134565141758476781e+00
2.134565141758476781e+00
2.142252876369517889e+00
2.142252876369517889e+00
2.071000701925717724e+00
2.019249122592852608e+00
2.019249122592852608e+00
2.024311777092806519e+00
2.053750175481429796e+00
2.068563127536851454e+00
2.068563127536851454e+00
2.080750999481185470e+00
2.080750999481185470e+00
2.087126194036683202e+00
2.047749992370372585e+00
2.047749992370372585e+00
2.051687612537003602e+00
2.049250038148136888e+00
2.049250038148136888e+00
2.066125553147984295e+00
2.066125553147984295e+00
2.047187475203710694e+00
2.028249397259437981e+00
2.028249397259437981e+00
2.063125461592455689e+00
2.063125461592455689e+00
2.034624591814935712e+00
2.031999511703848516e+00
2.031999511703848516e+00
2.072875759147922992e+00
2.072875759147922992e+00
2.083938596758934114e+00
2.069125644703512901e+00
2.069125644703512901e+00
2.082813562425611220e+00
2.107189306314279698e+00
2.107189306314279698e+00
2.035374614703817642e+00
2.035374614703817642e+00
2.004061159092989985e+00
1.971810174871059473e+00
1.971810174871059473e+00
2.071938230536820580e+00
2.071938230536820580e+00
2.054875209814752690e+00
2.062000427259132795e+00
2.062000427259132795e+00
2.092563859981078966e+00
2.092563859981078966e+00
2.095001434369945237e+00
2.085251136814477935e+00
2.085251136814477935e+00
2.083563585314493150e+00
2.083563585314493150e+00
2.051312601092562637e+00
2.052625141148106458e+00
2.072500747703482027e+00
2.072500747703482027e+00
2.056000244148076028e+00
2.056000244148076028e+00
2.014373973815118735e+00
2.011186376537369647e+00
2.011186376537369647e+00
1.989998229926450479e+00
1.989998229926450479e+00
2.081876033814508364e+00
2.131565050202948175e+00
2.131565050202948175e+00
2.099689077425458628e+00
2.099689077425458628e+00
2.077000885036774935e+00
2.085813653981139382e+00
2.085813653981139382e+00
2.062000427259132795e+00
2.083938596758934114e+00
2.083938596758934114e+00
2.001061067537461380e+00
2.001061067537461380e+00
2.021874202703940249e+00
2.024874294259468410e+00
2.024874294259468410e+00
2.041749809259315818e+00
2.041749809259315818e+00
2.046624958037049247e+00
2.056562761314737475e+00
2.056562761314737475e+00
2.052250129703665493e+00
2.052250129703665493e+00
2.050375072481459782e+00
2.019811639759514499e+00
2.019811639759514499e+00
2.113001983703115982e+00
2.095751457258827610e+00
2.095751457258827610e+00
2.071750724814600098e+00
2.071750724814600098e+00
2.059562852870265637e+00
2.027124362926114642e+00
2.027124362926114642e+00
2.045312417981505870e+00
2.045312417981505870e+00
2.089188756981108952e+00
2.072875759147922992e+00
2.072875759147922992e+00
2.052062623981445011e+00
2.052062623981445011e+00
2.061625415814691387e+00
2.089751274147770843e+00
2.089751274147770843e+00
2.074750816370128703e+00
2.074750816370128703e+00
2.068000610370189563e+00
2.053375164036988387e+00
2.053375164036988387e+00
2.071000701925717724e+00
2.090501297036652772e+00
2.090501297036652772e+00
2.059375347148045154e+00
2.059375347148045154e+00
2.034249580370494748e+00
2.009686330759605788e+00
2.009686330759605788e+00
1.994123355815301979e+00
1.994123355815301979e+00
2.050937589648121673e+00
2.093501388592180934e+00
2.093501388592180934e+00
2.059375347148045154e+00
2.083376079592272667e+00
2.083376079592272667e+00
2.092563859981078966e+00
2.092563859981078966e+00
2.070063173314615312e+00
2.006123722037415735e+00
2.006123722037415735e+00
2.028624408703878945e+00
2.028624408703878945e+00
2.021686696981719766e+00
2.023374248481704107e+00
2.023374248481704107e+00
2.083376079592272667e+00
2.083376079592272667e+00
2.136252693258461566e+00
2.085438642536698417e+00
2.036124637592700015e+00
2.036124637592700015e+00
2.073813287759025847e+00
2.147128025147251762e+00
2.147128025147251762e+00
2.095751457258827610e+00
2.095751457258827610e+00
2.053750175481429796e+00
2.015499008148442073e+00
2.015499008148442073e+00
2.057687795648060813e+00
2.057687795648060813e+00
2.080188482314524023e+00
2.065938047425763813e+00
2.065938047425763813e+00
2.073250770592364400e+00
2.073250770592364400e+00
2.086376171147801273e+00
2.072500747703482027e+00
2.072500747703482027e+00
2.080000976592303541e+00
2.080000976592303541e+00
2.072688253425702509e+00
2.036874660481581945e+00
2.036874660481581945e+00
2.068938138981292418e+00
2.062937955870235207e+00
2.062937955870235207e+00
2.061812921536912313e+00
2.061812921536912313e+00
2.121252235480818982e+00
2.039312234870449103e+00
2.039312234870449103e+00
1.982122989593188223e+00
1.982122989593188223e+00
2.040249763481551515e+00
2.084126102481154597e+00
2.084126102481154597e+00
2.135315164647358710e+00
2.135315164647358710e+00
2.084126102481154597e+00
2.004061159092989985e+00
2.004061159092989985e+00
1.936559099093600356e+00
1.936559099093600356e+00
2.080750999481185470e+00
2.148815576647236547e+00
2.148815576647236547e+00
2.106439283425397324e+00
2.097063997314370987e+00
2.097063997314370987e+00
2.079438459425641650e+00
2.079438459425641650e+00
2.039312234870449103e+00
2.016624042481765411e+00
2.016624042481765411e+00
2.072125736259041062e+00
2.072125736259041062e+00
2.109064363536484965e+00
2.040437269203771997e+00
2.040437269203771997e+00
2.062187932981353278e+00
2.062187932981353278e+00
2.095001434369945237e+00
2.128002441480758122e+00
2.128002441480758122e+00
2.080938505203405953e+00
2.112251960814234053e+00
2.112251960814234053e+00
2.116939603869747000e+00
2.116939603869747000e+00
2.067063081759087151e+00
2.038937223426007694e+00
2.038937223426007694e+00
2.025624317148350340e+00
2.025624317148350340e+00
2.049625049592577852e+00
2.048125003814813549e+00
2.048125003814813549e+00
2.039124729148228621e+00
2.039124729148228621e+00
2.052437635425885976e+00
2.107001800592058771e+00
2.107001800592058771e+00
2.149378093813898438e+00
2.149378093813898438e+00
2.152003173924985191e+00
2.019999145481734981e+00
2.019999145481734981e+00
1.979497909482100804e+00
1.979497909482100804e+00
1.972372692037720920e+00
1.964872463148899850e+00
1.964872463148899850e+00
2.093126377147739969e+00
2.158003357036042402e+00
2.158003357036042402e+00
2.130065004425183872e+00
2.130065004425183872e+00
2.079063447981200685e+00
2.050000061037018817e+00
2.050000061037018817e+00
2.030311960203863730e+00
2.030311960203863730e+00
2.081313516647846917e+00
2.112439466536454535e+00
2.112439466536454535e+00
2.051125095370342155e+00
2.051125095370342155e+00
2.005936216315195253e+00
1.989060701315347846e+00
1.989060701315347846e+00
2.055062715536973172e+00
2.055062715536973172e+00
2.074563310647907777e+00
2.104751731925412539e+00
2.082251045258949329e+00
2.044937406537064906e+00
2.044937406537064906e+00
2.068938138981292418e+00
2.020936674092837393e+00
2.020936674092837393e+00
2.107001800592058771e+00
2.107001800592058771e+00
2.163816034424878687e+00
2.124627338480788552e+00
2.124627338480788552e+00
2.004623676259651432e+00
2.004623676259651432e+00
2.043437360759300603e+00
1.988310678426465694e+00
1.988310678426465694e+00
2.143190404980620745e+00
2.143190404980620745e+00
2.209192419202246516e+00
2.209192419202246516e+00
2.129127475814081016e+00
2.065375530259102366e+00
2.065375530259102366e+00
2.062187932981353278e+00
2.047562486648152102e+00
2.047562486648152102e+00
2.001998596148564236e+00
2.001998596148564236e+00
2.088438734092227023e+00
2.050187566759239299e+00
2.050187566759239299e+00
1.958309762871181414e+00
1.958309762871181414e+00
1.931121433149205036e+00
2.052812646870326940e+00
2.052812646870326940e+00
2.052437635425885976e+00
2.052437635425885976e+00
2.020936674092837393e+00
2.095376445814386202e+00
2.095376445814386202e+00
2.110564409314249268e+00
2.110564409314249268e+00
2.050562578203680708e+00
2.097251503036591469e+00
2.097251503036591469e+00
2.143565416425061709e+00
2.186316721091342341e+00
2.186316721091342341e+00
2.159878414258247670e+00
2.159878414258247670e+00
2.073813287759025847e+00
2.025624317148350340e+00
2.025624317148350340e+00
2.008186284981841485e+00
2.070625690481276759e+00
2.070625690481276759e+00
2.077188390758995418e+00
1.977060335093234089e+00
1.977060335093234089e+00
1.923808709982604448e+00
1.923808709982604448e+00
2.074750816370128703e+00
2.138315256202887316e+00
2.141877864925076924e+00
2.141877864925076924e+00
2.101751640369884377e+00
2.101751640369884377e+00
2.134190130314035372e+00
2.067813104647969080e+00
2.067813104647969080e+00
2.021124179815057875e+00
2.021124179815057875e+00
2.045687429425947279e+00
2.052250129703665493e+00
2.052250129703665493e+00
2.023186742759483625e+00
2.023186742759483625e+00
2.057687795648060813e+00
2.034062074648274265e+00
2.034062074648274265e+00
2.110376903592028786e+00
2.061250404370250422e+00
2.061250404370250422e+00
1.965809991760002484e+00
1.965809991760002484e+00
1.912933378093814030e+00
2.015311502426221590e+00
2.015311502426221590e+00
2.085251136814477935e+00
2.085251136814477935e+00
2.104751731925412539e+00
2.093876400036621899e+00
