2.307632923368022837e+00
2.307632923368022837e+00
2.307632923368022837e+00
2.287757316812646824e+00
2.287757316812646824e+00
2.287757316812646824e+00
2.282694662312692468e+00
2.282694662312692468e+00
2.282694662312692468e+00
2.282694662312692468e+00
2.256631366924039650e+00
2.256631366924039650e+00
2.256631366924039650e+00
2.241818414868617992e+00
2.241818414868617992e+00
2.241818414868617992e+00
2.241818414868617992e+00
2.231505600146489243e+00
2.231505600146489243e+00
2.231505600146489243e+00
2.206192327646717910e+00
2.206192327646717910e+00
2.206192327646717910e+00
2.201692190313425002e+00
2.201692190313425002e+00
2.201692190313425002e+00
2.201692190313425002e+00
2.189879329813531950e+00
2.189879329813531950e+00
2.189879329813531950e+00
2.207692373424482213e+00
2.207692373424482213e+00
2.207692373424482213e+00
2.207692373424482213e+00
2.246693563646351421e+00
2.246693563646351421e+00
2.246693563646351421e+00
2.271631824701681346e+00
2.271631824701681346e+00
2.271631824701681346e+00
2.271631824701681346e+00
2.319820795312356854e+00
2.319820795312356854e+00
2.319820795312356854e+00
2.336508804589983779e+00
2.336508804589983779e+00
2.336508804589983779e+00
2.336508804589983779e+00
2.317570726645710621e+00
2.317570726645710621e+00
2.317570726645710621e+00
2.279132053590502860e+00
2.279132053590502860e+00
2.279132053590502860e+00
2.264881618701742649e+00
2.264881618701742649e+00
2.264881618701742649e+00
2.264881618701742649e+00
2.254756309701834383e+00
2.254756309701834383e+00
2.254756309701834383e+00
2.254193792535172935e+00
2.254193792535172935e+00
2.254193792535172935e+00
2.254193792535172935e+00
2.228880520035401602e+00
2.228880520035401602e+00
2.228880520035401602e+00
2.233380657368694511e+00
2.233380657368694511e+00
2.233380657368694511e+00
2.233380657368694511e+00
2.238255806146427940e+00
2.238255806146427940e+00
2.238255806146427940e+00
2.217817682424390480e+00
2.217817682424390480e+00
2.217817682424390480e+00
2.241255897701956545e+00
2.241255897701956545e+00
2.241255897701956545e+00
2.241255897701956545e+00
2.283632190923795324e+00
2.283632190923795324e+00
2.283632190923795324e+00
2.297695120090334608e+00
2.297695120090334608e+00
2.297695120090334608e+00
2.297695120090334608e+00
2.330696127201147494e+00
2.330696127201147494e+00
2.321133335367900674e+00
2.321133335367900674e+00
2.321133335367900674e+00
2.284757225257118218e+00
2.284757225257118218e+00
2.284757225257118218e+00
2.284757225257118218e+00
2.257756401257362544e+00
2.257756401257362544e+00
2.257756401257362544e+00
2.250818689535202921e+00
2.250818689535202921e+00
2.250818689535202921e+00
2.232818140202032620e+00
2.232818140202032620e+00
2.232818140202032620e+00
2.232818140202032620e+00
2.234880703146458369e+00
2.234880703146458369e+00
2.234880703146458369e+00
2.230193060090945423e+00
2.230193060090945423e+00
2.230193060090945423e+00
2.230193060090945423e+00
2.215567613757744247e+00
2.215567613757744247e+00
2.215567613757744247e+00
2.198692098757896396e+00
2.198692098757896396e+00
2.198692098757896396e+00
2.208442396313364142e+00
2.208442396313364142e+00
2.208442396313364142e+00
2.208442396313364142e+00
2.266569170201727434e+00
2.266569170201727434e+00
2.266569170201727434e+00
2.290007385479293500e+00
2.290007385479293500e+00
2.290007385479293500e+00
2.281194616534928166e+00
2.281194616534928166e+00
2.281194616534928166e+00
2.281194616534928166e+00
2.314570635090182460e+00
2.314570635090182460e+00
2.314570635090182460e+00
2.322633381145664977e+00
2.322633381145664977e+00
2.303132786034730373e+00
2.303132786034730373e+00
2.303132786034730373e+00
2.301632740256966070e+00
2.301632740256966070e+00
2.301632740256966070e+00
2.275944456312753772e+00
2.275944456312753772e+00
2.275944456312753772e+00
2.275944456312753772e+00
2.253631275368511044e+00
2.253631275368511044e+00
2.253631275368511044e+00
2.230755577257606870e+00
2.230755577257606870e+00
2.230755577257606870e+00
2.230755577257606870e+00
2.214442579424420909e+00
2.214442579424420909e+00
2.214442579424420909e+00
2.239568346201971760e+00
2.239568346201971760e+00
2.239568346201971760e+00
2.213130039368877089e+00
2.213130039368877089e+00
2.213130039368877089e+00
2.213130039368877089e+00
2.226630451368755370e+00
2.226630451368755370e+00
2.226630451368755370e+00
2.287382305368205859e+00
2.287382305368205859e+00
2.287382305368205859e+00
2.287382305368205859e+00
2.266381664479506952e+00
2.266381664479506952e+00
2.266381664479506952e+00
2.291694936979278285e+00
2.291694936979278285e+00
2.291694936979278285e+00
2.320570818201239227e+00
2.320570818201239227e+00
2.320570818201239227e+00
2.320570818201239227e+00
2.306507889034699499e+00
2.306507889034699499e+00
2.306507889034699499e+00
2.286257271034882521e+00
2.286257271034882521e+00
2.286257271034882521e+00
2.286257271034882521e+00
2.261694021423993561e+00
2.261694021423993561e+00
2.261694021423993561e+00
2.237505783257545566e+00
2.237505783257545566e+00
2.237505783257545566e+00
2.237505783257545566e+00
2.219317728202154782e+00
2.219317728202154782e+00
2.219317728202154782e+00
2.180316537980285130e+00
2.180316537980285130e+00
2.180316537980285130e+00
2.190066835535752432e+00
2.190066835535752432e+00
2.190066835535752432e+00
2.190066835535752432e+00
2.207504867702261730e+00
2.207504867702261730e+00
2.207504867702261730e+00
2.219317728202154782e+00
2.219317728202154782e+00
2.219317728202154782e+00
2.219317728202154782e+00
2.263569078646198829e+00
2.263569078646198829e+00
2.263569078646198829e+00
2.317195715201269657e+00
2.317195715201269657e+00
2.317195715201269657e+00
2.335758781701101849e+00
2.335758781701101849e+00
2.335758781701101849e+00
2.335758781701101849e+00
2.352259285256507848e+00
2.352259285256507848e+00
2.352259285256507848e+00
2.351321756645405436e+00
2.351321756645405436e+00
2.351321756645405436e+00
2.351321756645405436e+00
2.318883266701254442e+00
2.318883266701254442e+00
2.318883266701254442e+00
2.275006927701650916e+00
2.275006927701650916e+00
2.275006927701650916e+00
2.275006927701650916e+00
2.233568163090914993e+00
2.233568163090914993e+00
2.233568163090914993e+00
2.220817773979919085e+00
2.220817773979919085e+00
2.220817773979919085e+00
2.211067476424451339e+00
2.211067476424451339e+00
2.211067476424451339e+00
2.211067476424451339e+00
2.218755211035493335e+00
2.218755211035493335e+00
2.218755211035493335e+00
2.199629627368999252e+00
2.199629627368999252e+00
2.174878872035889810e+00
2.174878872035889810e+00
2.174878872035889810e+00
2.174878872035889810e+00
2.192316904202398664e+00
2.192316904202398664e+00
2.192316904202398664e+00
2.257568895535142062e+00
2.257568895535142062e+00
2.257568895535142062e+00
2.290007385479293500e+00
2.290007385479293500e+00
2.290007385479293500e+00
2.290007385479293500e+00
2.309320474868007622e+00
2.309320474868007622e+00
2.309320474868007622e+00
2.336508804589983779e+00
2.336508804589983779e+00
2.336508804589983779e+00
2.336508804589983779e+00
2.335946287423322332e+00
2.335946287423322332e+00
2.335946287423322332e+00
2.294882534257026929e+00
2.294882534257026929e+00
2.294882534257026929e+00
2.261131504257332114e+00
2.261131504257332114e+00
2.261131504257332114e+00
2.261131504257332114e+00
2.257381389812921579e+00
2.257381389812921579e+00
2.257381389812921579e+00
2.259631458479567812e+00
2.259631458479567812e+00
2.259631458479567812e+00
2.254006286812952009e+00
2.254006286812952009e+00
2.254006286812952009e+00
2.254006286812952009e+00
2.227380474257637299e+00
2.227380474257637299e+00
2.227380474257637299e+00
2.221192785424360050e+00
2.221192785424360050e+00
2.221192785424360050e+00
2.221192785424360050e+00
2.198504593035676358e+00
2.198504593035676358e+00
2.198504593035676358e+00
2.187254249702444309e+00
2.187254249702444309e+00
2.187254249702444309e+00
2.238068300424207457e+00
2.238068300424207457e+00
2.238068300424207457e+00
2.243505966368602778e+00
2.243505966368602778e+00
2.243505966368602778e+00
2.243505966368602778e+00
2.279319559312723342e+00
2.279319559312723342e+00
2.279319559312723342e+00
2.370822351756340485e+00
2.370822351756340485e+00
2.370822351756340485e+00
2.370822351756340485e+00
2.311570543534653854e+00
2.311570543534653854e+00
2.311570543534653854e+00
2.326383495590075512e+00
2.326383495590075512e+00
2.326383495590075512e+00
2.326383495590075512e+00
2.313258095034638639e+00
2.313258095034638639e+00
2.313258095034638639e+00
2.275006927701650916e+00
2.275006927701650916e+00
2.275006927701650916e+00
2.260193975646229259e+00
2.260193975646229259e+00
2.260193975646229259e+00
2.260193975646229259e+00
2.244068483535264225e+00
2.244068483535264225e+00
2.244068483535264225e+00
2.209567430646687480e+00
2.209567430646687480e+00
2.209567430646687480e+00
2.209567430646687480e+00
2.213692556535538980e+00
2.213692556535538980e+00
2.213692556535538980e+00
2.210317453535568966e+00
2.210317453535568966e+00
2.210317453535568966e+00
2.209379924924466998e+00
2.209379924924466998e+00
2.209379924924466998e+00
2.209379924924466998e+00
2.238443311868648422e+00
2.238443311868648422e+00
2.238443311868648422e+00
2.254381298257393418e+00
2.254381298257393418e+00
2.254381298257393418e+00
2.254381298257393418e+00
2.297695120090334608e+00
2.297695120090334608e+00
2.297695120090334608e+00
2.334258735923337547e+00
2.334258735923337547e+00
2.334258735923337547e+00
2.312320566423536228e+00
2.312320566423536228e+00
2.312320566423536228e+00
2.312320566423536228e+00
2.260568987090670667e+00
2.260568987090670667e+00
2.260568987090670667e+00
2.259256447035126847e+00
2.259256447035126847e+00
2.259256447035126847e+00
2.259256447035126847e+00
2.272944364757225166e+00
2.272944364757225166e+00
2.272944364757225166e+00
2.272006836146122755e+00
2.272006836146122755e+00
2.272006836146122755e+00
2.223817865535447247e+00
2.223817865535447247e+00
2.223817865535447247e+00
2.223817865535447247e+00
2.208067384868923178e+00
2.208067384868923178e+00
2.208067384868923178e+00
2.227005462813196335e+00
2.227005462813196335e+00
2.227005462813196335e+00
2.227005462813196335e+00
2.211442487868892304e+00
2.211442487868892304e+00
2.211442487868892304e+00
2.239005829035309869e+00
2.239005829035309869e+00
2.239005829035309869e+00
2.282882168034912951e+00
2.282882168034912951e+00
2.282882168034912951e+00
2.282882168034912951e+00
2.302382763145847999e+00
2.302382763145847999e+00
2.302382763145847999e+00
2.359384502700888397e+00
2.359384502700888397e+00
2.359384502700888397e+00
2.359384502700888397e+00
2.339133884701071420e+00
2.339133884701071420e+00
2.339133884701071420e+00
2.300507705923642732e+00
2.300507705923642732e+00
2.300507705923642732e+00
2.286257271034882521e+00
2.286257271034882521e+00
2.286257271034882521e+00
2.286257271034882521e+00
2.260568987090670667e+00
2.260568987090670667e+00
2.260568987090670667e+00
2.245193517868587563e+00
2.245193517868587563e+00
2.245193517868587563e+00
2.248568620868556689e+00
2.248568620868556689e+00
2.248568620868556689e+00
2.248568620868556689e+00
2.239755851924192243e+00
2.239755851924192243e+00
2.239755851924192243e+00
2.230943082979827352e+00
2.230943082979827352e+00
2.230943082979827352e+00
2.230943082979827352e+00
2.196067018646809643e+00
2.196067018646809643e+00
2.196067018646809643e+00
2.164941068758201581e+00
2.164941068758201581e+00
2.164941068758201581e+00
2.217817682424390480e+00
2.217817682424390480e+00
2.217817682424390480e+00
2.217817682424390480e+00
2.263569078646198829e+00
2.263569078646198829e+00
2.263569078646198829e+00
2.265631641590625023e+00
2.265631641590625023e+00
2.265631641590625023e+00
2.265631641590625023e+00
2.291132419812616394e+00
2.291132419812616394e+00
2.291132419812616394e+00
2.317570726645710621e+00
2.317570726645710621e+00
2.317570726645710621e+00
2.340446424756614796e+00
2.340446424756614796e+00
2.340446424756614796e+00
2.340446424756614796e+00
2.320008301034577336e+00
2.320008301034577336e+00
2.320008301034577336e+00
2.272944364757225166e+00
2.272944364757225166e+00
2.272944364757225166e+00
2.272944364757225166e+00
2.241255897701956545e+00
2.241255897701956545e+00
2.241255897701956545e+00
2.244818506424146598e+00
2.244818506424146598e+00
2.244818506424146598e+00
2.244818506424146598e+00
2.239193334757530351e+00
2.239193334757530351e+00
2.239193334757530351e+00
2.238443311868648422e+00
2.238443311868648422e+00
2.238443311868648422e+00
2.233005645924253102e+00
2.233005645924253102e+00
2.233005645924253102e+00
2.233005645924253102e+00
2.236005737479781263e+00
2.236005737479781263e+00
2.236005737479781263e+00
2.280069582201605716e+00
2.280069582201605716e+00
2.280069582201605716e+00
2.280069582201605716e+00
2.287194799645985377e+00
2.287194799645985377e+00
2.287194799645985377e+00
2.306695394756919981e+00
2.306695394756919981e+00
2.306695394756919981e+00
2.317383220923490139e+00
2.317383220923490139e+00
2.317383220923490139e+00
2.317383220923490139e+00
2.257193884090700653e+00
2.257193884090700653e+00
2.257193884090700653e+00
2.224005371257667729e+00
2.224005371257667729e+00
2.224005371257667729e+00
2.224005371257667729e+00
2.207692373424482213e+00
2.207692373424482213e+00
2.207692373424482213e+00
2.223817865535447247e+00
2.223817865535447247e+00
2.223817865535447247e+00
2.236193243202001746e+00
2.236193243202001746e+00
2.236193243202001746e+00
2.236193243202001746e+00
2.213505050813318054e+00
2.213505050813318054e+00
2.213505050813318054e+00
2.258693929868464956e+00
2.258693929868464956e+00
2.258693929868464956e+00
2.258693929868464956e+00
2.273881893368328022e+00
2.273881893368328022e+00
2.273881893368328022e+00
2.272006836146122755e+00
2.272006836146122755e+00
2.272006836146122755e+00
2.272006836146122755e+00
2.276881984923856628e+00
2.276881984923856628e+00
2.276881984923856628e+00
2.303882808923612302e+00
2.303882808923612302e+00
2.303882808923612302e+00
2.293757499923703591e+00
2.293757499923703591e+00
2.293757499923703591e+00
2.293757499923703591e+00
2.301257728812525105e+00
2.301257728812525105e+00
2.301257728812525105e+00
2.296382580034791232e+00
2.296382580034791232e+00
2.296382580034791232e+00
2.296382580034791232e+00
2.278569536423841413e+00
2.278569536423841413e+00
2.278569536423841413e+00
2.256443861201819168e+00
2.256443861201819168e+00
2.256443861201819168e+00
2.256443861201819168e+00
2.241068391979735619e+00
2.241068391979735619e+00
2.241068391979735619e+00
2.225505417035432032e+00
2.225505417035432032e+00
2.225505417035432032e+00
2.229443037202063049e+00
2.229443037202063049e+00
2.229443037202063049e+00
2.229443037202063049e+00
2.182941618091372327e+00
2.182941618091372327e+00
2.182941618091372327e+00
2.200567155980101663e+00
2.200567155980101663e+00
2.200567155980101663e+00
2.200567155980101663e+00
2.217067659535508550e+00
2.217067659535508550e+00
2.217067659535508550e+00
2.190816858424634361e+00
2.190816858424634361e+00
2.190816858424634361e+00
2.190816858424634361e+00
2.225505417035432032e+00
2.225505417035432032e+00
2.225505417035432032e+00
2.302382763145847999e+00
2.302382763145847999e+00
2.302382763145847999e+00
2.335383770256660885e+00
2.335383770256660885e+00
2.335383770256660885e+00
2.335383770256660885e+00
2.340446424756614796e+00
2.340446424756614796e+00
2.340446424756614796e+00
2.328821069978942226e+00
2.328821069978942226e+00
2.328821069978942226e+00
2.328821069978942226e+00
2.301632740256966070e+00
2.301632740256966070e+00
2.301632740256966070e+00
2.278757042146061895e+00
2.278757042146061895e+00
2.278757042146061895e+00
2.261506515701773079e+00
2.261506515701773079e+00
2.261506515701773079e+00
2.261506515701773079e+00
2.225317911313211550e+00
2.225317911313211550e+00
2.225317911313211550e+00
2.257756401257362544e+00
2.257756401257362544e+00
2.257756401257362544e+00
2.257756401257362544e+00
2.247256080813012868e+00
2.247256080813012868e+00
2.247256080813012868e+00
2.214817590868861874e+00
2.214817590868861874e+00
2.214817590868861874e+00
2.207692373424482213e+00
2.207692373424482213e+00
2.207692373424482213e+00
2.207692373424482213e+00
2.216692648091067142e+00
2.216692648091067142e+00
2.216692648091067142e+00
2.271256813257240381e+00
2.271256813257240381e+00
2.271256813257240381e+00
2.271256813257240381e+00
2.288694845423749680e+00
2.288694845423749680e+00
2.288694845423749680e+00
2.333321207312235135e+00
2.333321207312235135e+00
2.333321207312235135e+00
2.333321207312235135e+00
2.334258735923337547e+00
2.334258735923337547e+00
2.334258735923337547e+00
2.306320383312479017e+00
2.306320383312479017e+00
2.306320383312479017e+00
2.299570177312540320e+00
2.299570177312540320e+00
2.299570177312540320e+00
2.299570177312540320e+00
2.273131870479445649e+00
2.273131870479445649e+00
2.273131870479445649e+00
2.220630268257698603e+00
2.220630268257698603e+00
2.220630268257698603e+00
2.220630268257698603e+00
2.203192236091189304e+00
2.203192236091189304e+00
2.203192236091189304e+00
2.234130680257575996e+00
2.234130680257575996e+00
2.234130680257575996e+00
2.275756950590533290e+00
2.275756950590533290e+00
2.275756950590533290e+00
2.275756950590533290e+00
2.282507156590471986e+00
2.282507156590471986e+00
2.282507156590471986e+00
2.241630909146397510e+00
2.241630909146397510e+00
2.241630909146397510e+00
2.241630909146397510e+00
2.236193243202001746e+00
2.236193243202001746e+00
2.236193243202001746e+00
2.272569353312784202e+00
2.272569353312784202e+00
2.272569353312784202e+00
2.272569353312784202e+00
2.277444502090518075e+00
2.277444502090518075e+00
2.277444502090518075e+00
2.311383037812433372e+00
2.311383037812433372e+00
2.311383037812433372e+00
2.294882534257026929e+00
2.294882534257026929e+00
2.294882534257026929e+00
2.294882534257026929e+00
2.276881984923856628e+00
2.276881984923856628e+00
2.276881984923856628e+00
2.276506973479415219e+00
2.276506973479415219e+00
2.276506973479415219e+00
2.276506973479415219e+00
2.257756401257362544e+00
2.257756401257362544e+00
2.257756401257362544e+00
2.223817865535447247e+00
2.223817865535447247e+00
2.223817865535447247e+00
2.215567613757744247e+00
2.215567613757744247e+00
2.215567613757744247e+00
2.215567613757744247e+00
2.209754936368907963e+00
2.209754936368907963e+00
2.209754936368907963e+00
2.207692373424482213e+00
2.207692373424482213e+00
2.207692373424482213e+00
2.226630451368755370e+00
2.226630451368755370e+00
2.226630451368755370e+00
2.226630451368755370e+00
2.198504593035676358e+00
2.198504593035676358e+00
2.198504593035676358e+00
2.238443311868648422e+00
2.238443311868648422e+00
2.238443311868648422e+00
2.238443311868648422e+00
2.305382854701376161e+00
2.305382854701376161e+00
2.305382854701376161e+00
2.298632648701437464e+00
2.298632648701437464e+00
2.298632648701437464e+00
2.298632648701437464e+00
2.338758873256630455e+00
2.338758873256630455e+00
2.338758873256630455e+00
2.364634662923062791e+00
2.364634662923062791e+00
2.364634662923062791e+00
2.297132602923673161e+00
2.297132602923673161e+00
2.297132602923673161e+00
2.297132602923673161e+00
2.250631183812982439e+00
2.250631183812982439e+00
2.250631183812982439e+00
2.262256538590655452e+00
2.262256538590655452e+00
2.262256538590655452e+00
2.262256538590655452e+00
2.235818231757560781e+00
2.235818231757560781e+00
2.235818231757560781e+00
2.259443952757347329e+00
2.259443952757347329e+00
2.259443952757347329e+00
2.247256080813012868e+00
2.247256080813012868e+00
2.247256080813012868e+00
2.247256080813012868e+00
2.206379833368938392e+00
2.206379833368938392e+00
2.206379833368938392e+00
2.197379558702353020e+00
2.197379558702353020e+00
2.197379558702353020e+00
2.197379558702353020e+00
2.164941068758201581e+00
2.164941068758201581e+00
2.164941068758201581e+00
2.199442121646778769e+00
2.199442121646778769e+00
2.199442121646778769e+00
2.199442121646778769e+00
2.277632007812738557e+00
2.277632007812738557e+00
2.277632007812738557e+00
2.309132969145787140e+00
2.309132969145787140e+00
2.309132969145787140e+00
2.356009399700918827e+00
2.356009399700918827e+00
2.356009399700918827e+00
2.356009399700918827e+00
2.361822077089755112e+00
2.361822077089755112e+00
2.361822077089755112e+00
2.344384044923245813e+00
2.344384044923245813e+00
2.344384044923245813e+00
2.344384044923245813e+00
2.281944639423810539e+00
2.281944639423810539e+00
2.281944639423810539e+00
2.277819513534959039e+00
2.277819513534959039e+00
2.277819513534959039e+00
2.276319467757194737e+00
2.276319467757194737e+00
2.276319467757194737e+00
2.276319467757194737e+00
2.223255348368785356e+00
2.223255348368785356e+00
2.223255348368785356e+00
2.198879604480116878e+00
2.198879604480116878e+00
2.198879604480116878e+00
2.198879604480116878e+00
2.206379833368938392e+00
2.206379833368938392e+00
2.206379833368938392e+00
2.173753837702566916e+00
2.173753837702566916e+00
2.173753837702566916e+00
2.170191228980376863e+00
2.170191228980376863e+00
2.170191228980376863e+00
2.170191228980376863e+00
2.240693380535294654e+00
2.240693380535294654e+00
2.240693380535294654e+00
2.294507522812585520e+00
2.294507522812585520e+00
2.294507522812585520e+00
2.294507522812585520e+00
2.328821069978942226e+00
2.328821069978942226e+00
2.328821069978942226e+00
2.350759239478743989e+00
2.350759239478743989e+00
2.350759239478743989e+00
2.350759239478743989e+00
2.321320841090121156e+00
2.321320841090121156e+00
2.321320841090121156e+00
2.304070314645832784e+00
2.304070314645832784e+00
2.304070314645832784e+00
2.300320200201422249e+00
2.300320200201422249e+00
2.300320200201422249e+00
2.300320200201422249e+00
2.251381206701864812e+00
2.251381206701864812e+00
2.251381206701864812e+00
2.198692098757896396e+00
2.198692098757896396e+00
2.198692098757896396e+00
2.198692098757896396e+00
2.195692007202368234e+00
2.195692007202368234e+00
2.195692007202368234e+00
2.218005188146610962e+00
2.218005188146610962e+00
2.218005188146610962e+00
2.236005737479781263e+00
2.236005737479781263e+00
2.236005737479781263e+00
2.236005737479781263e+00
2.218380199591051927e+00
2.218380199591051927e+00
2.218380199591051927e+00
2.234880703146458369e+00
2.234880703146458369e+00
2.234880703146458369e+00
2.234880703146458369e+00
2.286632282479323930e+00
2.286632282479323930e+00
2.286632282479323930e+00
2.281382122257148648e+00
2.281382122257148648e+00
2.281382122257148648e+00
2.302195257423627517e+00
2.302195257423627517e+00
2.302195257423627517e+00
2.302195257423627517e+00
2.317383220923490139e+00
2.317383220923490139e+00
2.317383220923490139e+00
2.346071596423230599e+00
2.346071596423230599e+00
2.346071596423230599e+00
2.346071596423230599e+00
2.304820337534714714e+00
2.304820337534714714e+00
2.304820337534714714e+00
2.261506515701773079e+00
2.261506515701773079e+00
2.261506515701773079e+00
2.261506515701773079e+00
2.204879787591174090e+00
2.204879787591174090e+00
2.204879787591174090e+00
2.218755211035493335e+00
2.218755211035493335e+00
2.218755211035493335e+00
2.263944090090640238e+00
2.263944090090640238e+00
2.263944090090640238e+00
2.263944090090640238e+00
2.236568254646443155e+00
2.236568254646443155e+00
2.236568254646443155e+00
2.210879970702230857e+00
2.210879970702230857e+00
2.210879970702230857e+00
2.210879970702230857e+00
2.191941892757957699e+00
2.191941892757957699e+00
2.191941892757957699e+00
2.192504409924619146e+00
2.192504409924619146e+00
2.192504409924619146e+00
2.192504409924619146e+00
2.275194433423871843e+00
2.275194433423871843e+00
2.275194433423871843e+00
2.282132145146031021e+00
2.282132145146031021e+00
2.282132145146031021e+00
2.305382854701376161e+00
2.305382854701376161e+00
2.305382854701376161e+00
2.305382854701376161e+00
2.359947019867549844e+00
2.359947019867549844e+00
2.359947019867549844e+00
2.332946195867793726e+00
2.332946195867793726e+00
2.332946195867793726e+00
2.332946195867793726e+00
2.287382305368205859e+00
2.287382305368205859e+00
2.287382305368205859e+00
2.239568346201971760e+00
2.239568346201971760e+00
2.239568346201971760e+00
2.264694112979522167e+00
2.264694112979522167e+00
2.264694112979522167e+00
2.264694112979522167e+00
2.259818964201788294e+00
2.259818964201788294e+00
2.259818964201788294e+00
2.239755851924192243e+00
2.239755851924192243e+00
2.239755851924192243e+00
2.239755851924192243e+00
2.231880611590930208e+00
2.231880611590930208e+00
2.231880611590930208e+00
2.196067018646809643e+00
2.196067018646809643e+00
2.196067018646809643e+00
2.218567705313272853e+00
2.218567705313272853e+00
2.218567705313272853e+00
2.218567705313272853e+00
2.265256630146183614e+00
2.265256630146183614e+00
2.265256630146183614e+00
2.255131321146275347e+00
2.255131321146275347e+00
2.255131321146275347e+00
2.255131321146275347e+00
2.272756859035004684e+00
2.272756859035004684e+00
2.272756859035004684e+00
2.282882168034912951e+00
2.282882168034912951e+00
2.282882168034912951e+00
2.282882168034912951e+00
2.327321024201178368e+00
2.327321024201178368e+00
2.327321024201178368e+00
2.307257911923581428e+00
2.307257911923581428e+00
2.307257911923581428e+00
2.259818964201788294e+00
2.259818964201788294e+00
2.259818964201788294e+00
2.259818964201788294e+00
2.254381298257393418e+00
2.254381298257393418e+00
2.254381298257393418e+00
2.277632007812738557e+00
2.277632007812738557e+00
2.277632007812738557e+00
2.260943998535111632e+00
2.260943998535111632e+00
2.260943998535111632e+00
2.260943998535111632e+00
2.224380382702108694e+00
2.224380382702108694e+00
2.224380382702108694e+00
2.203004730368968822e+00
2.203004730368968822e+00
2.203004730368968822e+00
2.203004730368968822e+00
2.191004364146854844e+00
2.191004364146854844e+00
2.191004364146854844e+00
2.209379924924466998e+00
2.209379924924466998e+00
2.209379924924466998e+00
2.209379924924466998e+00
2.261319009979552597e+00
2.261319009979552597e+00
2.261319009979552597e+00
2.290757408368175430e+00
2.290757408368175430e+00
2.290757408368175430e+00
2.331633655812249906e+00
2.331633655812249906e+00
2.331633655812249906e+00
2.331633655812249906e+00
2.311758049256874337e+00
2.311758049256874337e+00
2.311758049256874337e+00
2.286819788201544412e+00
2.286819788201544412e+00
2.286819788201544412e+00
2.286819788201544412e+00
2.279694570757164307e+00
2.279694570757164307e+00
2.279694570757164307e+00
2.266194158757286470e+00
2.266194158757286470e+00
2.266194158757286470e+00
2.252881252479629115e+00
2.252881252479629115e+00
2.252881252479629115e+00
2.252881252479629115e+00
2.265069124423963132e+00
2.265069124423963132e+00
2.265069124423963132e+00
2.247068575090792386e+00
2.247068575090792386e+00
2.247068575090792386e+00
2.247068575090792386e+00
2.238068300424207457e+00
2.238068300424207457e+00
2.238068300424207457e+00
2.225130405590991067e+00
2.225130405590991067e+00
2.225130405590991067e+00
2.200754661702322146e+00
2.200754661702322146e+00
2.200754661702322146e+00
2.200754661702322146e+00
2.244255989257484707e+00
2.244255989257484707e+00
2.244255989257484707e+00
2.275381939146092325e+00
2.275381939146092325e+00
2.275381939146092325e+00
2.275381939146092325e+00
2.307632923368022837e+00
2.307632923368022837e+00
2.307632923368022837e+00
2.337446333201086635e+00
2.337446333201086635e+00
2.337446333201086635e+00
2.337446333201086635e+00
2.315133152256843907e+00
2.315133152256843907e+00
2.315133152256843907e+00
2.263756584368419311e+00
2.263756584368419311e+00
2.263756584368419311e+00
2.237880794701986531e+00
2.237880794701986531e+00
2.237880794701986531e+00
2.237880794701986531e+00
2.219880245368816230e+00
2.219880245368816230e+00
2.219880245368816230e+00
2.250818689535202921e+00
2.250818689535202921e+00
2.250818689535202921e+00
2.250818689535202921e+00
2.259443952757347329e+00
2.259443952757347329e+00
2.259443952757347329e+00
2.231693105868709726e+00
2.231693105868709726e+00
2.231693105868709726e+00
2.231693105868709726e+00
2.217630176702169997e+00
2.217630176702169997e+00
2.217630176702169997e+00
2.220067751091036712e+00
2.220067751091036712e+00
2.220067751091036712e+00
2.206567339091158875e+00
2.206567339091158875e+00
2.206567339091158875e+00
2.206567339091158875e+00
2.220067751091036712e+00
2.220067751091036712e+00
2.220067751091036712e+00
2.275381939146092325e+00
2.275381939146092325e+00
2.275381939146092325e+00
2.275381939146092325e+00
2.316445692312387283e+00
2.316445692312387283e+00
2.316445692312387283e+00
2.352071779534287366e+00
2.352071779534287366e+00
2.352071779534287366e+00
2.356759422589800756e+00
2.356759422589800756e+00
2.356759422589800756e+00
2.356759422589800756e+00
2.313070589312418157e+00
2.313070589312418157e+00
2.313070589312418157e+00
2.266944181646168399e+00
2.266944181646168399e+00
2.266944181646168399e+00
2.266944181646168399e+00
2.242193426313058957e+00
2.242193426313058957e+00
2.242193426313058957e+00
2.221005279702139568e+00
2.221005279702139568e+00
2.221005279702139568e+00
2.255506332590716312e+00
2.255506332590716312e+00
2.255506332590716312e+00
2.255506332590716312e+00
2.201504684591204519e+00
2.201504684591204519e+00
2.201504684591204519e+00
2.198504593035676358e+00
2.198504593035676358e+00
2.198504593035676358e+00
2.198504593035676358e+00
2.210129947813348927e+00
2.210129947813348927e+00
2.210129947813348927e+00
2.235443220313119816e+00
2.235443220313119816e+00
2.235443220313119816e+00
2.269569261757255596e+00
2.269569261757255596e+00
2.269569261757255596e+00
2.269569261757255596e+00
2.301820245979186552e+00
2.301820245979186552e+00
2.301820245979186552e+00
2.298257637256996500e+00
2.298257637256996500e+00
2.298257637256996500e+00
2.298257637256996500e+00
2.333321207312235135e+00
2.333321207312235135e+00
2.333321207312235135e+00
2.278944547868282378e+00
2.278944547868282378e+00
2.278944547868282378e+00
2.269569261757255596e+00
2.269569261757255596e+00
2.269569261757255596e+00
2.269569261757255596e+00
2.302570268868068482e+00
2.302570268868068482e+00
2.302570268868068482e+00
2.325258461256752618e+00
2.325258461256752618e+00
2.325258461256752618e+00
2.325258461256752618e+00
2.274256904812768987e+00
2.274256904812768987e+00
2.274256904812768987e+00
2.245006012146367080e+00
2.245006012146367080e+00
2.245006012146367080e+00
2.245006012146367080e+00
2.232630634479812137e+00
2.232630634479812137e+00
2.232630634479812137e+00
2.189504318369090985e+00
2.189504318369090985e+00
2.189504318369090985e+00
2.142627887813959298e+00
2.142627887813959298e+00
2.142627887813959298e+00
2.142627887813959298e+00
2.171316263313699757e+00
2.171316263313699757e+00
2.171316263313699757e+00
2.220255256813257638e+00
2.220255256813257638e+00
2.220255256813257638e+00
2.220255256813257638e+00
2.273881893368328022e+00
2.273881893368328022e+00
2.273881893368328022e+00
2.338758873256630455e+00
2.338758873256630455e+00
2.338758873256630455e+00
2.356009399700918827e+00
2.356009399700918827e+00
2.356009399700918827e+00
2.356009399700918827e+00
2.364822168645283273e+00
2.364822168645283273e+00
2.364822168645283273e+00
2.319445783867915889e+00
2.319445783867915889e+00
2.319445783867915889e+00
2.319445783867915889e+00
2.293569994201483109e+00
2.293569994201483109e+00
2.293569994201483109e+00
2.261694021423993561e+00
2.261694021423993561e+00
2.261694021423993561e+00
2.261694021423993561e+00
2.235255714590899334e+00
2.235255714590899334e+00
2.235255714590899334e+00
2.216130130924405695e+00
2.216130130924405695e+00
2.216130130924405695e+00
2.237693288979766049e+00
2.237693288979766049e+00
2.237693288979766049e+00
2.237693288979766049e+00
2.199254615924558287e+00
2.199254615924558287e+00
2.199254615924558287e+00
2.208817407757805107e+00
2.208817407757805107e+00
2.208817407757805107e+00
2.208817407757805107e+00
2.186879238258003344e+00
2.186879238258003344e+00
2.186879238258003344e+00
2.292257454145939732e+00
2.292257454145939732e+00
2.292257454145939732e+00
2.341571459089938134e+00
2.341571459089938134e+00
2.341571459089938134e+00
2.341571459089938134e+00
2.373259926145207199e+00
2.373259926145207199e+00
2.373259926145207199e+00
2.368197271645252844e+00
2.368197271645252844e+00
2.368197271645252844e+00
2.368197271645252844e+00
2.293757499923703591e+00
2.293757499923703591e+00
2.293757499923703591e+00
2.266006653035065987e+00
2.266006653035065987e+00
2.266006653035065987e+00
2.243505966368602778e+00
2.243505966368602778e+00
2.243505966368602778e+00
2.243505966368602778e+00
2.205254799035615054e+00
2.205254799035615054e+00
2.205254799035615054e+00
2.181629078035828950e+00
2.181629078035828950e+00
2.181629078035828950e+00
2.165128574480422063e+00
2.165128574480422063e+00
2.165128574480422063e+00
2.165128574480422063e+00
2.193816949980162967e+00
2.193816949980162967e+00
2.193816949980162967e+00
2.167378643147068740e+00
2.167378643147068740e+00
2.167378643147068740e+00
2.167378643147068740e+00
2.161378460036011973e+00
2.161378460036011973e+00
2.161378460036011973e+00
2.247818597979674760e+00
2.247818597979674760e+00
2.247818597979674760e+00
2.247818597979674760e+00
2.335571275978881367e+00
2.335571275978881367e+00
2.335571275978881367e+00
2.348509170812097757e+00
2.348509170812097757e+00
2.348509170812097757e+00
2.385822809533982625e+00
2.385822809533982625e+00
2.385822809533982625e+00
2.385822809533982625e+00
2.318133243812372069e+00
2.318133243812372069e+00
2.318133243812372069e+00
2.328446058534500818e+00
2.328446058534500818e+00
2.328446058534500818e+00
2.328446058534500818e+00
2.328446058534500818e+00
2.328446058534500818e+00
2.328446058534500818e+00
2.210317453535568966e+00
2.210317453535568966e+00
2.210317453535568966e+00
2.196442030091250608e+00
2.196442030091250608e+00
2.196442030091250608e+00
2.196442030091250608e+00
2.206567339091158875e+00
2.206567339091158875e+00
2.206567339091158875e+00
2.213130039368877089e+00
2.213130039368877089e+00
2.213130039368877089e+00
2.213130039368877089e+00
2.211067476424451339e+00
2.211067476424451339e+00
2.211067476424451339e+00
2.183691640980254700e+00
2.183691640980254700e+00
2.183691640980254700e+00
2.183691640980254700e+00
2.212005005035553751e+00
2.212005005035553751e+00
2.212005005035553751e+00
2.258881435590685438e+00
2.258881435590685438e+00
2.258881435590685438e+00
2.254381298257393418e+00
2.254381298257393418e+00
2.254381298257393418e+00
2.254381298257393418e+00
2.291882442701498768e+00
2.291882442701498768e+00
2.291882442701498768e+00
2.345321573534348669e+00
2.345321573534348669e+00
2.345321573534348669e+00
2.345321573534348669e+00
2.347009125034333454e+00
2.347009125034333454e+00
2.347009125034333454e+00
2.345321573534348669e+00
2.345321573534348669e+00
2.345321573534348669e+00
2.377572557756279181e+00
2.377572557756279181e+00
2.377572557756279181e+00
2.377572557756279181e+00
2.264131595812860720e+00
2.264131595812860720e+00
2.264131595812860720e+00
2.283444685201574842e+00
2.283444685201574842e+00
2.283444685201574842e+00
2.283444685201574842e+00
2.253631275368511044e+00
2.253631275368511044e+00
2.253631275368511044e+00
2.188941801202429094e+00
2.188941801202429094e+00
2.188941801202429094e+00
2.188941801202429094e+00
2.128939970091860534e+00
2.128939970091860534e+00
2.128939970091860534e+00
2.155378276924954761e+00
2.155378276924954761e+00
2.155378276924954761e+00
2.215755119479964730e+00
2.215755119479964730e+00
2.215755119479964730e+00
2.215755119479964730e+00
2.180316537980285130e+00
2.180316537980285130e+00
2.180316537980285130e+00
2.276131962034974254e+00
2.276131962034974254e+00
2.276131962034974254e+00
2.276131962034974254e+00
2.346446607867672007e+00
2.346446607867672007e+00
2.346446607867672007e+00
2.393885555589465142e+00
2.393885555589465142e+00
2.393885555589465142e+00
2.393885555589465142e+00
2.339321390423291458e+00
2.339321390423291458e+00
2.339321390423291458e+00
2.274819421979430434e+00
2.274819421979430434e+00
2.274819421979430434e+00
2.278382030701620931e+00
2.278382030701620931e+00
2.278382030701620931e+00
2.278382030701620931e+00
2.270319284646137969e+00
2.270319284646137969e+00
2.270319284646137969e+00
2.218567705313272853e+00
2.218567705313272853e+00
2.218567705313272853e+00
2.218567705313272853e+00
2.199629627368999252e+00
2.199629627368999252e+00
2.199629627368999252e+00
2.201129673146763555e+00
2.201129673146763555e+00
2.201129673146763555e+00
2.229443037202063049e+00
2.229443037202063049e+00
2.229443037202063049e+00
2.229443037202063049e+00
2.221192785424360050e+00
2.221192785424360050e+00
2.221192785424360050e+00
2.271069307535019899e+00
2.271069307535019899e+00
2.271069307535019899e+00
2.271069307535019899e+00
2.253068758201849597e+00
2.253068758201849597e+00
2.253068758201849597e+00
2.290382396923734465e+00
2.290382396923734465e+00
2.290382396923734465e+00
2.385447798089541660e+00
2.385447798089541660e+00
2.385447798089541660e+00
2.385447798089541660e+00
2.366884731589709023e+00
2.366884731589709023e+00
2.366884731589709023e+00
2.315133152256843907e+00
2.315133152256843907e+00
2.315133152256843907e+00
2.315133152256843907e+00
2.281757133701590057e+00
2.281757133701590057e+00
2.281757133701590057e+00
2.232818140202032620e+00
2.232818140202032620e+00
2.232818140202032620e+00
2.182191595202490397e+00
2.182191595202490397e+00
2.182191595202490397e+00
2.182191595202490397e+00
2.177878963591417971e+00
2.177878963591417971e+00
2.177878963591417971e+00
2.208442396313364142e+00
2.208442396313364142e+00
2.208442396313364142e+00
2.208442396313364142e+00
2.233568163090914993e+00
2.233568163090914993e+00
2.233568163090914993e+00
2.230755577257606870e+00
2.230755577257606870e+00
2.230755577257606870e+00
2.230755577257606870e+00
2.228693014313181120e+00
2.228693014313181120e+00
2.228693014313181120e+00
2.287757316812646824e+00
2.287757316812646824e+00
2.287757316812646824e+00
2.313633106479079604e+00
2.313633106479079604e+00
2.313633106479079604e+00
2.313633106479079604e+00
2.287382305368205859e+00
2.287382305368205859e+00
2.287382305368205859e+00
2.308382946256904766e+00
2.308382946256904766e+00
2.308382946256904766e+00
2.308382946256904766e+00
2.305945371868038052e+00
2.305945371868038052e+00
2.305945371868038052e+00
2.272194341868343237e+00
2.272194341868343237e+00
2.272194341868343237e+00
2.230005554368724940e+00
2.230005554368724940e+00
2.230005554368724940e+00
2.230005554368724940e+00
2.224380382702108694e+00
2.224380382702108694e+00
2.224380382702108694e+00
2.248568620868556689e+00
2.248568620868556689e+00
2.248568620868556689e+00
2.248568620868556689e+00
2.264694112979522167e+00
2.264694112979522167e+00
2.264694112979522167e+00
2.239943357646412725e+00
2.239943357646412725e+00
2.239943357646412725e+00
2.239943357646412725e+00
2.198317087313455875e+00
2.198317087313455875e+00
2.198317087313455875e+00
2.160065919980468152e+00
2.160065919980468152e+00
2.160065919980468152e+00
2.195504501480147752e+00
2.195504501480147752e+00
2.195504501480147752e+00
2.195504501480147752e+00
2.304070314645832784e+00
2.304070314645832784e+00
2.304070314645832784e+00
2.368009765923032361e+00
2.368009765923032361e+00
2.368009765923032361e+00
2.368009765923032361e+00
2.319633289590136371e+00
2.319633289590136371e+00
2.319633289590136371e+00
2.379072603534043484e+00
2.379072603534043484e+00
2.379072603534043484e+00
2.371384868923001932e+00
2.371384868923001932e+00
2.371384868923001932e+00
2.371384868923001932e+00
2.290382396923734465e+00
2.290382396923734465e+00
2.290382396923734465e+00
2.242380932035279439e+00
2.242380932035279439e+00
2.242380932035279439e+00
2.242380932035279439e+00
2.259443952757347329e+00
2.259443952757347329e+00
2.259443952757347329e+00
2.247256080813012868e+00
2.247256080813012868e+00
2.247256080813012868e+00
2.178628986480300345e+00
2.178628986480300345e+00
2.178628986480300345e+00
2.178628986480300345e+00
2.181629078035828950e+00
2.181629078035828950e+00
2.181629078035828950e+00
2.219692739646595747e+00
2.219692739646595747e+00
2.219692739646595747e+00
2.219692739646595747e+00
2.199817133091219734e+00
2.199817133091219734e+00
2.199817133091219734e+00
2.231318094424268317e+00
2.231318094424268317e+00
2.231318094424268317e+00
2.273131870479445649e+00
2.273131870479445649e+00
2.273131870479445649e+00
2.273131870479445649e+00
2.255131321146275347e+00
2.255131321146275347e+00
2.255131321146275347e+00
2.329383587145603673e+00
2.329383587145603673e+00
2.329383587145603673e+00
2.329383587145603673e+00
2.346446607867672007e+00
2.346446607867672007e+00
2.346446607867672007e+00
2.297882625812555535e+00
2.297882625812555535e+00
2.297882625812555535e+00
2.291694936979278285e+00
2.291694936979278285e+00
2.291694936979278285e+00
2.291694936979278285e+00
2.272194341868343237e+00
2.272194341868343237e+00
2.272194341868343237e+00
2.256443861201819168e+00
2.256443861201819168e+00
2.256443861201819168e+00
2.256443861201819168e+00
2.224005371257667729e+00
2.224005371257667729e+00
2.224005371257667729e+00
2.229630542924283532e+00
2.229630542924283532e+00
2.229630542924283532e+00
2.229630542924283532e+00
2.256443861201819168e+00
2.256443861201819168e+00
2.256443861201819168e+00
2.238443311868648422e+00
2.238443311868648422e+00
2.238443311868648422e+00
2.289069856868190644e+00
2.289069856868190644e+00
2.289069856868190644e+00
2.289069856868190644e+00
2.257943906979583026e+00
2.257943906979583026e+00
2.257943906979583026e+00
2.229818048646504014e+00
2.229818048646504014e+00
2.229818048646504014e+00
2.229818048646504014e+00
2.273694387646107540e+00
2.273694387646107540e+00
2.273694387646107540e+00
2.290757408368175430e+00
2.290757408368175430e+00
2.290757408368175430e+00
2.283819696646015807e+00
2.283819696646015807e+00
2.283819696646015807e+00
2.283819696646015807e+00
2.280257087923826198e+00
2.280257087923826198e+00
2.280257087923826198e+00
2.258506424146244473e+00
2.258506424146244473e+00
2.258506424146244473e+00
2.258506424146244473e+00
2.243693472090823260e+00
2.243693472090823260e+00
2.243693472090823260e+00
2.266944181646168399e+00
2.266944181646168399e+00
2.266944181646168399e+00
2.266944181646168399e+00
2.309882992034669069e+00
2.309882992034669069e+00
2.309882992034669069e+00
2.245943540757469048e+00
2.245943540757469048e+00
2.245943540757469048e+00
2.250818689535202921e+00
2.250818689535202921e+00
2.250818689535202921e+00
2.250818689535202921e+00
2.197004547257912055e+00
2.197004547257912055e+00
2.197004547257912055e+00
2.180316537980285130e+00
2.180316537980285130e+00
2.180316537980285130e+00
2.180316537980285130e+00
2.154628254036072832e+00
2.154628254036072832e+00
2.154628254036072832e+00
2.200567155980101663e+00
2.200567155980101663e+00
2.200567155980101663e+00
2.200567155980101663e+00
2.314195623645741495e+00
2.314195623645741495e+00
2.314195623645741495e+00
2.383572740867336393e+00
2.383572740867336393e+00
2.383572740867336393e+00
2.390885464033936536e+00
2.390885464033936536e+00
2.390885464033936536e+00
2.390885464033936536e+00
2.313445600756859122e+00
2.313445600756859122e+00
2.313445600756859122e+00
2.256818872646260132e+00
2.256818872646260132e+00
2.256818872646260132e+00
2.260381481368449741e+00
2.260381481368449741e+00
2.260381481368449741e+00
2.260381481368449741e+00
2.249881160924100509e+00
2.249881160924100509e+00
2.249881160924100509e+00
2.252131229590746742e+00
2.252131229590746742e+00
2.252131229590746742e+00
2.252131229590746742e+00
2.231130588702047834e+00
2.231130588702047834e+00
2.231130588702047834e+00
2.252131229590746742e+00
2.252131229590746742e+00
2.252131229590746742e+00
2.252131229590746742e+00
2.200379650257881181e+00
2.200379650257881181e+00
2.200379650257881181e+00
2.233005645924253102e+00
2.233005645924253102e+00
2.233005645924253102e+00
2.294882534257026929e+00
2.294882534257026929e+00
2.294882534257026929e+00
2.294882534257026929e+00
2.262069032868434526e+00
2.262069032868434526e+00
2.262069032868434526e+00
2.312695577867977192e+00
2.312695577867977192e+00
2.312695577867977192e+00
2.365009674367503756e+00
2.365009674367503756e+00
2.365009674367503756e+00
2.365009674367503756e+00
2.383947752311777357e+00
2.383947752311777357e+00
2.383947752311777357e+00
2.326383495590075512e+00
2.326383495590075512e+00
2.326383495590075512e+00
2.326383495590075512e+00
2.268444227423932702e+00
2.268444227423932702e+00
2.268444227423932702e+00
2.228318002868740155e+00
2.228318002868740155e+00
2.228318002868740155e+00
2.228318002868740155e+00
2.147503036591693171e+00
2.147503036591693171e+00
2.147503036591693171e+00
2.202817224646748340e+00
2.202817224646748340e+00
2.202817224646748340e+00
2.258131412701803509e+00
2.258131412701803509e+00
2.258131412701803509e+00
2.258131412701803509e+00
2.164753563035981099e+00
2.164753563035981099e+00
2.164753563035981099e+00
2.177878963591417971e+00
2.177878963591417971e+00
2.177878963591417971e+00
2.177878963591417971e+00
2.281944639423810539e+00
2.281944639423810539e+00
2.281944639423810539e+00
2.308382946256904766e+00
2.308382946256904766e+00
2.308382946256904766e+00
2.308382946256904766e+00
2.333133701590014208e+00
2.333133701590014208e+00
2.333133701590014208e+00
2.333133701590014208e+00
2.333133701590014208e+00
2.333133701590014208e+00
2.256256355479598685e+00
2.256256355479598685e+00
2.256256355479598685e+00
2.256256355479598685e+00
2.204317270424512643e+00
2.204317270424512643e+00
2.204317270424512643e+00
2.228318002868740155e+00
2.228318002868740155e+00
2.228318002868740155e+00
2.228318002868740155e+00
2.228505508590960638e+00
2.228505508590960638e+00
2.228505508590960638e+00
2.251006195257423848e+00
2.251006195257423848e+00
2.251006195257423848e+00
2.267131687368389326e+00
2.267131687368389326e+00
2.267131687368389326e+00
2.267131687368389326e+00
2.194191961424603932e+00
2.194191961424603932e+00
2.194191961424603932e+00
2.247631092257453833e+00
2.247631092257453833e+00
2.247631092257453833e+00
2.247631092257453833e+00
2.256256355479598685e+00
2.256256355479598685e+00
2.256256355479598685e+00
2.222692831202123909e+00
2.222692831202123909e+00
2.222692831202123909e+00
2.273694387646107540e+00
2.273694387646107540e+00
2.273694387646107540e+00
2.273694387646107540e+00
2.297132602923673161e+00
2.297132602923673161e+00
2.297132602923673161e+00
2.316258186590166801e+00
2.316258186590166801e+00
2.316258186590166801e+00
2.316258186590166801e+00
2.339883907589953349e+00
2.339883907589953349e+00
2.339883907589953349e+00
2.324695944090090727e+00
2.324695944090090727e+00
2.324695944090090727e+00
2.323945921201208797e+00
2.323945921201208797e+00
2.323945921201208797e+00
2.291694936979278285e+00
2.291694936979278285e+00
2.291694936979278285e+00
2.256068849757378203e+00
2.256068849757378203e+00
2.256068849757378203e+00
2.254568803979613900e+00
2.254568803979613900e+00
2.254568803979613900e+00
2.178628986480300345e+00
2.178628986480300345e+00
2.178628986480300345e+00
2.178628986480300345e+00
2.189691824091311467e+00
2.189691824091311467e+00
2.189691824091311467e+00
2.158378368480483367e+00
2.158378368480483367e+00
2.158378368480483367e+00
2.158378368480483367e+00
2.176753929258095077e+00
2.176753929258095077e+00
2.176753929258095077e+00
2.257381389812921579e+00
2.257381389812921579e+00
2.257381389812921579e+00
2.286819788201544412e+00
2.286819788201544412e+00
2.286819788201544412e+00
2.286819788201544412e+00
2.294695028534806447e+00
2.294695028534806447e+00
2.294695028534806447e+00
2.330508621478927012e+00
2.330508621478927012e+00
2.330508621478927012e+00
2.330508621478927012e+00
2.422948942533646566e+00
2.422948942533646566e+00
2.422948942533646566e+00
2.378322580645161111e+00
2.378322580645161111e+00
2.378322580645161111e+00
2.328821069978942226e+00
2.328821069978942226e+00
2.328821069978942226e+00
2.328821069978942226e+00
2.231505600146489243e+00
2.231505600146489243e+00
2.231505600146489243e+00
2.191754387035737217e+00
2.191754387035737217e+00
2.191754387035737217e+00
2.191754387035737217e+00
2.175628894924771739e+00
2.175628894924771739e+00
2.175628894924771739e+00
2.253631275368511044e+00
2.253631275368511044e+00
2.253631275368511044e+00
2.253631275368511044e+00
2.173003814813684542e+00
2.173003814813684542e+00
2.173003814813684542e+00
2.210317453535568966e+00
2.210317453535568966e+00
2.210317453535568966e+00
2.167566148869289222e+00
2.167566148869289222e+00
2.167566148869289222e+00
2.167566148869289222e+00
2.219317728202154782e+00
2.219317728202154782e+00
2.219317728202154782e+00
2.321320841090121156e+00
2.321320841090121156e+00
2.321320841090121156e+00
2.321320841090121156e+00
2.414323679311502602e+00
2.414323679311502602e+00
2.414323679311502602e+00
2.452949858088931290e+00
2.452949858088931290e+00
2.452949858088931290e+00
2.452949858088931290e+00
2.361634571367534630e+00
2.361634571367534630e+00
2.361634571367534630e+00
2.212942533646656607e+00
2.212942533646656607e+00
2.212942533646656607e+00
2.132502578814050587e+00
2.132502578814050587e+00
2.132502578814050587e+00
2.132502578814050587e+00
2.188941801202429094e+00
2.188941801202429094e+00
2.188941801202429094e+00
2.245568529313028083e+00
2.245568529313028083e+00
2.245568529313028083e+00
2.245568529313028083e+00
2.242943449201941331e+00
2.242943449201941331e+00
2.242943449201941331e+00
2.169628711813714972e+00
2.169628711813714972e+00
2.169628711813714972e+00
2.189504318369090985e+00
2.189504318369090985e+00
2.189504318369090985e+00
2.189504318369090985e+00
2.259256447035126847e+00
2.259256447035126847e+00
2.259256447035126847e+00
2.250631183812982439e+00
2.250631183812982439e+00
2.305382854701376161e+00
2.305382854701376161e+00
2.305382854701376161e+00
2.305382854701376161e+00
2.335571275978881367e+00
2.335571275978881367e+00
2.335571275978881367e+00
2.340258919034394314e+00
2.340258919034394314e+00
2.340258919034394314e+00
2.335946287423322332e+00
2.335946287423322332e+00
2.335946287423322332e+00
2.335946287423322332e+00
2.369134800256355700e+00
2.369134800256355700e+00
2.369134800256355700e+00
2.301632740256966070e+00
2.301632740256966070e+00
2.301632740256966070e+00
2.280444593646046680e+00
2.280444593646046680e+00
2.280444593646046680e+00
2.280444593646046680e+00
2.263569078646198829e+00
2.263569078646198829e+00
2.263569078646198829e+00
2.242193426313058957e+00
2.242193426313058957e+00
2.242193426313058957e+00
2.195129490035706787e+00
2.195129490035706787e+00
2.195129490035706787e+00
2.195129490035706787e+00
2.134190130314035372e+00
2.134190130314035372e+00
2.134190130314035372e+00
2.165503585924863472e+00
2.165503585924863472e+00
2.165503585924863472e+00
2.165503585924863472e+00
2.209379924924466998e+00
2.209379924924466998e+00
2.209379924924466998e+00
2.226442945646534444e+00
2.226442945646534444e+00
2.226442945646534444e+00
2.260381481368449741e+00
2.260381481368449741e+00
2.260381481368449741e+00
2.260381481368449741e+00
2.283819696646015807e+00
2.283819696646015807e+00
2.283819696646015807e+00
2.347009125034333454e+00
2.347009125034333454e+00
2.347009125034333454e+00
2.347009125034333454e+00
2.349446699423200169e+00
2.349446699423200169e+00
2.349446699423200169e+00
2.287944822534867306e+00
2.287944822534867306e+00
2.287944822534867306e+00
2.317383220923490139e+00
2.317383220923490139e+00
2.317383220923490139e+00
2.317383220923490139e+00
2.279132053590502860e+00
2.279132053590502860e+00
2.279132053590502860e+00
2.182754112369151844e+00
2.182754112369151844e+00
2.182754112369151844e+00
2.182754112369151844e+00
2.178441480758079862e+00
2.178441480758079862e+00
2.178441480758079862e+00
2.160440931424909561e+00
2.160440931424909561e+00
2.160440931424909561e+00
2.160440931424909561e+00
2.240880886257515137e+00
2.240880886257515137e+00
2.240880886257515137e+00
2.297695120090334608e+00
2.297695120090334608e+00
2.297695120090334608e+00
2.269381756035035114e+00
2.269381756035035114e+00
2.269381756035035114e+00
2.269381756035035114e+00
2.292069948423719250e+00
2.292069948423719250e+00
2.292069948423719250e+00
2.342883999145481511e+00
2.342883999145481511e+00
2.342883999145481511e+00
2.342883999145481511e+00
2.365197180089724238e+00
2.365197180089724238e+00
2.365197180089724238e+00
2.337258827478866152e+00
2.337258827478866152e+00
2.337258827478866152e+00
2.308570451979125249e+00
2.308570451979125249e+00
2.308570451979125249e+00
2.308570451979125249e+00
2.286444776757103448e+00
2.286444776757103448e+00
2.286444776757103448e+00
2.204879787591174090e+00
2.204879787591174090e+00
2.204879787591174090e+00
2.204879787591174090e+00
2.241255897701956545e+00
2.241255897701956545e+00
2.241255897701956545e+00
2.225317911313211550e+00
2.225317911313211550e+00
2.225317911313211550e+00
2.225317911313211550e+00
2.228880520035401602e+00
2.228880520035401602e+00
2.228880520035401602e+00
2.232818140202032620e+00
2.232818140202032620e+00
2.232818140202032620e+00
2.274256904812768987e+00
2.274256904812768987e+00
2.274256904812768987e+00
2.274256904812768987e+00
2.263569078646198829e+00
2.263569078646198829e+00
2.263569078646198829e+00
2.229630542924283532e+00
2.229630542924283532e+00
2.229630542924283532e+00
2.229630542924283532e+00
2.283257179479354360e+00
2.283257179479354360e+00
2.283257179479354360e+00
2.289444868312631609e+00
2.289444868312631609e+00
2.289444868312631609e+00
2.314383129367961978e+00
2.314383129367961978e+00
2.314383129367961978e+00
2.314383129367961978e+00
2.308007934812463802e+00
2.308007934812463802e+00
2.308007934812463802e+00
2.266944181646168399e+00
2.266944181646168399e+00
2.266944181646168399e+00
2.266944181646168399e+00
2.266381664479506952e+00
2.266381664479506952e+00
2.266381664479506952e+00
2.203004730368968822e+00
2.203004730368968822e+00
2.203004730368968822e+00
2.190066835535752432e+00
2.190066835535752432e+00
2.190066835535752432e+00
2.190066835535752432e+00
2.171316263313699757e+00
2.171316263313699757e+00
2.171316263313699757e+00
2.236193243202001746e+00
2.236193243202001746e+00
2.236193243202001746e+00
2.236193243202001746e+00
2.209567430646687480e+00
2.209567430646687480e+00
2.209567430646687480e+00
2.231880611590930208e+00
2.231880611590930208e+00
2.231880611590930208e+00
2.248193609424115724e+00
2.248193609424115724e+00
2.248193609424115724e+00
2.248193609424115724e+00
2.292444959868159771e+00
2.292444959868159771e+00
2.292444959868159771e+00
2.317570726645710621e+00
2.317570726645710621e+00
2.317570726645710621e+00
2.317570726645710621e+00
2.314758140812402942e+00
2.314758140812402942e+00
2.314758140812402942e+00
2.313820612201300086e+00
2.313820612201300086e+00
2.313820612201300086e+00
2.332196172978911797e+00
2.332196172978911797e+00
2.332196172978911797e+00
2.332196172978911797e+00
2.277632007812738557e+00
2.277632007812738557e+00
2.277632007812738557e+00
2.288319833979308715e+00
2.288319833979308715e+00
2.288319833979308715e+00
2.288319833979308715e+00
2.251381206701864812e+00
2.251381206701864812e+00
2.251381206701864812e+00
2.217067659535508550e+00
2.217067659535508550e+00
2.217067659535508550e+00
2.217067659535508550e+00
2.226630451368755370e+00
2.226630451368755370e+00
2.226630451368755370e+00
2.199442121646778769e+00
2.199442121646778769e+00
2.199442121646778769e+00
2.240880886257515137e+00
2.240880886257515137e+00
2.240880886257515137e+00
2.240880886257515137e+00
2.284944730979339145e+00
2.284944730979339145e+00
2.284944730979339145e+00
2.219317728202154782e+00
2.219317728202154782e+00
2.219317728202154782e+00
2.219317728202154782e+00
2.226067934202093479e+00
2.226067934202093479e+00
2.226067934202093479e+00
2.292257454145939732e+00
2.292257454145939732e+00
2.292257454145939732e+00
2.286069765312662039e+00
2.286069765312662039e+00
2.286069765312662039e+00
2.286069765312662039e+00
2.285882259590441556e+00
2.285882259590441556e+00
2.285882259590441556e+00
2.310070497756889552e+00
2.310070497756889552e+00
2.310070497756889552e+00
2.310070497756889552e+00
2.327883541367839371e+00
2.327883541367839371e+00
2.327883541367839371e+00
2.397823175756096159e+00
2.397823175756096159e+00
2.397823175756096159e+00
2.397823175756096159e+00
2.342321481978820064e+00
2.342321481978820064e+00
2.342321481978820064e+00
2.240130863368633207e+00
2.240130863368633207e+00
2.240130863368633207e+00
2.216130130924405695e+00
2.216130130924405695e+00
2.216130130924405695e+00
2.216130130924405695e+00
2.137752739036225869e+00
2.137752739036225869e+00
2.137752739036225869e+00
2.168316171758171151e+00
2.168316171758171151e+00
2.168316171758171151e+00
2.168316171758171151e+00
2.156503311258278099e+00
2.156503311258278099e+00
2.156503311258278099e+00
2.129502487258521981e+00
2.129502487258521981e+00
2.129502487258521981e+00
2.208817407757805107e+00
2.208817407757805107e+00
2.208817407757805107e+00
2.208817407757805107e+00
2.321133335367900674e+00
2.321133335367900674e+00
2.321133335367900674e+00
2.392198004089480357e+00
2.392198004089480357e+00
2.392198004089480357e+00
2.392198004089480357e+00
2.442449537644581614e+00
2.442449537644581614e+00
2.442449537644581614e+00
2.415073702200384531e+00
2.415073702200384531e+00
2.415073702200384531e+00
2.415073702200384531e+00
2.258131412701803509e+00
2.258131412701803509e+00
2.258131412701803509e+00
2.205254799035615054e+00
2.205254799035615054e+00
2.205254799035615054e+00
2.238818323313089387e+00
2.238818323313089387e+00
2.238818323313089387e+00
2.238818323313089387e+00
2.145815485091708386e+00
2.145815485091708386e+00
2.145815485091708386e+00
2.209379924924466998e+00
2.209379924924466998e+00
2.209379924924466998e+00
2.209379924924466998e+00
2.231880611590930208e+00
2.231880611590930208e+00
2.231880611590930208e+00
2.270506790368358452e+00
2.270506790368358452e+00
2.270506790368358452e+00
2.280444593646046680e+00
2.280444593646046680e+00
2.280444593646046680e+00
2.280444593646046680e+00
2.249693655201880027e+00
2.249693655201880027e+00
2.249693655201880027e+00
2.308195440534684284e+00
2.308195440534684284e+00
2.308195440534684284e+00
2.308195440534684284e+00
2.349634205145421095e+00
2.349634205145421095e+00
2.349634205145421095e+00
2.301632740256966070e+00
2.301632740256966070e+00
2.301632740256966070e+00
2.342321481978820064e+00
2.342321481978820064e+00
2.342321481978820064e+00
2.342321481978820064e+00
2.371384868923001932e+00
2.371384868923001932e+00
2.371384868923001932e+00
2.277444502090518075e+00
2.277444502090518075e+00
2.277444502090518075e+00
2.277444502090518075e+00
2.183316629535813735e+00
2.183316629535813735e+00
2.183316629535813735e+00
2.217630176702169997e+00
2.217630176702169997e+00
2.217630176702169997e+00
2.217630176702169997e+00
2.255506332590716312e+00
2.255506332590716312e+00
2.255506332590716312e+00
2.158003357036042402e+00
2.158003357036042402e+00
2.158003357036042402e+00
2.146565507980590315e+00
2.146565507980590315e+00
2.146565507980590315e+00
2.146565507980590315e+00
2.170941251869258792e+00
2.170941251869258792e+00
2.170941251869258792e+00
2.193629444257942485e+00
2.193629444257942485e+00
2.193629444257942485e+00
2.193629444257942485e+00
2.224942899868770141e+00
2.224942899868770141e+00
2.224942899868770141e+00
2.297132602923673161e+00
2.297132602923673161e+00
2.297132602923673161e+00
2.317195715201269657e+00
2.317195715201269657e+00
2.317195715201269657e+00
2.317195715201269657e+00
2.336321298867763296e+00
2.336321298867763296e+00
2.336321298867763296e+00
2.371759880367442896e+00
2.371759880367442896e+00
2.371759880367442896e+00
2.371759880367442896e+00
2.316070680867946319e+00
2.316070680867946319e+00
2.316070680867946319e+00
2.272006836146122755e+00
2.272006836146122755e+00
2.272006836146122755e+00
2.272006836146122755e+00
2.259068941312906365e+00
2.259068941312906365e+00
2.259068941312906365e+00
2.272006836146122755e+00
2.272006836146122755e+00
2.272006836146122755e+00
2.219130222479934300e+00
2.219130222479934300e+00
2.219130222479934300e+00
2.219130222479934300e+00
2.239568346201971760e+00
2.239568346201971760e+00
2.239568346201971760e+00
2.320195806756797818e+00
2.320195806756797818e+00
2.320195806756797818e+00
2.320195806756797818e+00
2.315133152256843907e+00
2.315133152256843907e+00
2.315133152256843907e+00
2.193816949980162967e+00
2.193816949980162967e+00
2.193816949980162967e+00
2.184816675313578038e+00
2.184816675313578038e+00
2.184816675313578038e+00
2.184816675313578038e+00
2.162878505813776275e+00
2.162878505813776275e+00
2.162878505813776275e+00
2.245568529313028083e+00
2.245568529313028083e+00
2.245568529313028083e+00
2.245568529313028083e+00
2.311945554979094819e+00
2.311945554979094819e+00
2.311945554979094819e+00
2.397448164311655194e+00
2.397448164311655194e+00
2.397448164311655194e+00
2.397448164311655194e+00
2.367822260200811879e+00
2.367822260200811879e+00
2.367822260200811879e+00
2.289257362590411127e+00
2.289257362590411127e+00
2.289257362590411127e+00
2.194941984313486305e+00
2.194941984313486305e+00
2.194941984313486305e+00
2.194941984313486305e+00
2.216880153813287624e+00
2.216880153813287624e+00
2.216880153813287624e+00
2.180504043702505612e+00
2.180504043702505612e+00
2.180504043702505612e+00
2.268069215979491737e+00
2.268069215979491737e+00
2.268069215979491737e+00
2.268069215979491737e+00
2.348696676534318240e+00
2.348696676534318240e+00
2.348696676534318240e+00
2.287007293923764895e+00
2.287007293923764895e+00
2.287007293923764895e+00
2.182191595202490397e+00
2.182191595202490397e+00
2.182191595202490397e+00
2.182191595202490397e+00
2.263569078646198829e+00
2.263569078646198829e+00
2.263569078646198829e+00
2.304632831812494231e+00
2.304632831812494231e+00
2.304632831812494231e+00
2.304632831812494231e+00
2.298070131534776017e+00
2.298070131534776017e+00
2.298070131534776017e+00
2.331258644367808941e+00
2.331258644367808941e+00
2.331258644367808941e+00
2.331258644367808941e+00
2.288882351145970162e+00
2.288882351145970162e+00
2.288882351145970162e+00
2.257568895535142062e+00
2.257568895535142062e+00
2.257568895535142062e+00
2.223630359813226764e+00
2.223630359813226764e+00
2.223630359813226764e+00
2.223630359813226764e+00
2.253068758201849597e+00
2.253068758201849597e+00
2.253068758201849597e+00
2.241630909146397510e+00
2.241630909146397510e+00
2.241630909146397510e+00
2.241630909146397510e+00
2.219692739646595747e+00
2.219692739646595747e+00
2.219692739646595747e+00
2.133252601702932960e+00
2.133252601702932960e+00
2.133252601702932960e+00
2.117127109591967482e+00
2.117127109591967482e+00
2.117127109591967482e+00
2.117127109591967482e+00
2.183504135258034218e+00
2.183504135258034218e+00
2.183504135258034218e+00
2.254756309701834383e+00
2.254756309701834383e+00
2.254756309701834383e+00
2.254756309701834383e+00
2.307445417645802355e+00
2.307445417645802355e+00
2.307445417645802355e+00
2.356009399700918827e+00
2.356009399700918827e+00
2.356009399700918827e+00
2.356009399700918827e+00
2.349259193700979687e+00
2.349259193700979687e+00
2.349259193700979687e+00
2.392760521256141804e+00
2.392760521256141804e+00
2.392760521256141804e+00
2.395198095645008962e+00
2.395198095645008962e+00
2.395198095645008962e+00
2.395198095645008962e+00
2.324695944090090727e+00
2.324695944090090727e+00
2.324695944090090727e+00
2.239380840479750834e+00
2.239380840479750834e+00
2.239380840479750834e+00
2.239380840479750834e+00
2.202442213202307375e+00
2.202442213202307375e+00
2.202442213202307375e+00
2.261506515701773079e+00
2.261506515701773079e+00
2.261506515701773079e+00
2.196817041535691573e+00
2.196817041535691573e+00
2.196817041535691573e+00
2.196817041535691573e+00
2.235818231757560781e+00
2.235818231757560781e+00
2.235818231757560781e+00
2.236755760368663637e+00
2.236755760368663637e+00
2.236755760368663637e+00
2.236755760368663637e+00
2.184629169591357556e+00
2.184629169591357556e+00
2.184629169591357556e+00
2.217442670979949515e+00
2.217442670979949515e+00
2.217442670979949515e+00
2.325258461256752618e+00
2.325258461256752618e+00
2.325258461256752618e+00
2.325258461256752618e+00
2.383760246589556875e+00
2.383760246589556875e+00
2.383760246589556875e+00
2.446574663533433114e+00
2.446574663533433114e+00
2.446574663533433114e+00
2.446574663533433114e+00
2.389197912533951751e+00
2.389197912533951751e+00
2.389197912533951751e+00
2.313820612201300086e+00
2.313820612201300086e+00
2.313820612201300086e+00
2.313820612201300086e+00
2.192504409924619146e+00
2.192504409924619146e+00
2.192504409924619146e+00
2.133627613147373925e+00
2.133627613147373925e+00
2.133627613147373925e+00
2.168503677480392078e+00
2.168503677480392078e+00
2.168503677480392078e+00
2.168503677480392078e+00
2.237130771813104602e+00
2.237130771813104602e+00
2.237130771813104602e+00
2.234318185979796478e+00
2.234318185979796478e+00
2.234318185979796478e+00
2.234318185979796478e+00
2.230755577257606870e+00
2.230755577257606870e+00
2.230755577257606870e+00
2.291694936979278285e+00
2.291694936979278285e+00
2.291694936979278285e+00
2.252881252479629115e+00
2.252881252479629115e+00
2.252881252479629115e+00
2.252881252479629115e+00
2.210692464980010374e+00
2.210692464980010374e+00
2.210692464980010374e+00
2.262631550035096417e+00
2.262631550035096417e+00
2.262631550035096417e+00
2.262631550035096417e+00
2.333883724478896582e+00
2.333883724478896582e+00
2.333883724478896582e+00
2.392010498367259874e+00
2.392010498367259874e+00
2.392010498367259874e+00
2.392010498367259874e+00
2.365009674367503756e+00
2.365009674367503756e+00
2.365009674367503756e+00
2.377197546311838217e+00
2.377197546311838217e+00
2.377197546311838217e+00
2.288319833979308715e+00
2.288319833979308715e+00
2.288319833979308715e+00
2.288319833979308715e+00
2.197942075869014911e+00
2.197942075869014911e+00
2.197942075869014911e+00
2.110376903592028786e+00
2.110376903592028786e+00
2.110376903592028786e+00
2.110376903592028786e+00
2.171878780480361648e+00
2.171878780480361648e+00
2.171878780480361648e+00
2.122752281258583285e+00
2.122752281258583285e+00
2.122752281258583285e+00
2.122752281258583285e+00
2.207692373424482213e+00
2.207692373424482213e+00
2.207692373424482213e+00
2.281569627979369130e+00
2.281569627979369130e+00
2.281569627979369130e+00
2.254568803979613900e+00
2.254568803979613900e+00
2.254568803979613900e+00
2.254568803979613900e+00
2.350571733756523507e+00
2.350571733756523507e+00
2.350571733756523507e+00
2.326571001312295994e+00
2.326571001312295994e+00
2.267131687368389326e+00
2.267131687368389326e+00
2.299757683034760802e+00
2.331071138645588459e+00
2.331071138645588459e+00
2.284007202368236289e+00
2.249693655201880027e+00
2.249693655201880027e+00
2.224380382702108694e+00
2.224380382702108694e+00
2.247068575090792386e+00
2.244818506424146598e+00
2.244818506424146598e+00
2.227380474257637299e+00
2.227380474257637299e+00
2.259443952757347329e+00
2.187629261146885273e+00
2.187629261146885273e+00
2.206379833368938392e+00
2.206379833368938392e+00
2.291882442701498768e+00
2.372884914700766235e+00
2.372884914700766235e+00
2.386760338145085036e+00
2.449762260811182202e+00
2.449762260811182202e+00
2.266194158757286470e+00
2.266194158757286470e+00
2.140002807702871657e+00
2.131190038758506766e+00
2.131190038758506766e+00
2.269194250312814631e+00
2.266194158757286470e+00
2.218192693868831444e+00
2.218192693868831444e+00
2.205067293313394572e+00
2.222692831202123909e+00
2.222692831202123909e+00
2.262256538590655452e+00
2.262256538590655452e+00
2.280819605090487201e+00
2.320758323923459709e+00
2.320758323923459709e+00
2.369509811700796664e+00
2.369509811700796664e+00
2.350196722312082542e+00
2.309507980590228104e+00
2.309507980590228104e+00
2.264881618701742649e+00
2.264881618701742649e+00
2.241630909146397510e+00
2.326008484145634547e+00
2.326008484145634547e+00
2.186879238258003344e+00
2.186879238258003344e+00
2.240505874813074172e+00
2.286257271034882521e+00
2.286257271034882521e+00
2.248006103701895242e+00
2.126689901425214746e+00
2.126689901425214746e+00
2.148440565202795582e+00
2.148440565202795582e+00
2.261319009979552597e+00
2.299945188756981285e+00
2.299945188756981285e+00
2.361072054200873183e+00
2.361072054200873183e+00
2.359947019867549844e+00
2.407198461867122496e+00
2.407198461867122496e+00
2.329946104312265120e+00
2.329946104312265120e+00
2.245193517868587563e+00
2.267694204535050773e+00
2.267694204535050773e+00
2.306882900479140464e+00
2.298820154423657947e+00
2.298820154423657947e+00
2.223817865535447247e+00
2.223817865535447247e+00
2.129877498702963390e+00
2.115814569536424106e+00
2.115814569536424106e+00
2.128939970091860534e+00
2.128939970091860534e+00
2.245756035035248566e+00
2.348884182256538722e+00
2.334821253089998994e+00
2.334821253089998994e+00
2.296195074312570750e+00
2.296195074312570750e+00
2.295632557145908859e+00
2.263756584368419311e+00
2.263756584368419311e+00
2.283819696646015807e+00
2.283819696646015807e+00
2.270694296090578934e+00
2.289444868312631609e+00
2.289444868312631609e+00
2.282694662312692468e+00
2.287757316812646824e+00
2.287757316812646824e+00
2.287569811090426342e+00
2.287569811090426342e+00
2.242193426313058957e+00
2.145252967925046494e+00
2.145252967925046494e+00
2.215192602313302839e+00
2.215192602313302839e+00
2.269006744590594149e+00
2.239943357646412725e+00
2.239943357646412725e+00
2.383760246589556875e+00
2.383760246589556875e+00
2.391447981200597983e+00
2.266006653035065987e+00
2.266006653035065987e+00
2.242380932035279439e+00
2.256443861201819168e+00
2.256443861201819168e+00
2.289632374034852091e+00
2.289632374034852091e+00
2.296570085757011714e+00
2.232255623035371173e+00
2.232255623035371173e+00
2.228880520035401602e+00
2.228880520035401602e+00
2.182941618091372327e+00
2.193816949980162967e+00
2.193816949980162967e+00
2.327696035645618888e+00
2.397635670033875677e+00
2.397635670033875677e+00
2.341383953367717208e+00
2.341383953367717208e+00
2.301257728812525105e+00
2.277819513534959039e+00
2.277819513534959039e+00
2.284569719534897736e+00
2.284569719534897736e+00
2.281194616534928166e+00
2.258318918424023991e+00
2.258318918424023991e+00
2.197379558702353020e+00
2.197379558702353020e+00
2.214067567979979945e+00
2.201692190313425002e+00
2.201692190313425002e+00
2.198504593035676358e+00
2.209942442091128445e+00
2.209942442091128445e+00
2.251943723868526259e+00
2.251943723868526259e+00
2.270319284646137969e+00
2.363322122867518971e+00
2.363322122867518971e+00
2.353759331034272151e+00
2.353759331034272151e+00
2.317758232367931104e+00
2.261881527146214044e+00
2.261881527146214044e+00
2.197754570146794428e+00
2.197754570146794428e+00
2.230943082979827352e+00
2.185754203924680450e+00
2.185754203924680450e+00
2.224942899868770141e+00
2.296382580034791232e+00
2.296382580034791232e+00
2.324133426923429280e+00
2.289819879757073018e+00
2.289819879757073018e+00
2.296007568590349823e+00
2.296007568590349823e+00
2.350196722312082542e+00
2.315695669423505798e+00
2.315695669423505798e+00
2.190066835535752432e+00
2.190066835535752432e+00
2.221755302591021497e+00
2.259631458479567812e+00
2.259631458479567812e+00
2.267881710257271255e+00
2.296382580034791232e+00
2.296382580034791232e+00
2.361447065645314147e+00
2.361447065645314147e+00
2.365572191534165203e+00
2.275381939146092325e+00
2.275381939146092325e+00
2.075500839259010633e+00
2.075500839259010633e+00
2.177503952146977007e+00
2.209192419202246516e+00
2.209192419202246516e+00
2.274819421979430434e+00
2.274819421979430434e+00
2.316258186590166801e+00
2.172816309091464060e+00
2.172816309091464060e+00
2.349634205145421095e+00
2.349634205145421095e+00
2.382822717978454019e+00
2.340821436201055761e+00
2.293945005645924073e+00
2.293945005645924073e+00
2.309882992034669069e+00
2.309882992034669069e+00
2.294507522812585520e+00
2.278569536423841413e+00
2.278569536423841413e+00
2.273881893368328022e+00
2.273881893368328022e+00
2.251943723868526259e+00
2.197379558702353020e+00
2.197379558702353020e+00
2.089188756981108952e+00
2.089188756981108952e+00
2.025249305703909375e+00
2.240318369090853690e+00
2.240318369090853690e+00
2.326008484145634547e+00
2.360322031311990809e+00
2.360322031311990809e+00
2.317008209479048730e+00
2.317008209479048730e+00
2.260006469924008776e+00
2.269569261757255596e+00
2.269569261757255596e+00
2.299945188756981285e+00
2.299945188756981285e+00
2.275569444868312807e+00
2.297320108645893644e+00
2.297320108645893644e+00
2.311008026367992407e+00
2.311008026367992407e+00
2.230755577257606870e+00
2.105876766258735877e+00
2.105876766258735877e+00
2.089938779869991325e+00
2.089938779869991325e+00
2.208442396313364142e+00
2.308570451979125249e+00
2.308570451979125249e+00
2.358071962645344577e+00
2.369134800256355700e+00
2.369134800256355700e+00
2.354134342478713116e+00
2.354134342478713116e+00
2.348884182256538722e+00
2.327508529923398850e+00
2.327508529923398850e+00
2.284569719534897736e+00
2.284569719534897736e+00
2.243505966368602778e+00
2.307445417645802355e+00
2.307445417645802355e+00
2.259443952757347329e+00
2.259443952757347329e+00
2.289069856868190644e+00
2.145065462202826012e+00
2.145065462202826012e+00
2.081313516647846917e+00
2.238255806146427940e+00
2.238255806146427940e+00
2.363884640034180418e+00
2.363884640034180418e+00
2.198504593035676358e+00
2.272381847590563719e+00
2.272381847590563719e+00
2.292069948423719250e+00
2.292069948423719250e+00
2.260943998535111632e+00
2.232068117313150690e+00
2.232068117313150690e+00
2.242755943479720404e+00
2.242755943479720404e+00
2.342133976256599581e+00
2.348696676534318240e+00
2.348696676534318240e+00
2.260943998535111632e+00
2.260943998535111632e+00
2.210879970702230857e+00
2.160065919980468152e+00
2.160065919980468152e+00
2.175441389202551257e+00
2.175441389202551257e+00
2.273506881923887057e+00
2.322070863979003530e+00
2.322070863979003530e+00
2.247818597979674760e+00
2.247818597979674760e+00
2.280444593646046680e+00
2.299570177312540320e+00
2.299570177312540320e+00
2.239755851924192243e+00
2.214442579424420909e+00
2.214442579424420909e+00
2.317195715201269657e+00
2.448449720755638381e+00
2.401010773033844803e+00
2.401010773033844803e+00
2.235818231757560781e+00
2.088626239814447505e+00
2.088626239814447505e+00
1.915183446760460262e+00
2.124439832758568070e+00
2.124439832758568070e+00
2.353759331034272151e+00
2.353759331034272151e+00
2.366134708700827094e+00
2.400260750144962874e+00
2.400260750144962874e+00
2.433261757255775315e+00
2.433261757255775315e+00
2.346634113589892490e+00
2.285132236701559627e+00
2.285132236701559627e+00
2.287569811090426342e+00
2.297695120090334608e+00
2.297695120090334608e+00
2.272006836146122755e+00
2.272006836146122755e+00
2.136627704702902530e+00
2.127252418591876193e+00
2.127252418591876193e+00
2.124814844203009478e+00
2.124814844203009478e+00
2.152190679647205673e+00
2.280257087923826198e+00
2.280257087923826198e+00
2.221005279702139568e+00
2.221005279702139568e+00
2.226442945646534444e+00
2.378697592089602519e+00
2.378697592089602519e+00
2.343259010589922919e+00
2.343259010589922919e+00
2.237318277535325084e+00
2.292819971312600735e+00
2.292819971312600735e+00
2.276881984923856628e+00
2.331633655812249906e+00
2.331633655812249906e+00
2.335196264534440402e+00
2.335196264534440402e+00
2.289632374034852091e+00
2.215755119479964730e+00
2.215755119479964730e+00
2.192129398480178182e+00
2.192129398480178182e+00
2.223442854091006282e+00
2.173566331980346433e+00
2.173566331980346433e+00
2.251381206701864812e+00
2.251381206701864812e+00
2.335008758812219920e+00
2.378697592089602519e+00
2.378697592089602519e+00
2.343259010589922919e+00
2.352071779534287366e+00
2.352071779534287366e+00
2.199067110202337361e+00
2.199067110202337361e+00
1.992435804315317194e+00
2.010811365092929126e+00
2.010811365092929126e+00
2.177316446424756524e+00
2.177316446424756524e+00
2.266194158757286470e+00
2.293007477034821662e+00
2.293007477034821662e+00
2.302570268868068482e+00
2.302570268868068482e+00
2.224755394146549659e+00
2.366884731589709023e+00
2.366884731589709023e+00
2.397635670033875677e+00
2.298820154423657947e+00
2.298820154423657947e+00
2.260943998535111632e+00
2.260943998535111632e+00
2.260193975646229259e+00
2.379822626422925413e+00
2.379822626422925413e+00
2.353196813867610704e+00
2.353196813867610704e+00
2.310445509201330516e+00
2.340633930478835278e+00
2.340633930478835278e+00
2.265256630146183614e+00
2.265256630146183614e+00
2.206004821924497428e+00
2.189504318369090985e+00
2.189504318369090985e+00
2.125939878536332373e+00
2.125939878536332373e+00
2.093501388592180934e+00
2.256068849757378203e+00
2.256068849757378203e+00
2.311758049256874337e+00
2.300695211645863214e+00
2.300695211645863214e+00
2.234505691702016961e+00
2.234505691702016961e+00
2.193441938535722002e+00
2.238255806146427940e+00
2.238255806146427940e+00
2.384697775200659287e+00
2.384697775200659287e+00
2.317758232367931104e+00
2.395948118533890892e+00
2.395948118533890892e+00
2.363697134311959935e+00
2.363697134311959935e+00
2.261319009979552597e+00
2.310633014923550999e+00
2.310633014923550999e+00
2.028061891537217498e+00
2.062937955870235207e+00
2.062937955870235207e+00
1.887807611316263401e+00
1.887807611316263401e+00
2.200754661702322146e+00
2.593766655476546834e+00
2.593766655476546834e+00
2.445637134922330258e+00
2.445637134922330258e+00
2.321695852534562121e+00
2.086563676870021755e+00
2.086563676870021755e+00
2.090876308481094181e+00
2.090876308481094181e+00
2.270131778923917043e+00
2.275569444868312807e+00
2.275569444868312807e+00
2.268256721701712220e+00
2.316070680867946319e+00
2.316070680867946319e+00
2.269006744590594149e+00
2.269006744590594149e+00
2.229818048646504014e+00
2.274069399090548504e+00
2.274069399090548504e+00
2.208629902035584625e+00
2.208629902035584625e+00
2.116939603869747000e+00
2.266756675923947917e+00
2.266756675923947917e+00
2.398385692922757606e+00
2.361447065645314147e+00
2.361447065645314147e+00
2.356196905423139309e+00
2.356196905423139309e+00
2.238255806146427940e+00
2.187066743980223826e+00
2.187066743980223826e+00
2.240693380535294654e+00
2.240693380535294654e+00
2.282132145146031021e+00
2.325445966978973100e+00
2.325445966978973100e+00
2.175253883480330774e+00
2.175253883480330774e+00
2.104751731925412539e+00
2.234318185979796478e+00
2.234318185979796478e+00
2.344946562089907705e+00
2.344946562089907705e+00
2.288882351145970162e+00
2.206192327646717910e+00
2.206192327646717910e+00
2.308945463423566213e+00
2.308945463423566213e+00
2.341383953367717208e+00
2.325820978423414065e+00
2.325820978423414065e+00
2.260568987090670667e+00
2.185566698202459968e+00
2.185566698202459968e+00
2.155378276924954761e+00
2.155378276924954761e+00
2.139252784813989727e+00
2.063875484481338063e+00
2.063875484481338063e+00
2.158565874202703849e+00
2.158565874202703849e+00
2.284194708090456771e+00
2.200192144535660699e+00
2.200192144535660699e+00
2.377572557756279181e+00
2.377572557756279181e+00
2.277632007812738557e+00
2.269756767479476078e+00
2.269756767479476078e+00
2.366322214423047576e+00
2.366322214423047576e+00
2.311008026367992407e+00
2.325633472701193583e+00
2.325633472701193583e+00
2.300695211645863214e+00
2.310258003479110034e+00
2.310258003479110034e+00
2.237505783257545566e+00
2.237505783257545566e+00
2.191566881313516735e+00
2.275756950590533290e+00
2.275756950590533290e+00
2.262819055757316900e+00
2.262819055757316900e+00
2.191754387035737217e+00
2.230755577257606870e+00
2.230755577257606870e+00
2.237130771813104602e+00
2.237130771813104602e+00
2.223442854091006282e+00
2.186504226813562823e+00
2.186504226813562823e+00
2.265069124423963132e+00
2.306132877590258534e+00
2.306132877590258534e+00
2.273506881923887057e+00
2.273506881923887057e+00
2.293945005645924073e+00
2.215567613757744247e+00
2.215567613757744247e+00
2.149565599536118921e+00
2.149565599536118921e+00
1.988873195593127363e+00
1.926433790093691867e+00
1.926433790093691867e+00
2.140752830591753586e+00
2.140752830591753586e+00
2.431011688589129527e+00
2.411698599200414961e+00
2.411698599200414961e+00
2.511826654866176511e+00
2.564890774254585448e+00
2.564890774254585448e+00
2.457074983977782345e+00
2.457074983977782345e+00
2.224005371257667729e+00
2.000123538926358524e+00
2.000123538926358524e+00
1.928496353038117617e+00
1.928496353038117617e+00
2.038187200537125765e+00
2.216505142368846659e+00
2.216505142368846659e+00
2.396323129978331856e+00
2.396323129978331856e+00
2.321695852534562121e+00
2.231130588702047834e+00
2.231130588702047834e+00
2.294695028534806447e+00
2.294695028534806447e+00
2.328633564256721744e+00
2.282694662312692468e+00
2.282694662312692468e+00
2.294695028534806447e+00
2.428386608478041886e+00
2.428386608478041886e+00
2.541452558977019383e+00
2.541452558977019383e+00
2.398573198644978088e+00
2.312883083590197675e+00
2.312883083590197675e+00
2.221005279702139568e+00
2.221005279702139568e+00
2.190066835535752432e+00
2.117127109591967482e+00
2.117127109591967482e+00
1.870182073427533842e+00
1.972747703482162107e+00
1.972747703482162107e+00
2.107376812036500180e+00
2.107376812036500180e+00
2.077938413647877791e+00
2.388072878200628413e+00
2.388072878200628413e+00
2.494576128421887695e+00
2.494576128421887695e+00
2.519514389477218064e+00
2.404948393200476264e+00
2.404948393200476264e+00
2.175816400646992221e+00
2.175816400646992221e+00
2.107376812036500180e+00
2.179754020813623683e+00
2.179754020813623683e+00
2.432136722922452865e+00
2.432136722922452865e+00
2.281007110812707683e+00
2.399510727256080500e+00
2.399510727256080500e+00
2.426511551255836618e+00
2.426511551255836618e+00
2.185941709646900932e+00
2.077563402203436382e+00
2.077563402203436382e+00
2.194941984313486305e+00
2.203567247535630269e+00
2.203567247535630269e+00
2.300132694479201767e+00
2.300132694479201767e+00
2.441699514755699685e+00
2.262256538590655452e+00
2.262256538590655452e+00
2.273881893368328022e+00
2.273881893368328022e+00
2.350571733756523507e+00
2.215567613757744247e+00
2.215567613757744247e+00
2.275381939146092325e+00
2.275381939146092325e+00
2.286632282479323930e+00
2.311008026367992407e+00
2.311008026367992407e+00
2.410011047700430176e+00
2.410011047700430176e+00
2.377385052034058699e+00
2.331071138645588459e+00
2.331071138645588459e+00
2.141877864925076924e+00
1.937121616260262025e+00
1.937121616260262025e+00
2.153315713980529011e+00
2.153315713980529011e+00
2.300320200201422249e+00
2.403260841700491479e+00
2.403260841700491479e+00
2.281944639423810539e+00
2.281944639423810539e+00
2.131190038758506766e+00
2.180504043702505612e+00
2.180504043702505612e+00
2.181816583758049433e+00
2.181816583758049433e+00
2.356384411145359792e+00
2.327883541367839371e+00
2.327883541367839371e+00
2.139815301980651618e+00
1.808492690816980719e+00
1.808492690816980719e+00
2.351134250923184954e+00
2.351134250923184954e+00
2.429886654255806189e+00
2.540140018921475562e+00
2.540140018921475562e+00
2.529264687032685366e+00
2.529264687032685366e+00
2.410386059144871140e+00
2.343259010589922919e+00
2.343259010589922919e+00
2.258693929868464956e+00
2.043999877925962494e+00
2.043999877925962494e+00
1.857244178594317452e+00
1.857244178594317452e+00
1.971060151982177322e+00
2.260193975646229259e+00
2.260193975646229259e+00
2.580266243476668553e+00
2.580266243476668553e+00
2.319445783867915889e+00
2.171128757591479275e+00
2.171128757591479275e+00
2.254006286812952009e+00
2.254006286812952009e+00
2.505451460310678335e+00
2.425574022644734207e+00
2.425574022644734207e+00
2.302382763145847999e+00
2.302382763145847999e+00
2.308007934812463802e+00
2.212567522202215642e+00
2.212567522202215642e+00
2.265069124423963132e+00
2.242005920590838475e+00
2.242005920590838475e+00
2.051312601092562637e+00
2.051312601092562637e+00
2.090501297036652772e+00
2.263381572923978347e+00
2.263381572923978347e+00
2.284569719534897736e+00
2.284569719534897736e+00
2.439824457533493973e+00
2.368759788811914291e+00
2.368759788811914291e+00
2.247818597979674760e+00
2.247818597979674760e+00
2.298820154423657947e+00
2.426699056978057101e+00
2.426699056978057101e+00
2.447887203588976490e+00
2.447887203588976490e+00
2.222317819757682944e+00
1.905433149204992960e+00
1.905433149204992960e+00
1.945934385204626693e+00
2.311195532090212890e+00
2.311195532090212890e+00
2.420323862422559369e+00
2.420323862422559369e+00
2.455387432477798004e+00
2.137752739036225869e+00
2.137752739036225869e+00
2.126689901425214746e+00
2.241630909146397510e+00
2.241630909146397510e+00
2.154065736869411385e+00
2.154065736869411385e+00
2.156690816980498582e+00
2.573516037476729856e+00
2.573516037476729856e+00
2.634267891476180345e+00
2.634267891476180345e+00
2.465700247199926753e+00
2.348509170812097757e+00
2.348509170812097757e+00
2.259256447035126847e+00
2.233568163090914993e+00
2.233568163090914993e+00
2.093501388592180934e+00
2.093501388592180934e+00
1.929621387371440955e+00
2.133252601702932960e+00
2.133252601702932960e+00
2.222692831202123909e+00
2.222692831202123909e+00
2.317008209479048730e+00
2.127252418591876193e+00
2.127252418591876193e+00
2.211629993591112786e+00
2.211629993591112786e+00
2.168691183202612560e+00
2.377010040589617734e+00
2.377010040589617734e+00
2.434574297311319135e+00
2.414136173589282119e+00
2.414136173589282119e+00
2.339133884701071420e+00
2.339133884701071420e+00
2.314195623645741495e+00
2.282882168034912951e+00
2.282882168034912951e+00
2.519514389477218064e+00
2.519514389477218064e+00
2.342508987701040546e+00
2.071750724814600098e+00
2.071750724814600098e+00
2.021311685537278358e+00
2.021311685537278358e+00
2.013998962370677770e+00
2.224567888424329176e+00
2.224567888424329176e+00
2.377572557756279181e+00
2.377572557756279181e+00
2.405135898922696747e+00
2.433449262977995797e+00
2.433449262977995797e+00
2.500013794366283459e+00
2.415636219367045978e+00
2.415636219367045978e+00
2.240318369090853690e+00
2.240318369090853690e+00
2.231318094424268317e+00
2.299945188756981285e+00
2.299945188756981285e+00
2.226442945646534444e+00
2.226442945646534444e+00
1.960747337260048351e+00
1.985123081148716606e+00
1.985123081148716606e+00
2.118064638203069894e+00
2.343071504867702437e+00
2.343071504867702437e+00
2.362197088534196077e+00
2.362197088534196077e+00
2.266944181646168399e+00
2.182754112369151844e+00
2.182754112369151844e+00
2.472825464644306859e+00
2.472825464644306859e+00
2.461762627033295736e+00
2.451449812311166987e+00
2.451449812311166987e+00
2.434011780144657688e+00
2.434011780144657688e+00
2.358821985534226506e+00
2.300320200201422249e+00
2.300320200201422249e+00
2.134190130314035372e+00
2.134190130314035372e+00
2.142627887813959298e+00
2.128189947202978605e+00
2.128189947202978605e+00
2.135690176091799675e+00
2.135690176091799675e+00
2.120314706869716570e+00
1.894182805871761355e+00
1.894182805871761355e+00
2.154628254036072832e+00
2.512764183477279367e+00
2.512764183477279367e+00
2.498888760032960121e+00
2.498888760032960121e+00
2.483700796533097499e+00
2.408135990478225352e+00
2.408135990478225352e+00
2.385822809533982625e+00
2.385822809533982625e+00
2.263006561479537382e+00
2.182191595202490397e+00
2.182191595202490397e+00
2.120877224036378017e+00
2.120877224036378017e+00
2.040624774925992480e+00
1.970122623371074688e+00
1.970122623371074688e+00
2.169816217535935454e+00
2.380760155034028269e+00
2.380760155034028269e+00
2.443762077700125435e+00
2.443762077700125435e+00
2.254756309701834383e+00
2.460075075533310951e+00
2.460075075533310951e+00
2.427636585589159957e+00
2.427636585589159957e+00
2.383197729422894984e+00
2.278194524979400004e+00
2.278194524979400004e+00
2.250818689535202921e+00
2.250818689535202921e+00
2.248381115146336207e+00
2.164566057313760616e+00
2.164566057313760616e+00
2.267881710257271255e+00
2.256256355479598685e+00
2.182191595202490397e+00
2.182191595202490397e+00
2.102689168980987233e+00
2.102689168980987233e+00
2.004061159092989985e+00
2.224192876979888212e+00
2.224192876979888212e+00
2.252506241035188150e+00
2.252506241035188150e+00
2.478075624866481697e+00
2.375134983367412023e+00
2.375134983367412023e+00
2.362384594256416559e+00
2.459137546922208095e+00
2.459137546922208095e+00
2.303507797479171337e+00
2.303507797479171337e+00
2.127627430036317158e+00
2.163628528702658205e+00
2.163628528702658205e+00
2.367634754478591397e+00
2.367634754478591397e+00
2.192129398480178182e+00
2.400635761589403838e+00
2.400635761589403838e+00
2.300320200201422249e+00
2.300320200201422249e+00
2.300320200201422249e+00
2.224567888424329176e+00
2.224567888424329176e+00
2.168316171758171151e+00
2.168316171758171151e+00
2.354696859645375007e+00
2.385072786645100695e+00
2.385072786645100695e+00
2.009686330759605788e+00
2.009686330759605788e+00
1.988310678426465694e+00
2.348884182256538722e+00
2.348884182256538722e+00
2.473387981810968306e+00
2.572953520310068409e+00
2.572953520310068409e+00
2.237693288979766049e+00
2.237693288979766049e+00
1.994873378704184130e+00
1.991498275704214560e+00
1.991498275704214560e+00
2.095001434369945237e+00
2.095001434369945237e+00
2.375322489089632505e+00
2.448074709311197417e+00
2.448074709311197417e+00
2.452012329477828434e+00
2.596204229865413549e+00
2.596204229865413549e+00
2.324508438367870244e+00
2.009123813592944341e+00
2.009123813592944341e+00
2.017749076815088305e+00
2.017749076815088305e+00
2.227567979979857782e+00
2.237318277535325084e+00
2.237318277535325084e+00
2.036312143314920498e+00
1.936746604815820838e+00
1.936746604815820838e+00
2.173566331980346433e+00
2.173566331980346433e+00
2.497201208532975336e+00
2.499451277199621568e+00
2.499451277199621568e+00
2.466637775811029609e+00
2.407573473311563461e+00
2.407573473311563461e+00
2.371947386089663379e+00
2.371947386089663379e+00
2.467012787255470574e+00
2.279882076479384789e+00
2.279882076479384789e+00
2.274631916257209951e+00
2.274631916257209951e+00
2.092751365703299449e+00
1.958309762871181414e+00
1.958309762871181414e+00
2.029374431592760875e+00
2.029374431592760875e+00
2.030874477370525177e+00
2.341008941923276243e+00
2.341008941923276243e+00
2.542202581865901756e+00
2.434949308755760100e+00
2.434949308755760100e+00
2.368572283089693808e+00
2.368572283089693808e+00
2.378697592089602519e+00
2.253256263924070080e+00
2.253256263924070080e+00
2.184441663869136629e+00
2.184441663869136629e+00
2.239568346201971760e+00
2.274069399090548504e+00
2.274069399090548504e+00
2.307445417645802355e+00
2.307445417645802355e+00
2.243880977813043742e+00
2.206192327646717910e+00
2.206192327646717910e+00
2.284007202368236289e+00
2.285882259590441556e+00
2.285882259590441556e+00
2.324883449812311209e+00
2.324883449812311209e+00
2.222880336924344391e+00
2.031624500259407551e+00
2.031624500259407551e+00
2.058062807092501334e+00
2.058062807092501334e+00
2.174316354869228363e+00
2.449762260811182202e+00
2.449762260811182202e+00
2.572203497421186036e+00
2.572203497421186036e+00
2.420698873867000778e+00
2.313258095034638639e+00
2.313258095034638639e+00
2.182754112369151844e+00
2.182754112369151844e+00
2.179566515091402756e+00
2.408886013367107282e+00
2.408886013367107282e+00
2.498326242866298674e+00
2.155753288369396170e+00
2.155753288369396170e+00
2.067250587481307633e+00
2.067250587481307633e+00
2.322070863979003530e+00
2.033874568926053783e+00
2.033874568926053783e+00
1.827805780205694841e+00
2.126314889980773337e+00
2.126314889980773337e+00
2.416011230811487387e+00
2.416011230811487387e+00
2.677394207586901498e+00
2.507889034699545494e+00
2.507889034699545494e+00
2.194379467146824858e+00
2.194379467146824858e+00
1.980247932370982955e+00
2.256818872646260132e+00
2.256818872646260132e+00
2.368197271645252844e+00
2.368197271645252844e+00
2.257006378368480615e+00
2.188191778313547164e+00
2.188191778313547164e+00
2.335196264534440402e+00
2.335196264534440402e+00
2.367822260200811879e+00
2.323383404034546906e+00
2.323383404034546906e+00
2.276881984923856628e+00
2.255881344035157721e+00
2.255881344035157721e+00
2.166628620258186366e+00
2.166628620258186366e+00
2.377572557756279181e+00
2.246506057924130939e+00
2.246506057924130939e+00
2.181441572313608468e+00
2.181441572313608468e+00
2.134940153202917745e+00
2.388822901089510786e+00
2.388822901089510786e+00
2.343634022034363884e+00
2.343634022034363884e+00
2.071375713370158689e+00
2.013436445204016323e+00
2.013436445204016323e+00
2.384135258033997840e+00
2.384135258033997840e+00
2.303695303201391820e+00
2.374384960478530537e+00
2.374384960478530537e+00
2.572203497421186036e+00
2.572203497421186036e+00
2.399885738700521909e+00
2.176378917813653668e+00
2.176378917813653668e+00
2.093876400036621899e+00
2.367634754478591397e+00
2.367634754478591397e+00
2.527952146977141545e+00
2.527952146977141545e+00
2.250256172368541474e+00
2.094063905758842381e+00
2.094063905758842381e+00
2.101376628925443413e+00
2.101376628925443413e+00
1.953997131260109432e+00
2.222692831202123909e+00
2.222692831202123909e+00
2.078500930814539238e+00
2.078500930814539238e+00
2.323758415478988315e+00
2.490826013977477604e+00
2.490826013977477604e+00
2.433074251533554833e+00
2.433074251533554833e+00
2.328446058534500818e+00
2.273319376201666131e+00
2.273319376201666131e+00
2.291694936979278285e+00
2.445262123477889293e+00
2.445262123477889293e+00
2.274631916257209951e+00
2.274631916257209951e+00
2.181816583758049433e+00
2.165503585924863472e+00
2.165503585924863472e+00
2.110376903592028786e+00
2.110376903592028786e+00
2.205817316202276945e+00
2.377572557756279181e+00
2.377572557756279181e+00
2.154628254036072832e+00
2.154628254036072832e+00
2.015311502426221590e+00
2.280257087923826198e+00
2.280257087923826198e+00
2.453512375255592737e+00
2.453512375255592737e+00
2.331071138645588459e+00
2.371759880367442896e+00
2.371759880367442896e+00
2.466262764366588645e+00
2.430636677144688562e+00
2.430636677144688562e+00
2.314945646534623425e+00
2.314945646534623425e+00
2.089188756981108952e+00
2.142440382091738371e+00
2.142440382091738371e+00
2.032374523148289480e+00
2.032374523148289480e+00
1.923058687093722297e+00
2.205442304757835537e+00
2.205442304757835537e+00
2.330508621478927012e+00
2.330508621478927012e+00
2.415073702200384531e+00
2.432136722922452865e+00
2.432136722922452865e+00
2.393135532700583212e+00
2.438324411755729670e+00
2.438324411755729670e+00
2.387697866756187448e+00
2.387697866756187448e+00
2.413198644978179264e+00
2.176753929258095077e+00
2.176753929258095077e+00
2.005936216315195253e+00
2.005936216315195253e+00
2.099876583147679110e+00
2.056000244148076028e+00
2.056000244148076028e+00
2.212755027924436124e+00
2.572203497421186036e+00
2.572203497421186036e+00
2.328071047090059853e+00
2.183129123813593253e+00
2.183129123813593253e+00
2.313820612201300086e+00
2.313820612201300086e+00
2.300882717368083696e+00
2.207504867702261730e+00
2.207504867702261730e+00
2.153315713980529011e+00
2.153315713980529011e+00
2.307632923368022837e+00
2.328633564256721744e+00
2.328633564256721744e+00
2.344759056367687222e+00
2.344759056367687222e+00
2.353946836756492633e+00
2.304820337534714714e+00
2.304820337534714714e+00
2.274444410534989469e+00
2.274444410534989469e+00
2.180129032258064647e+00
2.173191320535905025e+00
2.173191320535905025e+00
2.259256447035126847e+00
2.122002258369701355e+00
2.122002258369701355e+00
2.099501571703238145e+00
2.099501571703238145e+00
2.128377452925199087e+00
2.472262947477644968e+00
2.472262947477644968e+00
2.476763084810937876e+00
2.476763084810937876e+00
2.203004730368968822e+00
2.285132236701559627e+00
2.285132236701559627e+00
2.414698690755943566e+00
2.209754936368907963e+00
2.209754936368907963e+00
2.065563035981322848e+00
2.065563035981322848e+00
2.293757499923703591e+00
2.284194708090456771e+00
2.284194708090456771e+00
2.459325052644428578e+00
2.459325052644428578e+00
2.167941160313730187e+00
2.164566057313760616e+00
2.164566057313760616e+00
2.123877315591906623e+00
2.123877315591906623e+00
2.362947111423078006e+00
2.411698599200414961e+00
2.411698599200414961e+00
2.390885464033936536e+00
2.265819147312845505e+00
2.265819147312845505e+00
2.257381389812921579e+00
2.257381389812921579e+00
2.311195532090212890e+00
2.248756126590777171e+00
2.248756126590777171e+00
2.180504043702505612e+00
2.180504043702505612e+00
2.241068391979735619e+00
2.269569261757255596e+00
2.269569261757255596e+00
2.137565233314004942e+00
2.137565233314004942e+00
2.220630268257698603e+00
2.227380474257637299e+00
2.227380474257637299e+00
2.276131962034974254e+00
2.457449995422223310e+00
2.457449995422223310e+00
2.308195440534684284e+00
2.308195440534684284e+00
2.220255256813257638e+00
2.161378460036011973e+00
2.161378460036011973e+00
2.177128940702536042e+00
2.177128940702536042e+00
2.382072695089572090e+00
2.376447523422955843e+00
2.376447523422955843e+00
2.390885464033936536e+00
2.390885464033936536e+00
2.297507614368114126e+00
2.179941526535844165e+00
2.179941526535844165e+00
2.255693838312936794e+00
2.255693838312936794e+00
2.182191595202490397e+00
2.253818781090731527e+00
2.253818781090731527e+00
2.157065828424939546e+00
2.202442213202307375e+00
2.202442213202307375e+00
2.356946928312021239e+00
2.356946928312021239e+00
2.383572740867336393e+00
2.342321481978820064e+00
2.342321481978820064e+00
2.289069856868190644e+00
2.289069856868190644e+00
2.221567796868801015e+00
2.260568987090670667e+00
2.260568987090670667e+00
2.390135441145054607e+00
2.390135441145054607e+00
2.216692648091067142e+00
2.038749717703787212e+00
2.038749717703787212e+00
1.882557451094088563e+00
1.882557451094088563e+00
1.872807153538621261e+00
2.420511368144779851e+00
2.420511368144779851e+00
2.642143131809442824e+00
2.803398052919095385e+00
2.803398052919095385e+00
2.649830866420483932e+00
2.649830866420483932e+00
2.267881710257271255e+00
2.167191137424848257e+00
2.167191137424848257e+00
2.215755119479964730e+00
2.215755119479964730e+00
2.050187566759239299e+00
2.029749443037202283e+00
2.029749443037202283e+00
2.189879329813531950e+00
2.189879329813531950e+00
2.127627430036317158e+00
2.289819879757073018e+00
2.207129856257820322e+00
2.207129856257820322e+00
2.307632923368022837e+00
2.292819971312600735e+00
2.292819971312600735e+00
2.386947843867305519e+00
2.386947843867305519e+00
2.498326242866298674e+00
2.375885006256294396e+00
2.375885006256294396e+00
2.161565965758232455e+00
2.161565965758232455e+00
2.079063447981200685e+00
2.020186651203955464e+00
2.020186651203955464e+00
2.254568803979613900e+00
2.407573473311563461e+00
2.407573473311563461e+00
2.363509628589739453e+00
2.363509628589739453e+00
2.254943815424054865e+00
2.071563219092379615e+00
2.071563219092379615e+00
2.154815759758293314e+00
2.154815759758293314e+00
2.274444410534989469e+00
2.349634205145421095e+00
2.349634205145421095e+00
2.434199285866878171e+00
2.434199285866878171e+00
2.454637409588916075e+00
2.525889584032716240e+00
2.525889584032716240e+00
2.416761253700369316e+00
2.416761253700369316e+00
2.255131321146275347e+00
2.078500930814539238e+00
2.078500930814539238e+00
2.036874660481581945e+00
2.181254066591387542e+00
2.181254066591387542e+00
2.243880977813043742e+00
2.243880977813043742e+00
2.138502761925107798e+00
2.059937864314706601e+00
2.059937864314706601e+00
2.124064821314127105e+00
2.124064821314127105e+00
2.302570268868068482e+00
2.395385601367229444e+00
2.395385601367229444e+00
2.452387340922269399e+00
2.452387340922269399e+00
2.281007110812707683e+00
2.242380932035279439e+00
2.520826929532761884e+00
2.520826929532761884e+00
2.501326334421826836e+00
2.501326334421826836e+00
2.357134434034241721e+00
2.279319559312723342e+00
2.279319559312723342e+00
2.065375530259102366e+00
2.065375530259102366e+00
1.915558458204901227e+00
2.150878139591662741e+00
2.150878139591662741e+00
2.224005371257667729e+00
2.271256813257240381e+00
2.271256813257240381e+00
2.398010681478316641e+00
2.398010681478316641e+00
2.377760063478499664e+00
2.441512009033478758e+00
2.441512009033478758e+00
2.362947111423078006e+00
2.362947111423078006e+00
2.316633198034607766e+00
2.218380199591051927e+00
2.218380199591051927e+00
2.143940427869502674e+00
2.143940427869502674e+00
2.106814294869838289e+00
2.263944090090640238e+00
2.263944090090640238e+00
2.108876857814264483e+00
2.148065553758354618e+00
2.148065553758354618e+00
2.204129764702292160e+00
2.204129764702292160e+00
2.495513657032990551e+00
2.369134800256355700e+00
2.369134800256355700e+00
2.291882442701498768e+00
2.291882442701498768e+00
2.425386516922513280e+00
2.460637592699972398e+00
2.460637592699972398e+00
2.388822901089510786e+00
2.388822901089510786e+00
2.095188940092165719e+00
2.077375896481215900e+00
2.077375896481215900e+00
2.218567705313272853e+00
2.308195440534684284e+00
2.308195440534684284e+00
1.931121433149205036e+00
1.931121433149205036e+00
2.230568071535386387e+00
2.400448255867183356e+00
2.400448255867183356e+00
2.381510177922910199e+00
2.381510177922910199e+00
2.232630634479812137e+00
2.292819971312600735e+00
2.292819971312600735e+00
2.298070131534776017e+00
2.298070131534776017e+00
2.193254432813501520e+00
2.298070131534776017e+00
2.298070131534776017e+00
2.239755851924192243e+00
2.189129306924649576e+00
2.189129306924649576e+00
2.197567064424573946e+00
2.197567064424573946e+00
2.316633198034607766e+00
2.387510361033966966e+00
2.387510361033966966e+00
2.298632648701437464e+00
2.298632648701437464e+00
2.230943082979827352e+00
2.188191778313547164e+00
2.188191778313547164e+00
2.122189764091921838e+00
2.306132877590258534e+00
2.306132877590258534e+00
2.434574297311319135e+00
2.434574297311319135e+00
2.376822534867396808e+00
2.343446516312143402e+00
2.343446516312143402e+00
2.243130954924161813e+00
2.185941709646900932e+00
2.185941709646900932e+00
2.243693472090823260e+00
2.243693472090823260e+00
2.254006286812952009e+00
2.203942258980071234e+00
2.203942258980071234e+00
2.309882992034669069e+00
2.309882992034669069e+00
2.292819971312600735e+00
2.239943357646412725e+00
2.239943357646412725e+00
2.353946836756492633e+00
2.353946836756492633e+00
2.275569444868312807e+00
2.233568163090914993e+00
2.233568163090914993e+00
2.265256630146183614e+00
2.265256630146183614e+00
2.323383404034546906e+00
2.478263130588702179e+00
2.478263130588702179e+00
2.396698141422773265e+00
1.998623493148594665e+00
1.998623493148594665e+00
1.737615527817621519e+00
1.737615527817621519e+00
2.288132328257088233e+00
2.641205603198339968e+00
2.641205603198339968e+00
2.377947569200720146e+00
2.377947569200720146e+00
2.333321207312235135e+00
2.318695760979033516e+00
2.318695760979033516e+00
2.237318277535325084e+00
2.237318277535325084e+00
2.235068208868678852e+00
2.202629718924527857e+00
2.202629718924527857e+00
2.260568987090670667e+00
2.260568987090670667e+00
2.130440015869624837e+00
2.238630817590868904e+00
2.238630817590868904e+00
2.210504959257789892e+00
2.264694112979522167e+00
2.264694112979522167e+00
2.267694204535050773e+00
2.267694204535050773e+00
2.277069490646077110e+00
2.306132877590258534e+00
2.306132877590258534e+00
2.182941618091372327e+00
2.182941618091372327e+00
2.349821710867641578e+00
2.356009399700918827e+00
2.356009399700918827e+00
2.385260292367321178e+00
2.385260292367321178e+00
2.206379833368938392e+00
2.059562852870265637e+00
2.059562852870265637e+00
2.106626789147617806e+00
2.234505691702016961e+00
2.234505691702016961e+00
2.403260841700491479e+00
2.403260841700491479e+00
2.478825647755364070e+00
2.428761619922483295e+00
2.428761619922483295e+00
2.266756675923947917e+00
2.266756675923947917e+00
2.301257728812525105e+00
2.284007202368236289e+00
2.284007202368236289e+00
2.164191045869319652e+00
2.164191045869319652e+00
2.147315530869472244e+00
2.229255531479842567e+00
2.229255531479842567e+00
2.169816217535935454e+00
2.169816217535935454e+00
2.229255531479842567e+00
2.171128757591479275e+00
2.171128757591479275e+00
2.142440382091738371e+00
2.256256355479598685e+00
2.256256355479598685e+00
2.256443861201819168e+00
2.256443861201819168e+00
2.341008941923276243e+00
2.437386883144627259e+00
2.437386883144627259e+00
2.681331827753532515e+00
2.681331827753532515e+00
2.298445142979216982e+00
2.295632557145908859e+00
2.295632557145908859e+00
2.266194158757286470e+00
2.266194158757286470e+00
2.246318552201910457e+00
2.259256447035126847e+00
2.259256447035126847e+00
2.046812463759269729e+00
2.046812463759269729e+00
2.043062349314859638e+00
2.283069673757133433e+00
2.283069673757133433e+00
2.313633106479079604e+00
2.297695120090334608e+00
2.297695120090334608e+00
2.358821985534226506e+00
2.358821985534226506e+00
2.383947752311777357e+00
2.320570818201239227e+00
2.320570818201239227e+00
2.287382305368205859e+00
2.287382305368205859e+00
2.228693014313181120e+00
2.252881252479629115e+00
2.252881252479629115e+00
2.273506881923887057e+00
2.273506881923887057e+00
2.230380565813165905e+00
2.183504135258034218e+00
2.183504135258034218e+00
2.100814111758781966e+00
2.017374065370647340e+00
2.017374065370647340e+00
2.221567796868801015e+00
2.221567796868801015e+00
2.417698782311472172e+00
2.338946378978850937e+00
2.338946378978850937e+00
2.373072420422986717e+00
2.373072420422986717e+00
2.476200567644276429e+00
2.434761803033539618e+00
2.434761803033539618e+00
2.273881893368328022e+00
2.273881893368328022e+00
2.092938871425519931e+00
2.072313241981261545e+00
2.072313241981261545e+00
2.251193700979644330e+00
2.214630085146641392e+00
2.214630085146641392e+00
2.287757316812646824e+00
2.287757316812646824e+00
2.215942625202185212e+00
2.215942625202185212e+00
2.215942625202185212e+00
2.330321115756706529e+00
2.330321115756706529e+00
2.270506790368358452e+00
2.443949583422345917e+00
2.443949583422345917e+00
2.393510544145024177e+00
2.393510544145024177e+00
2.190441846980193397e+00
2.233568163090914993e+00
2.233568163090914993e+00
2.206192327646717910e+00
2.206192327646717910e+00
2.076250862147892562e+00
2.053187658314767905e+00
2.053187658314767905e+00
2.147690542313913653e+00
2.147690542313913653e+00
2.348884182256538722e+00
2.412073610644855925e+00
2.412073610644855925e+00
2.534514847254860204e+00
2.376635029145176325e+00
2.376635029145176325e+00
2.326571001312295994e+00
2.326571001312295994e+00
2.357884456923124095e+00
2.425011505478072316e+00
2.425011505478072316e+00
2.289819879757073018e+00
2.289819879757073018e+00
2.215755119479964730e+00
1.997873470259712514e+00
1.997873470259712514e+00
2.263569078646198829e+00
2.263569078646198829e+00
2.462512649922177665e+00
2.351884273812066883e+00
2.351884273812066883e+00
2.069500656147953865e+00
2.069500656147953865e+00
1.957372234260078780e+00
2.092938871425519931e+00
2.092938871425519931e+00
2.252881252479629115e+00
2.248193609424115724e+00
2.248193609424115724e+00
2.263381572923978347e+00
2.263381572923978347e+00
2.430449171422468080e+00
2.489888485366374749e+00
2.489888485366374749e+00
2.389385418256172233e+00
2.389385418256172233e+00
2.290944914090395912e+00
2.386947843867305519e+00
2.386947843867305519e+00
2.367822260200811879e+00
2.367822260200811879e+00
2.222880336924344391e+00
2.168316171758171151e+00
2.168316171758171151e+00
2.172628803369243577e+00
2.172628803369243577e+00
2.167191137424848257e+00
2.112439466536454535e+00
2.112439466536454535e+00
2.299757683034760802e+00
2.365572191534165203e+00
2.365572191534165203e+00
2.395573107089449927e+00
2.395573107089449927e+00
2.388072878200628413e+00
2.316258186590166801e+00
2.316258186590166801e+00
2.173003814813684542e+00
2.173003814813684542e+00
1.996185918759727951e+00
2.059750358592486119e+00
2.059750358592486119e+00
2.008561296426282894e+00
2.139440290536210654e+00
2.139440290536210654e+00
2.413198644978179264e+00
2.413198644978179264e+00
2.460637592699972398e+00
2.408698507644886799e+00
2.408698507644886799e+00
2.338008850367748082e+00
2.338008850367748082e+00
2.319820795312356854e+00
2.315508163701284872e+00
2.315508163701284872e+00
2.292069948423719250e+00
2.292069948423719250e+00
2.390697958311716054e+00
2.254193792535172935e+00
2.254193792535172935e+00
2.256256355479598685e+00
2.256256355479598685e+00
2.285882259590441556e+00
2.244255989257484707e+00
2.244255989257484707e+00
2.150315622425000850e+00
2.206942350535599839e+00
2.206942350535599839e+00
2.334071230201117064e+00
2.334071230201117064e+00
2.280819605090487201e+00
2.136252693258461566e+00
2.195504501480147752e+00
2.195504501480147752e+00
2.309320474868007622e+00
2.329758598590044638e+00
2.329758598590044638e+00
2.341008941923276243e+00
2.341008941923276243e+00
2.225880428479872997e+00
2.085251136814477935e+00
2.085251136814477935e+00
2.288507339701529197e+00
2.339133884701071420e+00
2.339133884701071420e+00
2.434199285866878171e+00
2.434199285866878171e+00
2.372134891811884305e+00
2.242380932035279439e+00
2.242380932035279439e+00
2.146565507980590315e+00
2.146565507980590315e+00
2.230005554368724940e+00
2.167191137424848257e+00
2.167191137424848257e+00
2.241443403424177028e+00
2.241443403424177028e+00
2.339696401867732423e+00
2.368384777367473326e+00
2.368384777367473326e+00
2.413948667867061193e+00
2.413948667867061193e+00
2.353384319589831186e+00
2.125377361369670925e+00
2.125377361369670925e+00
2.096688985869930022e+00
2.210317453535568966e+00
2.210317453535568966e+00
2.233380657368694511e+00
2.233380657368694511e+00
2.260006469924008776e+00
2.303882808923612302e+00
2.303882808923612302e+00
2.330883632923367976e+00
2.330883632923367976e+00
2.313633106479079604e+00
2.222317819757682944e+00
2.222317819757682944e+00
2.188566789757988129e+00
2.188566789757988129e+00
2.141877864925076924e+00
2.347571642200994901e+00
2.347571642200994901e+00
2.347571642200994901e+00
2.347571642200994901e+00
2.309132969145787140e+00
2.389197912533951751e+00
2.389197912533951751e+00
2.348696676534318240e+00
2.348696676534318240e+00
2.248006103701895242e+00
2.131752555925168657e+00
2.131752555925168657e+00
2.244068483535264225e+00
2.244068483535264225e+00
2.371947386089663379e+00
2.267506698812830290e+00
2.267506698812830290e+00
2.232630634479812137e+00
2.281007110812707683e+00
2.281007110812707683e+00
2.266569170201727434e+00
2.266569170201727434e+00
2.131565050202948175e+00
1.881244911038544965e+00
1.881244911038544965e+00
2.100814111758781966e+00
2.100814111758781966e+00
2.664831324198126516e+00
2.689394573809015476e+00
2.689394573809015476e+00
2.449574755088961275e+00
2.267131687368389326e+00
2.267131687368389326e+00
2.149940610980559885e+00
2.149940610980559885e+00
2.110376903592028786e+00
2.185754203924680450e+00
2.185754203924680450e+00
2.189129306924649576e+00
2.189129306924649576e+00
2.168691183202612560e+00
2.128564958647419569e+00
2.128564958647419569e+00
2.184629169591357556e+00
2.184629169591357556e+00
2.357321939756462204e+00
2.401010773033844803e+00
2.401010773033844803e+00
2.456137455366679934e+00
2.340633930478835278e+00
2.340633930478835278e+00
2.308195440534684284e+00
2.308195440534684284e+00
2.378697592089602519e+00
2.122752281258583285e+00
2.122752281258583285e+00
2.248943632312997654e+00
2.248943632312997654e+00
2.408135990478225352e+00
2.221567796868801015e+00
2.221567796868801015e+00
2.150128116702780368e+00
2.150128116702780368e+00
2.119377178258613714e+00
2.116377086703085553e+00
2.116377086703085553e+00
2.174316354869228363e+00
2.174316354869228363e+00
2.413011139255958781e+00
2.484638325144199911e+00
2.484638325144199911e+00
2.263006561479537382e+00
2.149003082369457029e+00
2.149003082369457029e+00
2.218192693868831444e+00
2.218192693868831444e+00
2.315883175145725836e+00
2.396510635700552783e+00
2.396510635700552783e+00
2.302195257423627517e+00
2.302195257423627517e+00
2.242568437757499922e+00
2.263756584368419311e+00
2.263756584368419311e+00
2.184066652424695665e+00
2.184066652424695665e+00
2.301445234534745587e+00
2.301445234534745587e+00
2.204692281868953607e+00
2.262069032868434526e+00
2.262069032868434526e+00
2.268256721701712220e+00
2.268256721701712220e+00
2.336508804589983779e+00
2.361072054200873183e+00
2.361072054200873183e+00
2.391260475478377501e+00
2.391260475478377501e+00
2.313070589312418157e+00
2.133440107425153442e+00
2.133440107425153442e+00
2.139065279091769245e+00
2.139065279091769245e+00
2.115439558091983141e+00
2.183504135258034218e+00
2.183504135258034218e+00
2.239380840479750834e+00
2.415823725089266905e+00
2.415823725089266905e+00
2.382260200811792572e+00
2.382260200811792572e+00
2.326008484145634547e+00
2.332571184423352761e+00
2.332571184423352761e+00
2.306320383312479017e+00
2.306320383312479017e+00
2.109439374980925930e+00
2.231880611590930208e+00
2.231880611590930208e+00
2.363884640034180418e+00
2.363884640034180418e+00
2.234693197424237443e+00
2.297882625812555535e+00
2.297882625812555535e+00
2.166816125980407293e+00
2.166816125980407293e+00
2.246131046479689974e+00
2.270881801812799416e+00
2.270881801812799416e+00
2.194941984313486305e+00
2.269756767479476078e+00
2.269756767479476078e+00
2.358446974089785542e+00
2.358446974089785542e+00
2.234318185979796478e+00
2.181066560869167059e+00
2.181066560869167059e+00
2.338758873256630455e+00
2.338758873256630455e+00
2.426699056978057101e+00
2.335383770256660885e+00
2.335383770256660885e+00
2.208442396313364142e+00
2.208442396313364142e+00
2.271444318979460864e+00
2.209754936368907963e+00
2.209754936368907963e+00
2.053562669759208870e+00
2.053562669759208870e+00
2.107001800592058771e+00
2.268631733146153184e+00
2.294507522812585520e+00
2.294507522812585520e+00
2.440386974700155864e+00
2.440386974700155864e+00
2.285507248146000592e+00
2.330321115756706529e+00
2.330321115756706529e+00
2.443574571977904952e+00
2.443574571977904952e+00
2.428761619922483295e+00
2.274069399090548504e+00
2.274069399090548504e+00
2.218942716757713818e+00
2.218942716757713818e+00
2.321883358256782603e+00
2.178253975035859380e+00
2.178253975035859380e+00
2.078875942258980203e+00
2.180316537980285130e+00
2.180316537980285130e+00
2.155753288369396170e+00
2.155753288369396170e+00
2.189691824091311467e+00
2.258881435590685438e+00
2.258881435590685438e+00
2.290944914090395912e+00
2.290944914090395912e+00
2.389010406811731269e+00
2.350759239478743989e+00
2.350759239478743989e+00
2.256818872646260132e+00
2.256818872646260132e+00
2.262631550035096417e+00
2.344571550645466296e+00
2.344571550645466296e+00
2.310445509201330516e+00
2.310445509201330516e+00
2.261131504257332114e+00
2.181441572313608468e+00
2.181441572313608468e+00
2.227942991424298746e+00
2.221942808313242423e+00
2.221942808313242423e+00
2.333883724478896582e+00
2.333883724478896582e+00
2.243505966368602778e+00
2.244443494979705633e+00
2.244443494979705633e+00
2.323570909756767389e+00
2.323570909756767389e+00
2.363134617145298488e+00
2.286069765312662039e+00
2.286069765312662039e+00
2.359572008423108880e+00
2.359572008423108880e+00
2.319633289590136371e+00
2.234318185979796478e+00
2.234318185979796478e+00
2.242568437757499922e+00
2.242568437757499922e+00
2.178253975035859380e+00
2.228693014313181120e+00
2.228693014313181120e+00
2.260193975646229259e+00
2.263006561479537382e+00
2.263006561479537382e+00
2.236943266090884119e+00
2.232630634479812137e+00
2.232630634479812137e+00
2.255881344035157721e+00
2.239943357646412725e+00
2.239943357646412725e+00
2.261319009979552597e+00
2.171691274758141166e+00
2.171691274758141166e+00
2.176378917813653668e+00
2.290944914090395912e+00
2.290944914090395912e+00
2.466825281533250092e+00
2.466825281533250092e+00
2.398198187200537124e+00
2.256068849757378203e+00
2.256068849757378203e+00
2.235068208868678852e+00
2.235068208868678852e+00
2.250631183812982439e+00
2.205817316202276945e+00
2.205817316202276945e+00
2.182379100924710880e+00
2.182379100924710880e+00
2.201879696035645484e+00
2.370822351756340485e+00
2.370822351756340485e+00
2.373822443311869090e+00
2.373822443311869090e+00
2.258693929868464956e+00
2.291882442701498768e+00
2.291882442701498768e+00
2.205067293313394572e+00
2.287569811090426342e+00
2.287569811090426342e+00
2.315320657979064389e+00
2.315320657979064389e+00
2.247256080813012868e+00
2.261881527146214044e+00
2.261881527146214044e+00
2.271444318979460864e+00
2.271444318979460864e+00
2.207317361980041248e+00
2.196067018646809643e+00
2.196067018646809643e+00
2.178441480758079862e+00
2.178441480758079862e+00
2.205442304757835537e+00
2.270131778923917043e+00
2.270131778923917043e+00
2.265819147312845505e+00
2.265819147312845505e+00
2.315133152256843907e+00
2.329758598590044638e+00
2.329758598590044638e+00
2.460262581255531433e+00
2.460262581255531433e+00
2.390135441145054607e+00
2.278194524979400004e+00
2.278194524979400004e+00
2.248193609424115724e+00
2.248193609424115724e+00
2.292632465590380253e+00
2.330508621478927012e+00
2.330508621478927012e+00
2.217630176702169997e+00
2.158565874202703849e+00
2.158565874202703849e+00
2.042312326425977265e+00
2.042312326425977265e+00
2.118064638203069894e+00
2.219880245368816230e+00
2.219880245368816230e+00
2.314570635090182460e+00
2.314570635090182460e+00
2.317383220923490139e+00
2.379260109256263966e+00
2.379260109256263966e+00
2.424823999755851833e+00
2.424823999755851833e+00
2.204504776146733125e+00
2.225505417035432032e+00
2.225505417035432032e+00
2.413386150700399746e+00
2.393885555589465142e+00
2.393885555589465142e+00
2.307820429090243319e+00
2.307820429090243319e+00
2.141877864925076924e+00
2.141877864925076924e+00
2.141877864925076924e+00
2.188566789757988129e+00
2.188566789757988129e+00
2.254756309701834383e+00
2.262256538590655452e+00
2.262256538590655452e+00
2.245943540757469048e+00
2.245943540757469048e+00
2.274444410534989469e+00
2.299757683034760802e+00
2.299757683034760802e+00
2.283819696646015807e+00
2.283819696646015807e+00
2.287944822534867306e+00
2.362759605700857524e+00
2.362759605700857524e+00
2.286819788201544412e+00
2.286819788201544412e+00
2.270881801812799416e+00
2.289069856868190644e+00
2.289069856868190644e+00
2.223630359813226764e+00
2.221192785424360050e+00
2.221192785424360050e+00
2.258131412701803509e+00
2.258131412701803509e+00
2.130627521591845319e+00
2.140002807702871657e+00
2.140002807702871657e+00
2.196254524369030126e+00
2.196254524369030126e+00
2.427636585589159957e+00
2.430449171422468080e+00
2.430449171422468080e+00
2.392010498367259874e+00
2.292069948423719250e+00
2.292069948423719250e+00
2.240880886257515137e+00
2.240880886257515137e+00
2.194379467146824858e+00
2.074000793481246330e+00
2.074000793481246330e+00
2.233380657368694511e+00
2.233380657368694511e+00
2.338196356089969008e+00
2.283819696646015807e+00
2.305570360423596643e+00
2.304820337534714714e+00
2.304820337534714714e+00
2.358821985534226506e+00
2.359572008423108880e+00
2.359572008423108880e+00
2.233005645924253102e+00
2.233005645924253102e+00
2.138690267647328280e+00
2.184066652424695665e+00
2.184066652424695665e+00
2.242943449201941331e+00
2.242943449201941331e+00
2.290944914090395912e+00
2.318883266701254442e+00
2.318883266701254442e+00
2.241818414868617992e+00
2.241818414868617992e+00
2.250631183812982439e+00
2.250256172368541474e+00
2.250256172368541474e+00
2.259631458479567812e+00
2.233755668813135031e+00
2.233755668813135031e+00
2.271069307535019899e+00
2.271069307535019899e+00
2.405885921811578676e+00
2.428574114200262368e+00
2.428574114200262368e+00
2.312320566423536228e+00
2.312320566423536228e+00
2.228505508590960638e+00
2.280069582201605716e+00
2.280069582201605716e+00
2.300320200201422249e+00
2.300320200201422249e+00
2.197004547257912055e+00
2.064625507370219992e+00
2.064625507370219992e+00
2.239005829035309869e+00
2.239005829035309869e+00
2.272756859035004684e+00
2.185191686758019003e+00
2.185191686758019003e+00
2.220067751091036712e+00
2.220067751091036712e+00
2.165316080202642990e+00
2.305195348979155678e+00
2.305195348979155678e+00
2.395385601367229444e+00
2.401948301644947659e+00
2.401948301644947659e+00
2.376072511978514878e+00
2.376072511978514878e+00
2.192129398480178182e+00
2.191941892757957699e+00
2.191941892757957699e+00
2.266944181646168399e+00
2.305195348979155678e+00
2.305195348979155678e+00
2.315320657979064389e+00
2.209942442091128445e+00
2.209942442091128445e+00
2.185004181035798521e+00
2.185004181035798521e+00
2.127814935758537640e+00
2.131565050202948175e+00
2.131565050202948175e+00
2.280632099368266719e+00
2.280632099368266719e+00
2.365197180089724238e+00
2.444137089144566399e+00
2.444137089144566399e+00
2.463075167088839557e+00
2.463075167088839557e+00
2.372884914700766235e+00
2.254756309701834383e+00
2.254756309701834383e+00
2.130440015869624837e+00
2.179379009369182274e+00
2.179379009369182274e+00
2.196067018646809643e+00
2.196067018646809643e+00
2.321320841090121156e+00
2.299382671590319838e+00
2.299382671590319838e+00
2.229068025757622085e+00
2.229068025757622085e+00
2.202817224646748340e+00
2.253631275368511044e+00
2.253631275368511044e+00
2.295632557145908859e+00
2.295632557145908859e+00
2.389947935422834124e+00
2.363322122867518971e+00
2.363322122867518971e+00
2.285694753868221074e+00
2.172816309091464060e+00
2.172816309091464060e+00
2.117689626758628929e+00
2.117689626758628929e+00
2.201129673146763555e+00
2.262819055757316900e+00
2.262819055757316900e+00
2.281007110812707683e+00
2.281007110812707683e+00
2.383385235145115466e+00
2.365947202978606612e+00
2.365947202978606612e+00
2.246506057924130939e+00
2.255506332590716312e+00
2.255506332590716312e+00
2.316445692312387283e+00
2.316445692312387283e+00
2.293945005645924073e+00
2.223630359813226764e+00
2.223630359813226764e+00
2.211817499313333268e+00
2.211817499313333268e+00
2.153878231147190458e+00
2.178253975035859380e+00
2.178253975035859380e+00
2.317008209479048730e+00
2.317008209479048730e+00
2.342696493423261028e+00
2.266569170201727434e+00
2.266569170201727434e+00
2.236755760368663637e+00
2.236755760368663637e+00
2.279132053590502860e+00
2.259068941312906365e+00
2.259068941312906365e+00
2.277069490646077110e+00
2.329008575701162709e+00
2.329008575701162709e+00
2.321883358256782603e+00
2.277069490646077110e+00
2.277069490646077110e+00
2.289257362590411127e+00
2.289257362590411127e+00
2.230943082979827352e+00
2.161378460036011973e+00
2.161378460036011973e+00
2.304632831812494231e+00
