2.326946012756737403e+00
2.285882259590441556e+00
2.285882259590441556e+00
2.285882259590441556e+00
2.262819055757316900e+00
2.262819055757316900e+00
2.262819055757316900e+00
2.255131321146275347e+00
2.255131321146275347e+00
2.255131321146275347e+00
2.255131321146275347e+00
2.258881435590685438e+00
2.258881435590685438e+00
2.258881435590685438e+00
2.248381115146336207e+00
2.248381115146336207e+00
2.248381115146336207e+00
2.248381115146336207e+00
2.238068300424207457e+00
2.238068300424207457e+00
2.238068300424207457e+00
2.245006012146367080e+00
2.245006012146367080e+00
2.245006012146367080e+00
2.225317911313211550e+00
2.225317911313211550e+00
2.225317911313211550e+00
2.225317911313211550e+00
2.236568254646443155e+00
2.236568254646443155e+00
2.236568254646443155e+00
2.267319193090609808e+00
2.267319193090609808e+00
2.267319193090609808e+00
2.267319193090609808e+00
2.265444135868404540e+00
2.265444135868404540e+00
2.265444135868404540e+00
2.292444959868159771e+00
2.292444959868159771e+00
2.292444959868159771e+00
2.292444959868159771e+00
2.321320841090121156e+00
2.321320841090121156e+00
2.321320841090121156e+00
2.302382763145847999e+00
2.302382763145847999e+00
2.302382763145847999e+00
2.268444227423932702e+00
2.268444227423932702e+00
2.268444227423932702e+00
2.268444227423932702e+00
2.263006561479537382e+00
2.263006561479537382e+00
2.263006561479537382e+00
2.242943449201941331e+00
2.242943449201941331e+00
2.242943449201941331e+00
2.242943449201941331e+00
2.245381023590808045e+00
2.245381023590808045e+00
2.245381023590808045e+00
2.251756218146305777e+00
2.251756218146305777e+00
2.251756218146305777e+00
2.251756218146305777e+00
2.236380748924222672e+00
2.236380748924222672e+00
2.236380748924222672e+00
2.228130497146519229e+00
2.228130497146519229e+00
2.228130497146519229e+00
2.200379650257881181e+00
2.200379650257881181e+00
2.200379650257881181e+00
2.200379650257881181e+00
2.232443128757591655e+00
2.232443128757591655e+00
2.232443128757591655e+00
2.274631916257209951e+00
2.274631916257209951e+00
2.274631916257209951e+00
2.274631916257209951e+00
2.282882168034912951e+00
2.282882168034912951e+00
2.282882168034912951e+00
2.312695577867977192e+00
2.312695577867977192e+00
2.312695577867977192e+00
2.312695577867977192e+00
2.338571367534409973e+00
2.338571367534409973e+00
2.338571367534409973e+00
2.310820520645771925e+00
2.310820520645771925e+00
2.284007202368236289e+00
2.284007202368236289e+00
2.284007202368236289e+00
2.284007202368236289e+00
2.275569444868312807e+00
2.275569444868312807e+00
2.275569444868312807e+00
2.267506698812830290e+00
2.267506698812830290e+00
2.267506698812830290e+00
2.267506698812830290e+00
2.257756401257362544e+00
2.257756401257362544e+00
2.257756401257362544e+00
2.239380840479750834e+00
2.239380840479750834e+00
2.239380840479750834e+00
2.233755668813135031e+00
2.233755668813135031e+00
2.233755668813135031e+00
2.233755668813135031e+00
2.219505233924375265e+00
2.219505233924375265e+00
2.219505233924375265e+00
2.197379558702353020e+00
2.197379558702353020e+00
2.197379558702353020e+00
2.236005737479781263e+00
2.236005737479781263e+00
2.236005737479781263e+00
2.236005737479781263e+00
2.282882168034912951e+00
2.282882168034912951e+00
2.282882168034912951e+00
2.292819971312600735e+00
2.292819971312600735e+00
2.292819971312600735e+00
2.292819971312600735e+00
2.331446150090029423e+00
2.331446150090029423e+00
2.331446150090029423e+00
2.336883816034425188e+00
2.336883816034425188e+00
2.336883816034425188e+00
2.313070589312418157e+00
2.313070589312418157e+00
2.285319742423780109e+00
2.285319742423780109e+00
2.285319742423780109e+00
2.271256813257240381e+00
2.271256813257240381e+00
2.271256813257240381e+00
2.271256813257240381e+00
2.271631824701681346e+00
2.271631824701681346e+00
2.271631824701681346e+00
2.253443769646290562e+00
2.253443769646290562e+00
2.253443769646290562e+00
2.253443769646290562e+00
2.236193243202001746e+00
2.236193243202001746e+00
2.236193243202001746e+00
2.216880153813287624e+00
2.216880153813287624e+00
2.216880153813287624e+00
2.198129581591235393e+00
2.198129581591235393e+00
2.198129581591235393e+00
2.198129581591235393e+00
2.194191961424603932e+00
2.194191961424603932e+00
2.194191961424603932e+00
2.245568529313028083e+00
2.245568529313028083e+00
2.245568529313028083e+00
2.245568529313028083e+00
2.285132236701559627e+00
2.285132236701559627e+00
2.285132236701559627e+00
2.297132602923673161e+00
2.297132602923673161e+00
2.297132602923673161e+00
2.300695211645863214e+00
2.300695211645863214e+00
2.300695211645863214e+00
2.300695211645863214e+00
2.291319925534837321e+00
2.291319925534837321e+00
2.291319925534837321e+00
2.266194158757286470e+00
2.266194158757286470e+00
2.266194158757286470e+00
2.266194158757286470e+00
2.267881710257271255e+00
2.267881710257271255e+00
2.267881710257271255e+00
2.261319009979552597e+00
2.261319009979552597e+00
2.261319009979552597e+00
2.264319101535081202e+00
2.264319101535081202e+00
2.264319101535081202e+00
2.264319101535081202e+00
2.257193884090700653e+00
2.257193884090700653e+00
2.257193884090700653e+00
2.240130863368633207e+00
2.240130863368633207e+00
2.240130863368633207e+00
2.240130863368633207e+00
2.226067934202093479e+00
2.226067934202093479e+00
2.226067934202093479e+00
2.211254982146671821e+00
2.211254982146671821e+00
2.211254982146671821e+00
2.223442854091006282e+00
2.223442854091006282e+00
2.223442854091006282e+00
2.223442854091006282e+00
2.261694021423993561e+00
2.261694021423993561e+00
2.261694021423993561e+00
2.289632374034852091e+00
2.289632374034852091e+00
2.289632374034852091e+00
2.289632374034852091e+00
2.314570635090182460e+00
2.314570635090182460e+00
2.314570635090182460e+00
2.341196447645496725e+00
2.341196447645496725e+00
2.341196447645496725e+00
2.302757774590289408e+00
2.302757774590289408e+00
2.302757774590289408e+00
2.302757774590289408e+00
2.276131962034974254e+00
2.276131962034974254e+00
2.276131962034974254e+00
2.264319101535081202e+00
2.264319101535081202e+00
2.264319101535081202e+00
2.264319101535081202e+00
2.254381298257393418e+00
2.254381298257393418e+00
2.254381298257393418e+00
2.248756126590777171e+00
2.248756126590777171e+00
2.248756126590777171e+00
2.226442945646534444e+00
2.226442945646534444e+00
2.226442945646534444e+00
2.226442945646534444e+00
2.227942991424298746e+00
2.227942991424298746e+00
2.227942991424298746e+00
2.226067934202093479e+00
2.226067934202093479e+00
2.226067934202093479e+00
2.206004821924497428e+00
2.206004821924497428e+00
2.206004821924497428e+00
2.235068208868678852e+00
2.235068208868678852e+00
2.235068208868678852e+00
2.284569719534897736e+00
2.284569719534897736e+00
2.284569719534897736e+00
2.284569719534897736e+00
2.307632923368022837e+00
2.307632923368022837e+00
2.307632923368022837e+00
2.325070955534531691e+00
2.325070955534531691e+00
2.325070955534531691e+00
2.328446058534500818e+00
2.328446058534500818e+00
2.328446058534500818e+00
2.328446058534500818e+00
2.285507248146000592e+00
2.285507248146000592e+00
2.285507248146000592e+00
2.265444135868404540e+00
2.265444135868404540e+00
2.265444135868404540e+00
2.246318552201910457e+00
2.246318552201910457e+00
2.246318552201910457e+00
2.246318552201910457e+00
2.240505874813074172e+00
2.240505874813074172e+00
2.240505874813074172e+00
2.258693929868464956e+00
2.258693929868464956e+00
2.258693929868464956e+00
2.258693929868464956e+00
2.232630634479812137e+00
2.232630634479812137e+00
2.232630634479812137e+00
2.226442945646534444e+00
2.226442945646534444e+00
2.226442945646534444e+00
2.233193151646474028e+00
2.233193151646474028e+00
2.233193151646474028e+00
2.233193151646474028e+00
2.219505233924375265e+00
2.219505233924375265e+00
2.219505233924375265e+00
2.239193334757530351e+00
2.239193334757530351e+00
2.239193334757530351e+00
2.269944273201696561e+00
2.269944273201696561e+00
2.269944273201696561e+00
2.269944273201696561e+00
2.243505966368602778e+00
2.243505966368602778e+00
2.243505966368602778e+00
2.271819330423901828e+00
2.271819330423901828e+00
2.271819330423901828e+00
2.316820703756828248e+00
2.316820703756828248e+00
2.316820703756828248e+00
2.316820703756828248e+00
2.329571092867824156e+00
2.329571092867824156e+00
2.329571092867824156e+00
2.306320383312479017e+00
2.306320383312479017e+00
2.306320383312479017e+00
2.306320383312479017e+00
2.268256721701712220e+00
2.268256721701712220e+00
2.268256721701712220e+00
2.257943906979583026e+00
2.257943906979583026e+00
2.257943906979583026e+00
2.245568529313028083e+00
2.245568529313028083e+00
2.245568529313028083e+00
2.245568529313028083e+00
2.235068208868678852e+00
2.235068208868678852e+00
2.235068208868678852e+00
2.221005279702139568e+00
2.221005279702139568e+00
2.221005279702139568e+00
2.221005279702139568e+00
2.211067476424451339e+00
2.211067476424451339e+00
2.211067476424451339e+00
2.219692739646595747e+00
2.219692739646595747e+00
2.219692739646595747e+00
2.257943906979583026e+00
2.257943906979583026e+00
2.257943906979583026e+00
2.257943906979583026e+00
2.287382305368205859e+00
2.287382305368205859e+00
2.287382305368205859e+00
2.314195623645741495e+00
2.314195623645741495e+00
2.314195623645741495e+00
2.314195623645741495e+00
2.324508438367870244e+00
2.324508438367870244e+00
2.324508438367870244e+00
2.320195806756797818e+00
2.320195806756797818e+00
2.320195806756797818e+00
2.286444776757103448e+00
2.286444776757103448e+00
2.286444776757103448e+00
2.286444776757103448e+00
2.273131870479445649e+00
2.273131870479445649e+00
2.273131870479445649e+00
2.267319193090609808e+00
2.267319193090609808e+00
2.267319193090609808e+00
2.267319193090609808e+00
2.246506057924130939e+00
2.246506057924130939e+00
2.246506057924130939e+00
2.237505783257545566e+00
2.237505783257545566e+00
2.237505783257545566e+00
2.237505783257545566e+00
2.222317819757682944e+00
2.222317819757682944e+00
2.222317819757682944e+00
2.232068117313150690e+00
2.232068117313150690e+00
2.232068117313150690e+00
2.217817682424390480e+00
2.217817682424390480e+00
2.217817682424390480e+00
2.217817682424390480e+00
2.229630542924283532e+00
2.229630542924283532e+00
2.229630542924283532e+00
2.270319284646137969e+00
2.270319284646137969e+00
2.270319284646137969e+00
2.270319284646137969e+00
2.299007660145878429e+00
2.299007660145878429e+00
2.299007660145878429e+00
2.299570177312540320e+00
2.299570177312540320e+00
2.299570177312540320e+00
2.318695760979033516e+00
2.318695760979033516e+00
2.318695760979033516e+00
2.318695760979033516e+00
2.292257454145939732e+00
2.292257454145939732e+00
2.292257454145939732e+00
2.270881801812799416e+00
2.270881801812799416e+00
2.270881801812799416e+00
2.263381572923978347e+00
2.263381572923978347e+00
2.263381572923978347e+00
2.263381572923978347e+00
2.251943723868526259e+00
2.251943723868526259e+00
2.251943723868526259e+00
2.246693563646351421e+00
2.246693563646351421e+00
2.246693563646351421e+00
2.229255531479842567e+00
2.229255531479842567e+00
2.229255531479842567e+00
2.229255531479842567e+00
2.229630542924283532e+00
2.229630542924283532e+00
2.229630542924283532e+00
2.231318094424268317e+00
2.231318094424268317e+00
2.231318094424268317e+00
2.231318094424268317e+00
2.207692373424482213e+00
2.207692373424482213e+00
2.207692373424482213e+00
2.247631092257453833e+00
2.247631092257453833e+00
2.247631092257453833e+00
2.316445692312387283e+00
2.316445692312387283e+00
2.316445692312387283e+00
2.316445692312387283e+00
2.302007751701407035e+00
2.302007751701407035e+00
2.302007751701407035e+00
2.308382946256904766e+00
2.308382946256904766e+00
2.308382946256904766e+00
2.308382946256904766e+00
2.318133243812372069e+00
2.318133243812372069e+00
2.318133243812372069e+00
2.296570085757011714e+00
2.296570085757011714e+00
2.296570085757011714e+00
2.270131778923917043e+00
2.270131778923917043e+00
2.270131778923917043e+00
2.270131778923917043e+00
2.258506424146244473e+00
2.258506424146244473e+00
2.258506424146244473e+00
2.244631000701926116e+00
2.244631000701926116e+00
2.244631000701926116e+00
2.244631000701926116e+00
2.244818506424146598e+00
2.244818506424146598e+00
2.244818506424146598e+00
2.233943174535355514e+00
2.233943174535355514e+00
2.233943174535355514e+00
2.233943174535355514e+00
2.220630268257698603e+00
2.220630268257698603e+00
2.220630268257698603e+00
2.207317361980041248e+00
2.207317361980041248e+00
2.207317361980041248e+00
2.204879787591174090e+00
2.204879787591174090e+00
2.204879787591174090e+00
2.204879787591174090e+00
2.272006836146122755e+00
2.272006836146122755e+00
2.272006836146122755e+00
2.304820337534714714e+00
2.304820337534714714e+00
2.304820337534714714e+00
2.304820337534714714e+00
2.296382580034791232e+00
2.296382580034791232e+00
2.296382580034791232e+00
2.337821344645527599e+00
2.337821344645527599e+00
2.337821344645527599e+00
2.306507889034699499e+00
2.306507889034699499e+00
2.306507889034699499e+00
2.306507889034699499e+00
2.258506424146244473e+00
2.258506424146244473e+00
2.258506424146244473e+00
2.260381481368449741e+00
2.260381481368449741e+00
2.260381481368449741e+00
2.260381481368449741e+00
2.252318735312967224e+00
2.252318735312967224e+00
2.252318735312967224e+00
2.254006286812952009e+00
2.254006286812952009e+00
2.254006286812952009e+00
2.254006286812952009e+00
2.242005920590838475e+00
2.242005920590838475e+00
2.242005920590838475e+00
2.241068391979735619e+00
2.241068391979735619e+00
2.241068391979735619e+00
2.227380474257637299e+00
2.227380474257637299e+00
2.227380474257637299e+00
2.227380474257637299e+00
2.181816583758049433e+00
2.181816583758049433e+00
2.181816583758049433e+00
2.194191961424603932e+00
2.194191961424603932e+00
2.194191961424603932e+00
2.194191961424603932e+00
2.258881435590685438e+00
2.258881435590685438e+00
2.258881435590685438e+00
2.299382671590319838e+00
2.299382671590319838e+00
2.299382671590319838e+00
2.315695669423505798e+00
2.315695669423505798e+00
2.315695669423505798e+00
2.315695669423505798e+00
2.321320841090121156e+00
2.321320841090121156e+00
2.321320841090121156e+00
2.310070497756889552e+00
2.310070497756889552e+00
2.310070497756889552e+00
2.310070497756889552e+00
2.296757591479232197e+00
2.296757591479232197e+00
2.296757591479232197e+00
2.307632923368022837e+00
2.307632923368022837e+00
2.307632923368022837e+00
2.277819513534959039e+00
2.277819513534959039e+00
2.277819513534959039e+00
2.277819513534959039e+00
2.259818964201788294e+00
2.259818964201788294e+00
2.259818964201788294e+00
2.256443861201819168e+00
2.256443861201819168e+00
2.256443861201819168e+00
2.256443861201819168e+00
2.214817590868861874e+00
2.214817590868861874e+00
2.214817590868861874e+00
2.191566881313516735e+00
2.191566881313516735e+00
2.191566881313516735e+00
2.191566881313516735e+00
2.172066286202582130e+00
2.172066286202582130e+00
2.172066286202582130e+00
2.216505142368846659e+00
2.216505142368846659e+00
2.216505142368846659e+00
2.272006836146122755e+00
2.272006836146122755e+00
2.272006836146122755e+00
2.272006836146122755e+00
2.289069856868190644e+00
2.289069856868190644e+00
2.289069856868190644e+00
2.311945554979094819e+00
2.311945554979094819e+00
2.311945554979094819e+00
2.311945554979094819e+00
2.339133884701071420e+00
2.339133884701071420e+00
2.339133884701071420e+00
2.351509262367625919e+00
2.351509262367625919e+00
2.351509262367625919e+00
2.337258827478866152e+00
2.337258827478866152e+00
2.337258827478866152e+00
2.337258827478866152e+00
2.273319376201666131e+00
2.273319376201666131e+00
2.273319376201666131e+00
2.241818414868617992e+00
2.241818414868617992e+00
2.241818414868617992e+00
2.241818414868617992e+00
2.231130588702047834e+00
2.231130588702047834e+00
2.231130588702047834e+00
2.230943082979827352e+00
2.230943082979827352e+00
2.230943082979827352e+00
2.223255348368785356e+00
2.223255348368785356e+00
2.223255348368785356e+00
2.223255348368785356e+00
2.198879604480116878e+00
2.198879604480116878e+00
2.198879604480116878e+00
2.165878597369304437e+00
2.165878597369304437e+00
2.165878597369304437e+00
2.165878597369304437e+00
2.207129856257820322e+00
2.207129856257820322e+00
2.207129856257820322e+00
2.251381206701864812e+00
2.251381206701864812e+00
2.251381206701864812e+00
2.284382213812677254e+00
2.284382213812677254e+00
2.284382213812677254e+00
2.284382213812677254e+00
2.318133243812372069e+00
2.318133243812372069e+00
2.318133243812372069e+00
2.326758507034516477e+00
2.326758507034516477e+00
2.326758507034516477e+00
2.326758507034516477e+00
2.313633106479079604e+00
2.313633106479079604e+00
2.313633106479079604e+00
2.301632740256966070e+00
2.301632740256966070e+00
2.301632740256966070e+00
2.301632740256966070e+00
2.287757316812646824e+00
2.287757316812646824e+00
2.287757316812646824e+00
2.269756767479476078e+00
2.269756767479476078e+00
2.269756767479476078e+00
2.228880520035401602e+00
2.228880520035401602e+00
2.228880520035401602e+00
2.228880520035401602e+00
2.217630176702169997e+00
2.217630176702169997e+00
2.217630176702169997e+00
2.206942350535599839e+00
2.206942350535599839e+00
2.206942350535599839e+00
2.206942350535599839e+00
2.193629444257942485e+00
2.193629444257942485e+00
2.193629444257942485e+00
2.191754387035737217e+00
2.191754387035737217e+00
2.191754387035737217e+00
2.267694204535050773e+00
2.267694204535050773e+00
2.267694204535050773e+00
2.267694204535050773e+00
2.291694936979278285e+00
2.291694936979278285e+00
2.291694936979278285e+00
2.304632831812494231e+00
2.304632831812494231e+00
2.304632831812494231e+00
2.304632831812494231e+00
2.360884548478652700e+00
2.360884548478652700e+00
2.360884548478652700e+00
2.365759697256386129e+00
2.365759697256386129e+00
2.365759697256386129e+00
2.268631733146153184e+00
2.268631733146153184e+00
2.268631733146153184e+00
2.268631733146153184e+00
2.262819055757316900e+00
2.262819055757316900e+00
2.262819055757316900e+00
2.250443678090761956e+00
2.250443678090761956e+00
2.250443678090761956e+00
2.248756126590777171e+00
2.248756126590777171e+00
2.248756126590777171e+00
2.248756126590777171e+00
2.238443311868648422e+00
2.238443311868648422e+00
2.238443311868648422e+00
2.222317819757682944e+00
2.222317819757682944e+00
2.222317819757682944e+00
2.222317819757682944e+00
2.208254890591143660e+00
2.208254890591143660e+00
2.208254890591143660e+00
2.204129764702292160e+00
2.204129764702292160e+00
2.204129764702292160e+00
2.204129764702292160e+00
2.223442854091006282e+00
2.223442854091006282e+00
2.223442854091006282e+00
2.277069490646077110e+00
2.277069490646077110e+00
2.277069490646077110e+00
2.323008392590105942e+00
2.323008392590105942e+00
2.323008392590105942e+00
2.323008392590105942e+00
2.347009125034333454e+00
2.347009125034333454e+00
2.347009125034333454e+00
2.362384594256416559e+00
2.362384594256416559e+00
2.362384594256416559e+00
2.362384594256416559e+00
2.332571184423352761e+00
2.332571184423352761e+00
2.332571184423352761e+00
2.301257728812525105e+00
2.301257728812525105e+00
2.301257728812525105e+00
2.282507156590471986e+00
2.282507156590471986e+00
2.282507156590471986e+00
2.282507156590471986e+00
2.209192419202246516e+00
2.209192419202246516e+00
2.209192419202246516e+00
2.178066469313638454e+00
2.178066469313638454e+00
2.178066469313638454e+00
2.178066469313638454e+00
2.237880794701986531e+00
2.237880794701986531e+00
2.237880794701986531e+00
2.250443678090761956e+00
2.250443678090761956e+00
2.250443678090761956e+00
2.189129306924649576e+00
2.189129306924649576e+00
2.189129306924649576e+00
2.189129306924649576e+00
2.189504318369090985e+00
2.189504318369090985e+00
2.189504318369090985e+00
2.253818781090731527e+00
2.253818781090731527e+00
2.253818781090731527e+00
2.253818781090731527e+00
2.310445509201330516e+00
2.310445509201330516e+00
2.310445509201330516e+00
2.318133243812372069e+00
2.318133243812372069e+00
2.318133243812372069e+00
2.318133243812372069e+00
2.314008117923521013e+00
2.314008117923521013e+00
2.314008117923521013e+00
2.281382122257148648e+00
2.281382122257148648e+00
2.281382122257148648e+00
2.242005920590838475e+00
2.242005920590838475e+00
2.242005920590838475e+00
2.242005920590838475e+00
2.237130771813104602e+00
2.237130771813104602e+00
2.237130771813104602e+00
2.236755760368663637e+00
2.236755760368663637e+00
2.236755760368663637e+00
2.236755760368663637e+00
2.247256080813012868e+00
2.247256080813012868e+00
2.247256080813012868e+00
2.251006195257423848e+00
2.251006195257423848e+00
2.251006195257423848e+00
2.208817407757805107e+00
2.208817407757805107e+00
2.208817407757805107e+00
2.208817407757805107e+00
2.209754936368907963e+00
2.209754936368907963e+00
2.209754936368907963e+00
2.200942167424543072e+00
2.200942167424543072e+00
2.200942167424543072e+00
2.200942167424543072e+00
2.242568437757499922e+00
2.242568437757499922e+00
2.242568437757499922e+00
2.318133243812372069e+00
2.318133243812372069e+00
2.318133243812372069e+00
2.344759056367687222e+00
2.344759056367687222e+00
2.344759056367687222e+00
2.344759056367687222e+00
2.368009765923032361e+00
2.368009765923032361e+00
2.368009765923032361e+00
2.384322763756218322e+00
2.384322763756218322e+00
2.384322763756218322e+00
2.384322763756218322e+00
2.372697408978545752e+00
2.372697408978545752e+00
2.372697408978545752e+00
2.320945829645680192e+00
2.320945829645680192e+00
2.320945829645680192e+00
2.266944181646168399e+00
2.266944181646168399e+00
2.266944181646168399e+00
2.266944181646168399e+00
2.223255348368785356e+00
2.223255348368785356e+00
2.223255348368785356e+00
2.212567522202215642e+00
2.212567522202215642e+00
2.212567522202215642e+00
2.212567522202215642e+00
2.174128849147007880e+00
2.174128849147007880e+00
2.174128849147007880e+00
2.155940794091616652e+00
2.155940794091616652e+00
2.155940794091616652e+00
2.154815759758293314e+00
2.154815759758293314e+00
2.154815759758293314e+00
2.154815759758293314e+00
2.129127475814081016e+00
2.129127475814081016e+00
2.129127475814081016e+00
2.196629535813471090e+00
2.196629535813471090e+00
2.196629535813471090e+00
2.196629535813471090e+00
2.255881344035157721e+00
2.255881344035157721e+00
2.255881344035157721e+00
2.292444959868159771e+00
2.292444959868159771e+00
2.292444959868159771e+00
2.346259102145451525e+00
2.346259102145451525e+00
2.346259102145451525e+00
2.346259102145451525e+00
2.365009674367503756e+00
2.365009674367503756e+00
2.365009674367503756e+00
2.332383678701132279e+00
2.332383678701132279e+00
2.332383678701132279e+00
2.332383678701132279e+00
2.299195165868098911e+00
2.299195165868098911e+00
2.299195165868098911e+00
2.265631641590625023e+00
2.265631641590625023e+00
2.265631641590625023e+00
2.265631641590625023e+00
2.245943540757469048e+00
2.245943540757469048e+00
2.245943540757469048e+00
2.233755668813135031e+00
2.233755668813135031e+00
2.233755668813135031e+00
2.216880153813287624e+00
2.216880153813287624e+00
2.216880153813287624e+00
2.216880153813287624e+00
2.230193060090945423e+00
2.230193060090945423e+00
2.230193060090945423e+00
2.212567522202215642e+00
2.212567522202215642e+00
2.212567522202215642e+00
2.212567522202215642e+00
2.187254249702444309e+00
2.187254249702444309e+00
2.187254249702444309e+00
2.242755943479720404e+00
2.242755943479720404e+00
2.242755943479720404e+00
2.242755943479720404e+00
2.321320841090121156e+00
2.321320841090121156e+00
2.321320841090121156e+00
2.328633564256721744e+00
2.328633564256721744e+00
2.328633564256721744e+00
2.337071321756645670e+00
2.337071321756645670e+00
2.337071321756645670e+00
2.337071321756645670e+00
2.342133976256599581e+00
2.342133976256599581e+00
2.342133976256599581e+00
2.318508255256813033e+00
2.318508255256813033e+00
2.318508255256813033e+00
2.318508255256813033e+00
2.294132511368144556e+00
2.294132511368144556e+00
2.294132511368144556e+00
2.250068666646320992e+00
2.250068666646320992e+00
2.250068666646320992e+00
2.202442213202307375e+00
2.202442213202307375e+00
2.202442213202307375e+00
2.202442213202307375e+00
2.202817224646748340e+00
2.202817224646748340e+00
2.202817224646748340e+00
2.195129490035706787e+00
2.195129490035706787e+00
2.195129490035706787e+00
2.195129490035706787e+00
2.226067934202093479e+00
2.226067934202093479e+00
2.226067934202093479e+00
2.208817407757805107e+00
2.208817407757805107e+00
2.208817407757805107e+00
2.201692190313425002e+00
2.201692190313425002e+00
2.201692190313425002e+00
2.201692190313425002e+00
2.248943632312997654e+00
2.248943632312997654e+00
2.248943632312997654e+00
2.252506241035188150e+00
2.252506241035188150e+00
2.252506241035188150e+00
2.252506241035188150e+00
2.293569994201483109e+00
2.293569994201483109e+00
2.293569994201483109e+00
2.342508987701040546e+00
2.342508987701040546e+00
2.342508987701040546e+00
2.342508987701040546e+00
2.342508987701040546e+00
2.342508987701040546e+00
2.342508987701040546e+00
2.315133152256843907e+00
2.315133152256843907e+00
2.315133152256843907e+00
2.281569627979369130e+00
2.281569627979369130e+00
2.281569627979369130e+00
2.244255989257484707e+00
2.244255989257484707e+00
2.244255989257484707e+00
2.244255989257484707e+00
2.264506607257301685e+00
2.264506607257301685e+00
2.264506607257301685e+00
2.265444135868404540e+00
2.265444135868404540e+00
2.265444135868404540e+00
2.265444135868404540e+00
2.242005920590838475e+00
2.242005920590838475e+00
2.242005920590838475e+00
2.236568254646443155e+00
2.236568254646443155e+00
2.236568254646443155e+00
2.236568254646443155e+00
2.225317911313211550e+00
2.225317911313211550e+00
2.225317911313211550e+00
2.209379924924466998e+00
2.209379924924466998e+00
2.209379924924466998e+00
2.285319742423780109e+00
2.285319742423780109e+00
2.285319742423780109e+00
2.285319742423780109e+00
2.336133793145542814e+00
2.336133793145542814e+00
2.336133793145542814e+00
2.353571825312051669e+00
2.353571825312051669e+00
2.353571825312051669e+00
2.353571825312051669e+00
2.367634754478591397e+00
2.367634754478591397e+00
2.367634754478591397e+00
2.314570635090182460e+00
2.314570635090182460e+00
2.314570635090182460e+00
2.238443311868648422e+00
2.238443311868648422e+00
2.238443311868648422e+00
2.238443311868648422e+00
2.185566698202459968e+00
2.185566698202459968e+00
2.185566698202459968e+00
2.197004547257912055e+00
2.197004547257912055e+00
2.197004547257912055e+00
2.197004547257912055e+00
2.220630268257698603e+00
2.220630268257698603e+00
2.220630268257698603e+00
2.207504867702261730e+00
2.207504867702261730e+00
2.207504867702261730e+00
2.237130771813104602e+00
2.237130771813104602e+00
2.237130771813104602e+00
2.237130771813104602e+00
2.236005737479781263e+00
2.236005737479781263e+00
2.236005737479781263e+00
2.228693014313181120e+00
2.228693014313181120e+00
2.228693014313181120e+00
2.228693014313181120e+00
2.271819330423901828e+00
2.271819330423901828e+00
2.271819330423901828e+00
2.336508804589983779e+00
2.336508804589983779e+00
2.336508804589983779e+00
2.336508804589983779e+00
2.329571092867824156e+00
2.329571092867824156e+00
2.329571092867824156e+00
2.344384044923245813e+00
2.344384044923245813e+00
2.344384044923245813e+00
2.335008758812219920e+00
2.335008758812219920e+00
2.335008758812219920e+00
2.335008758812219920e+00
2.306882900479140464e+00
2.306882900479140464e+00
2.306882900479140464e+00
2.258881435590685438e+00
2.258881435590685438e+00
2.258881435590685438e+00
2.258881435590685438e+00
2.249693655201880027e+00
2.249693655201880027e+00
2.249693655201880027e+00
2.209567430646687480e+00
2.209567430646687480e+00
2.209567430646687480e+00
2.211254982146671821e+00
2.211254982146671821e+00
2.211254982146671821e+00
2.211254982146671821e+00
2.190066835535752432e+00
2.190066835535752432e+00
2.190066835535752432e+00
2.209942442091128445e+00
2.209942442091128445e+00
2.209942442091128445e+00
2.209942442091128445e+00
2.242568437757499922e+00
2.242568437757499922e+00
2.242568437757499922e+00
2.204317270424512643e+00
2.204317270424512643e+00
2.204317270424512643e+00
2.244631000701926116e+00
2.244631000701926116e+00
2.244631000701926116e+00
2.244631000701926116e+00
2.284382213812677254e+00
2.284382213812677254e+00
2.284382213812677254e+00
2.280632099368266719e+00
2.280632099368266719e+00
2.280632099368266719e+00
2.280632099368266719e+00
2.314570635090182460e+00
2.314570635090182460e+00
2.314570635090182460e+00
2.330883632923367976e+00
2.330883632923367976e+00
2.330883632923367976e+00
2.330883632923367976e+00
2.353009308145390222e+00
2.353009308145390222e+00
2.353009308145390222e+00
2.329571092867824156e+00
2.329571092867824156e+00
2.329571092867824156e+00
2.283257179479354360e+00
2.283257179479354360e+00
2.283257179479354360e+00
2.283257179479354360e+00
2.246881069368571904e+00
2.246881069368571904e+00
2.246881069368571904e+00
2.213505050813318054e+00
2.213505050813318054e+00
2.213505050813318054e+00
2.244068483535264225e+00
2.244068483535264225e+00
2.244068483535264225e+00
2.244068483535264225e+00
2.351884273812066883e+00
2.351884273812066883e+00
2.351884273812066883e+00
2.379072603534043484e+00
2.379072603534043484e+00
2.379072603534043484e+00
2.379072603534043484e+00
2.317945738090151586e+00
2.317945738090151586e+00
2.317945738090151586e+00
2.311383037812433372e+00
2.311383037812433372e+00
2.311383037812433372e+00
2.311383037812433372e+00
2.334633747367778511e+00
2.334633747367778511e+00
2.334633747367778511e+00
2.304632831812494231e+00
2.304632831812494231e+00
2.304632831812494231e+00
2.202629718924527857e+00
2.202629718924527857e+00
2.202629718924527857e+00
2.202629718924527857e+00
2.138315256202887316e+00
2.138315256202887316e+00
2.138315256202887316e+00
2.102126651814325342e+00
2.102126651814325342e+00
2.102126651814325342e+00
2.102126651814325342e+00
2.129127475814081016e+00
2.129127475814081016e+00
2.129127475814081016e+00
2.118439649647511303e+00
2.118439649647511303e+00
2.118439649647511303e+00
2.218942716757713818e+00
2.218942716757713818e+00
2.218942716757713818e+00
2.218942716757713818e+00
2.242193426313058957e+00
2.242193426313058957e+00
2.242193426313058957e+00
2.252881252479629115e+00
2.252881252479629115e+00
2.252881252479629115e+00
2.252881252479629115e+00
2.258506424146244473e+00
2.258506424146244473e+00
2.258506424146244473e+00
2.250631183812982439e+00
2.250631183812982439e+00
2.250631183812982439e+00
2.261319009979552597e+00
2.261319009979552597e+00
2.261319009979552597e+00
2.261319009979552597e+00
2.301257728812525105e+00
2.301257728812525105e+00
2.301257728812525105e+00
2.288882351145970162e+00
2.288882351145970162e+00
2.288882351145970162e+00
2.288882351145970162e+00
2.307820429090243319e+00
2.307820429090243319e+00
2.307820429090243319e+00
2.367634754478591397e+00
2.367634754478591397e+00
2.367634754478591397e+00
2.334633747367778511e+00
2.334633747367778511e+00
2.334633747367778511e+00
2.334633747367778511e+00
2.317758232367931104e+00
2.317758232367931104e+00
2.317758232367931104e+00
2.279882076479384789e+00
2.279882076479384789e+00
2.279882076479384789e+00
2.279882076479384789e+00
2.184629169591357556e+00
2.184629169591357556e+00
2.184629169591357556e+00
2.185191686758019003e+00
2.185191686758019003e+00
2.185191686758019003e+00
2.169816217535935454e+00
2.169816217535935454e+00
2.169816217535935454e+00
2.169816217535935454e+00
2.149003082369457029e+00
2.149003082369457029e+00
2.149003082369457029e+00
2.197567064424573946e+00
2.197567064424573946e+00
2.197567064424573946e+00
2.197567064424573946e+00
2.258881435590685438e+00
2.258881435590685438e+00
2.258881435590685438e+00
2.287757316812646824e+00
2.287757316812646824e+00
2.287757316812646824e+00
2.287757316812646824e+00
2.333321207312235135e+00
2.333321207312235135e+00
2.333321207312235135e+00
2.333508713034455617e+00
2.333508713034455617e+00
2.333508713034455617e+00
2.352446790978728330e+00
2.352446790978728330e+00
2.352446790978728330e+00
2.352446790978728330e+00
2.362572099978637485e+00
2.362572099978637485e+00
2.362572099978637485e+00
2.329571092867824156e+00
2.329571092867824156e+00
2.329571092867824156e+00
2.329571092867824156e+00
2.293945005645924073e+00
2.293945005645924073e+00
2.293945005645924073e+00
2.235818231757560781e+00
2.235818231757560781e+00
2.235818231757560781e+00
2.212755027924436124e+00
2.212755027924436124e+00
2.212755027924436124e+00
2.211254982146671821e+00
2.211254982146671821e+00
2.211254982146671821e+00
2.211254982146671821e+00
2.224192876979888212e+00
2.224192876979888212e+00
2.224192876979888212e+00
2.248568620868556689e+00
2.248568620868556689e+00
2.248568620868556689e+00
2.248568620868556689e+00
2.211067476424451339e+00
2.211067476424451339e+00
2.211067476424451339e+00
2.200754661702322146e+00
2.200754661702322146e+00
2.200754661702322146e+00
2.200754661702322146e+00
2.270131778923917043e+00
2.270131778923917043e+00
2.270131778923917043e+00
2.291694936979278285e+00
2.291694936979278285e+00
2.291694936979278285e+00
2.299382671590319838e+00
2.299382671590319838e+00
2.299382671590319838e+00
2.299382671590319838e+00
2.323570909756767389e+00
2.323570909756767389e+00
2.323570909756767389e+00
2.303132786034730373e+00
2.303132786034730373e+00
2.303132786034730373e+00
2.303132786034730373e+00
2.286257271034882521e+00
2.286257271034882521e+00
2.286257271034882521e+00
2.278944547868282378e+00
2.278944547868282378e+00
2.278944547868282378e+00
2.258506424146244473e+00
2.258506424146244473e+00
2.258506424146244473e+00
2.258506424146244473e+00
2.268819238868374111e+00
2.268819238868374111e+00
2.268819238868374111e+00
2.233943174535355514e+00
2.233943174535355514e+00
2.233943174535355514e+00
2.233943174535355514e+00
2.200567155980101663e+00
2.200567155980101663e+00
2.200567155980101663e+00
2.220442762535478121e+00
2.220442762535478121e+00
2.220442762535478121e+00
2.201879696035645484e+00
2.201879696035645484e+00
2.201879696035645484e+00
2.201879696035645484e+00
2.240318369090853690e+00
2.240318369090853690e+00
2.240318369090853690e+00
2.300132694479201767e+00
2.300132694479201767e+00
2.300132694479201767e+00
2.300132694479201767e+00
2.276506973479415219e+00
2.276506973479415219e+00
2.276506973479415219e+00
2.293757499923703591e+00
2.293757499923703591e+00
2.293757499923703591e+00
2.293757499923703591e+00
2.337633838923307117e+00
2.337633838923307117e+00
2.337633838923307117e+00
2.352634296700948813e+00
2.352634296700948813e+00
2.352634296700948813e+00
2.322258369701224012e+00
2.322258369701224012e+00
2.322258369701224012e+00
2.322258369701224012e+00
2.259256447035126847e+00
2.259256447035126847e+00
2.259256447035126847e+00
2.224567888424329176e+00
2.224567888424329176e+00
2.224567888424329176e+00
2.224567888424329176e+00
2.210692464980010374e+00
2.210692464980010374e+00
2.210692464980010374e+00
2.174128849147007880e+00
2.174128849147007880e+00
2.174128849147007880e+00
2.174128849147007880e+00
2.202254707480086449e+00
2.202254707480086449e+00
2.202254707480086449e+00
2.216130130924405695e+00
2.216130130924405695e+00
2.216130130924405695e+00
2.221005279702139568e+00
2.221005279702139568e+00
2.221005279702139568e+00
2.221005279702139568e+00
2.245381023590808045e+00
2.245381023590808045e+00
2.245381023590808045e+00
2.342133976256599581e+00
2.342133976256599581e+00
2.342133976256599581e+00
2.342133976256599581e+00
2.357884456923124095e+00
2.357884456923124095e+00
2.357884456923124095e+00
2.341946470534379099e+00
2.341946470534379099e+00
2.341946470534379099e+00
2.341946470534379099e+00
2.400073244422742391e+00
2.400073244422742391e+00
2.400073244422742391e+00
2.385822809533982625e+00
2.385822809533982625e+00
2.385822809533982625e+00
2.302195257423627517e+00
2.302195257423627517e+00
2.302195257423627517e+00
2.302195257423627517e+00
2.260193975646229259e+00
2.260193975646229259e+00
2.260193975646229259e+00
2.203379741813409787e+00
2.203379741813409787e+00
2.203379741813409787e+00
2.203379741813409787e+00
2.255131321146275347e+00
2.255131321146275347e+00
2.255131321146275347e+00
2.250631183812982439e+00
2.250631183812982439e+00
2.250631183812982439e+00
2.230193060090945423e+00
2.230193060090945423e+00
2.230193060090945423e+00
2.230193060090945423e+00
2.215755119479964730e+00
2.215755119479964730e+00
2.215755119479964730e+00
2.193066927091281038e+00
2.193066927091281038e+00
2.193066927091281038e+00
2.193066927091281038e+00
2.210692464980010374e+00
2.210692464980010374e+00
2.210692464980010374e+00
2.253068758201849597e+00
2.253068758201849597e+00
2.253068758201849597e+00
2.325258461256752618e+00
2.325258461256752618e+00
2.325258461256752618e+00
2.325258461256752618e+00
2.383385235145115466e+00
2.383385235145115466e+00
2.383385235145115466e+00
2.345884090701010116e+00
2.345884090701010116e+00
2.345884090701010116e+00
2.345884090701010116e+00
2.315320657979064389e+00
2.315320657979064389e+00
2.315320657979064389e+00
2.247256080813012868e+00
2.247256080813012868e+00
2.247256080813012868e+00
2.194566972869045340e+00
2.194566972869045340e+00
2.194566972869045340e+00
2.194566972869045340e+00
2.150315622425000850e+00
2.150315622425000850e+00
2.150315622425000850e+00
2.156503311258278099e+00
2.156503311258278099e+00
2.156503311258278099e+00
2.156503311258278099e+00
2.167566148869289222e+00
2.167566148869289222e+00
2.167566148869289222e+00
2.202817224646748340e+00
2.202817224646748340e+00
2.202817224646748340e+00
2.226442945646534444e+00
2.226442945646534444e+00
2.226442945646534444e+00
2.226442945646534444e+00
2.229255531479842567e+00
2.229255531479842567e+00
2.229255531479842567e+00
2.262256538590655452e+00
2.262256538590655452e+00
2.262256538590655452e+00
2.262256538590655452e+00
2.345696584978789634e+00
2.345696584978789634e+00
2.345696584978789634e+00
2.256631366924039650e+00
2.256631366924039650e+00
2.256631366924039650e+00
2.256631366924039650e+00
2.294507522812585520e+00
2.294507522812585520e+00
2.294507522812585520e+00
2.313820612201300086e+00
2.313820612201300086e+00
2.313820612201300086e+00
2.230943082979827352e+00
2.230943082979827352e+00
2.230943082979827352e+00
2.230943082979827352e+00
2.254381298257393418e+00
2.254381298257393418e+00
2.254381298257393418e+00
2.331821161534470832e+00
2.331821161534470832e+00
2.331821161534470832e+00
2.331821161534470832e+00
2.351509262367625919e+00
2.351509262367625919e+00
2.351509262367625919e+00
2.312883083590197675e+00
2.312883083590197675e+00
2.312883083590197675e+00
2.211817499313333268e+00
2.211817499313333268e+00
2.211817499313333268e+00
2.211817499313333268e+00
2.190441846980193397e+00
2.190441846980193397e+00
2.190441846980193397e+00
2.185379192480239485e+00
2.185379192480239485e+00
2.185379192480239485e+00
2.185379192480239485e+00
2.256068849757378203e+00
2.256068849757378203e+00
2.256068849757378203e+00
2.252506241035188150e+00
2.252506241035188150e+00
2.252506241035188150e+00
2.252506241035188150e+00
2.291507431257057803e+00
2.291507431257057803e+00
2.291507431257057803e+00
2.369697317423017147e+00
2.369697317423017147e+00
2.369697317423017147e+00
2.436074343089083438e+00
2.436074343089083438e+00
2.436074343089083438e+00
2.436074343089083438e+00
2.360884548478652700e+00
2.360884548478652700e+00
2.360884548478652700e+00
2.297507614368114126e+00
2.297507614368114126e+00
2.297507614368114126e+00
2.283444685201574842e+00
2.283444685201574842e+00
2.283444685201574842e+00
2.283444685201574842e+00
2.260943998535111632e+00
2.260943998535111632e+00
2.260943998535111632e+00
2.262444044312875935e+00
2.262444044312875935e+00
2.262444044312875935e+00
2.262444044312875935e+00
2.252131229590746742e+00
2.252131229590746742e+00
2.252131229590746742e+00
2.204129764702292160e+00
2.204129764702292160e+00
2.204129764702292160e+00
2.154440748313852350e+00
2.154440748313852350e+00
2.154440748313852350e+00
2.154440748313852350e+00
2.141127842036194995e+00
2.141127842036194995e+00
2.141127842036194995e+00
2.256631366924039650e+00
2.256631366924039650e+00
2.256631366924039650e+00
2.256631366924039650e+00
2.313820612201300086e+00
2.313820612201300086e+00
2.313820612201300086e+00
2.327133518478957885e+00
2.327133518478957885e+00
2.327133518478957885e+00
2.340821436201055761e+00
2.340821436201055761e+00
2.340821436201055761e+00
2.340821436201055761e+00
2.371384868923001932e+00
2.371384868923001932e+00
2.371384868923001932e+00
2.296382580034791232e+00
2.296382580034791232e+00
2.296382580034791232e+00
2.296382580034791232e+00
2.219692739646595747e+00
2.219692739646595747e+00
2.219692739646595747e+00
2.204317270424512643e+00
2.204317270424512643e+00
2.204317270424512643e+00
2.204317270424512643e+00
2.190441846980193397e+00
2.190441846980193397e+00
2.190441846980193397e+00
2.181441572313608468e+00
2.181441572313608468e+00
2.181441572313608468e+00
2.185941709646900932e+00
2.185941709646900932e+00
2.185941709646900932e+00
2.185941709646900932e+00
2.217067659535508550e+00
2.217067659535508550e+00
2.217067659535508550e+00
2.247818597979674760e+00
2.247818597979674760e+00
2.247818597979674760e+00
2.247818597979674760e+00
2.181254066591387542e+00
2.181254066591387542e+00
2.181254066591387542e+00
2.168878688924833043e+00
2.168878688924833043e+00
2.168878688924833043e+00
2.194941984313486305e+00
2.194941984313486305e+00
2.194941984313486305e+00
2.194941984313486305e+00
2.221755302591021497e+00
2.221755302591021497e+00
2.221755302591021497e+00
2.321508346812341639e+00
2.321508346812341639e+00
2.321508346812341639e+00
2.321508346812341639e+00
2.348509170812097757e+00
2.348509170812097757e+00
2.348509170812097757e+00
2.344009033478804849e+00
2.344009033478804849e+00
2.344009033478804849e+00
2.344009033478804849e+00
2.363697134311959935e+00
2.363697134311959935e+00
2.363697134311959935e+00
2.341571459089938134e+00
2.341571459089938134e+00
2.341571459089938134e+00
2.311008026367992407e+00
2.311008026367992407e+00
2.311008026367992407e+00
2.311008026367992407e+00
2.340446424756614796e+00
2.340446424756614796e+00
2.340446424756614796e+00
2.381697683645130681e+00
2.381697683645130681e+00
2.381697683645130681e+00
2.381697683645130681e+00
2.334071230201117064e+00
2.334071230201117064e+00
2.334071230201117064e+00
2.317008209479048730e+00
2.317008209479048730e+00
2.317008209479048730e+00
2.257193884090700653e+00
2.257193884090700653e+00
2.257193884090700653e+00
2.257193884090700653e+00
2.304632831812494231e+00
2.304632831812494231e+00
2.304632831812494231e+00
2.242943449201941331e+00
2.242943449201941331e+00
2.242943449201941331e+00
2.242943449201941331e+00
2.143752922147282192e+00
2.143752922147282192e+00
2.143752922147282192e+00
2.154628254036072832e+00
2.154628254036072832e+00
2.154628254036072832e+00
2.221567796868801015e+00
2.221567796868801015e+00
2.221567796868801015e+00
2.221567796868801015e+00
2.257568895535142062e+00
2.257568895535142062e+00
2.257568895535142062e+00
2.298445142979216982e+00
2.298445142979216982e+00
2.298445142979216982e+00
2.298445142979216982e+00
2.277069490646077110e+00
2.277069490646077110e+00
2.277069490646077110e+00
2.256256355479598685e+00
2.256256355479598685e+00
2.256256355479598685e+00
2.256256355479598685e+00
2.267131687368389326e+00
2.267131687368389326e+00
2.267131687368389326e+00
2.258506424146244473e+00
2.258506424146244473e+00
2.258506424146244473e+00
2.195504501480147752e+00
2.195504501480147752e+00
2.195504501480147752e+00
2.195504501480147752e+00
2.176003906369212704e+00
2.176003906369212704e+00
2.176003906369212704e+00
2.187441755424664791e+00
2.187441755424664791e+00
2.187441755424664791e+00
2.187441755424664791e+00
2.202442213202307375e+00
2.202442213202307375e+00
2.202442213202307375e+00
2.249881160924100509e+00
2.249881160924100509e+00
2.249881160924100509e+00
2.310633014923550999e+00
2.310633014923550999e+00
2.310633014923550999e+00
2.310633014923550999e+00
2.307257911923581428e+00
2.307257911923581428e+00
2.307257911923581428e+00
2.368759788811914291e+00
2.368759788811914291e+00
2.368759788811914291e+00
2.368759788811914291e+00
2.358071962645344577e+00
2.358071962645344577e+00
2.358071962645344577e+00
2.387135349589526001e+00
2.387135349589526001e+00
2.387135349589526001e+00
2.318695760979033516e+00
2.318695760979033516e+00
2.318695760979033516e+00
2.318695760979033516e+00
2.260381481368449741e+00
2.260381481368449741e+00
2.260381481368449741e+00
2.236193243202001746e+00
2.236193243202001746e+00
2.236193243202001746e+00
2.236193243202001746e+00
2.242380932035279439e+00
2.242380932035279439e+00
2.242380932035279439e+00
2.273319376201666131e+00
2.273319376201666131e+00
2.273319376201666131e+00
2.273319376201666131e+00
2.266194158757286470e+00
2.266194158757286470e+00
2.266194158757286470e+00
2.285507248146000592e+00
2.285507248146000592e+00
2.285507248146000592e+00
2.268444227423932702e+00
2.268444227423932702e+00
2.268444227423932702e+00
2.268444227423932702e+00
2.324508438367870244e+00
2.324508438367870244e+00
2.324508438367870244e+00
2.374947477645191540e+00
2.374947477645191540e+00
2.374947477645191540e+00
2.374947477645191540e+00
2.378135074922940628e+00
2.378135074922940628e+00
2.378135074922940628e+00
2.271444318979460864e+00
2.271444318979460864e+00
2.271444318979460864e+00
2.198879604480116878e+00
2.198879604480116878e+00
2.198879604480116878e+00
2.198879604480116878e+00
2.166816125980407293e+00
2.166816125980407293e+00
2.166816125980407293e+00
2.141315347758415477e+00
2.141315347758415477e+00
2.141315347758415477e+00
2.141315347758415477e+00
2.133627613147373925e+00
2.133627613147373925e+00
2.133627613147373925e+00
2.122752281258583285e+00
2.122752281258583285e+00
2.122752281258583285e+00
2.199442121646778769e+00
2.199442121646778769e+00
2.199442121646778769e+00
2.199442121646778769e+00
2.222505325479903426e+00
2.222505325479903426e+00
2.222505325479903426e+00
2.246881069368571904e+00
2.246881069368571904e+00
2.246881069368571904e+00
2.246881069368571904e+00
2.248193609424115724e+00
2.248193609424115724e+00
2.248193609424115724e+00
2.297695120090334608e+00
2.297695120090334608e+00
2.297695120090334608e+00
2.297695120090334608e+00
2.318508255256813033e+00
2.318508255256813033e+00
2.318508255256813033e+00
2.374947477645191540e+00
2.374947477645191540e+00
2.374947477645191540e+00
2.454262398144474666e+00
2.454262398144474666e+00
2.454262398144474666e+00
2.454262398144474666e+00
2.485200842310861358e+00
2.485200842310861358e+00
2.485200842310861358e+00
2.322258369701224012e+00
2.322258369701224012e+00
2.322258369701224012e+00
2.234318185979796478e+00
2.234318185979796478e+00
2.160815942869350526e+00
2.160815942869350526e+00
2.160815942869350526e+00
2.142815393536179780e+00
2.142815393536179780e+00
2.142815393536179780e+00
2.142815393536179780e+00
2.132877590258491995e+00
2.132877590258491995e+00
2.132877590258491995e+00
2.085438642536698417e+00
2.085438642536698417e+00
2.085438642536698417e+00
2.085438642536698417e+00
2.173941343424787398e+00
2.173941343424787398e+00
2.173941343424787398e+00
2.233193151646474028e+00
2.233193151646474028e+00
2.233193151646474028e+00
2.299382671590319838e+00
2.299382671590319838e+00
2.299382671590319838e+00
2.299382671590319838e+00
2.266756675923947917e+00
2.266756675923947917e+00
2.266756675923947917e+00
2.299757683034760802e+00
2.299757683034760802e+00
2.299757683034760802e+00
2.299757683034760802e+00
2.396323129978331856e+00
2.396323129978331856e+00
2.396323129978331856e+00
2.394823084200567997e+00
2.394823084200567997e+00
2.394823084200567997e+00
2.372697408978545752e+00
2.372697408978545752e+00
2.372697408978545752e+00
2.372697408978545752e+00
2.318508255256813033e+00
2.318508255256813033e+00
2.318508255256813033e+00
2.299945188756981285e+00
2.299945188756981285e+00
2.299945188756981285e+00
2.299945188756981285e+00
2.303695303201391820e+00
2.303695303201391820e+00
2.303695303201391820e+00
2.187254249702444309e+00
2.187254249702444309e+00
2.187254249702444309e+00
2.148440565202795582e+00
2.148440565202795582e+00
2.148440565202795582e+00
2.148440565202795582e+00
2.207129856257820322e+00
2.207129856257820322e+00
2.207129856257820322e+00
2.223817865535447247e+00
2.223817865535447247e+00
2.223817865535447247e+00
2.223817865535447247e+00
2.273319376201666131e+00
2.273319376201666131e+00
2.273319376201666131e+00
2.328633564256721744e+00
2.328633564256721744e+00
2.328633564256721744e+00
2.323570909756767389e+00
2.323570909756767389e+00
2.323570909756767389e+00
2.323570909756767389e+00
2.301632740256966070e+00
2.301632740256966070e+00
2.301632740256966070e+00
2.348321665089877275e+00
2.348321665089877275e+00
2.348321665089877275e+00
2.348321665089877275e+00
2.342133976256599581e+00
2.342133976256599581e+00
2.342133976256599581e+00
2.310258003479110034e+00
2.310258003479110034e+00
2.310258003479110034e+00
2.310258003479110034e+00
2.245006012146367080e+00
2.245006012146367080e+00
2.245006012146367080e+00
2.182941618091372327e+00
2.182941618091372327e+00
2.182941618091372327e+00
2.237880794701986531e+00
2.237880794701986531e+00
2.237880794701986531e+00
2.237880794701986531e+00
2.205067293313394572e+00
2.205067293313394572e+00
2.205067293313394572e+00
2.165503585924863472e+00
2.165503585924863472e+00
2.165503585924863472e+00
2.165503585924863472e+00
2.203942258980071234e+00
2.203942258980071234e+00
2.203942258980071234e+00
2.236193243202001746e+00
2.236193243202001746e+00
2.236193243202001746e+00
2.242943449201941331e+00
2.242943449201941331e+00
2.242943449201941331e+00
2.291882442701498768e+00
2.291882442701498768e+00
2.291882442701498768e+00
2.374009949034089573e+00
2.374009949034089573e+00
2.374009949034089573e+00
2.525889584032716240e+00
2.525889584032716240e+00
2.525889584032716240e+00
2.525889584032716240e+00
2.411136082033753514e+00
2.411136082033753514e+00
2.411136082033753514e+00
2.286444776757103448e+00
2.286444776757103448e+00
2.286444776757103448e+00
2.241630909146397510e+00
2.241630909146397510e+00
2.241630909146397510e+00
2.241630909146397510e+00
2.265256630146183614e+00
2.265256630146183614e+00
2.265256630146183614e+00
2.138690267647328280e+00
2.138690267647328280e+00
2.138690267647328280e+00
2.138690267647328280e+00
2.129127475814081016e+00
2.129127475814081016e+00
2.129127475814081016e+00
2.203942258980071234e+00
2.203942258980071234e+00
2.203942258980071234e+00
2.280069582201605716e+00
2.280069582201605716e+00
2.280069582201605716e+00
2.280069582201605716e+00
2.236755760368663637e+00
2.236755760368663637e+00
2.236755760368663637e+00
2.170191228980376863e+00
2.170191228980376863e+00
2.170191228980376863e+00
2.170378734702597345e+00
2.170378734702597345e+00
2.170378734702597345e+00
2.170378734702597345e+00
2.233943174535355514e+00
2.233943174535355514e+00
2.233943174535355514e+00
2.268256721701712220e+00
2.268256721701712220e+00
2.268256721701712220e+00
2.268256721701712220e+00
2.361447065645314147e+00
2.361447065645314147e+00
2.361447065645314147e+00
2.362384594256416559e+00
2.362384594256416559e+00
2.362384594256416559e+00
2.362384594256416559e+00
2.333696218756676100e+00
2.333696218756676100e+00
2.333696218756676100e+00
2.321133335367900674e+00
2.321133335367900674e+00
2.321133335367900674e+00
2.311945554979094819e+00
2.311945554979094819e+00
2.311945554979094819e+00
2.311945554979094819e+00
2.294320017090365038e+00
2.294320017090365038e+00
2.294320017090365038e+00
2.188191778313547164e+00
2.188191778313547164e+00
2.188191778313547164e+00
2.188191778313547164e+00
2.221380291146580532e+00
2.221380291146580532e+00
2.221380291146580532e+00
2.265256630146183614e+00
2.265256630146183614e+00
2.265256630146183614e+00
2.246318552201910457e+00
2.246318552201910457e+00
2.246318552201910457e+00
2.246318552201910457e+00
2.257006378368480615e+00
2.257006378368480615e+00
2.257006378368480615e+00
2.214630085146641392e+00
2.214630085146641392e+00
2.214630085146641392e+00
2.214630085146641392e+00
2.246506057924130939e+00
2.246506057924130939e+00
2.246506057924130939e+00
2.165316080202642990e+00
2.165316080202642990e+00
2.165316080202642990e+00
2.222692831202123909e+00
2.222692831202123909e+00
2.222692831202123909e+00
2.222692831202123909e+00
2.319258278145695407e+00
2.319258278145695407e+00
2.319258278145695407e+00
2.343071504867702437e+00
2.343071504867702437e+00
2.343071504867702437e+00
2.343071504867702437e+00
2.388447889645069822e+00
2.388447889645069822e+00
2.388447889645069822e+00
2.375885006256294396e+00
2.375885006256294396e+00
2.375885006256294396e+00
2.375885006256294396e+00
2.383385235145115466e+00
2.383385235145115466e+00
2.383385235145115466e+00
2.327883541367839371e+00
2.327883541367839371e+00
2.327883541367839371e+00
2.206192327646717910e+00
2.206192327646717910e+00
2.206192327646717910e+00
2.206192327646717910e+00
2.124627338480788552e+00
2.124627338480788552e+00
2.124627338480788552e+00
2.083376079592272667e+00
2.083376079592272667e+00
2.083376079592272667e+00
2.083376079592272667e+00
2.086938688314462720e+00
2.086938688314462720e+00
2.086938688314462720e+00
2.167753654591509704e+00
2.167753654591509704e+00
2.167753654591509704e+00
2.167753654591509704e+00
2.194754478591265823e+00
2.194754478591265823e+00
2.194754478591265823e+00
2.264881618701742649e+00
2.264881618701742649e+00
2.264881618701742649e+00
2.357884456923124095e+00
2.357884456923124095e+00
2.357884456923124095e+00
2.357884456923124095e+00
2.330883632923367976e+00
2.330883632923367976e+00
2.330883632923367976e+00
2.342321481978820064e+00
2.342321481978820064e+00
2.342321481978820064e+00
2.354884365367595489e+00
2.354884365367595489e+00
2.354884365367595489e+00
2.354884365367595489e+00
2.249131138035218136e+00
2.249131138035218136e+00
2.249131138035218136e+00
2.233005645924253102e+00
2.233005645924253102e+00
2.233005645924253102e+00
2.410011047700430176e+00
2.410011047700430176e+00
2.410011047700430176e+00
2.410011047700430176e+00
2.456137455366679934e+00
2.456137455366679934e+00
2.456137455366679934e+00
2.425386516922513280e+00
2.425386516922513280e+00
2.425386516922513280e+00
2.425386516922513280e+00
2.339883907589953349e+00
2.339883907589953349e+00
2.339883907589953349e+00
2.251006195257423848e+00
2.251006195257423848e+00
2.251006195257423848e+00
2.251006195257423848e+00
2.136815210425123013e+00
2.136815210425123013e+00
2.136815210425123013e+00
2.090126285592211808e+00
2.090126285592211808e+00
2.090126285592211808e+00
2.071938230536820580e+00
2.071938230536820580e+00
2.071938230536820580e+00
2.071938230536820580e+00
2.179191503646961792e+00
2.179191503646961792e+00
2.179191503646961792e+00
2.292444959868159771e+00
2.292444959868159771e+00
2.292444959868159771e+00
2.292444959868159771e+00
2.291507431257057803e+00
2.291507431257057803e+00
2.291507431257057803e+00
2.259443952757347329e+00
2.259443952757347329e+00
2.259443952757347329e+00
2.274256904812768987e+00
2.274256904812768987e+00
2.274256904812768987e+00
2.274256904812768987e+00
2.311195532090212890e+00
2.311195532090212890e+00
2.311195532090212890e+00
2.273319376201666131e+00
2.273319376201666131e+00
2.273319376201666131e+00
2.273319376201666131e+00
2.314383129367961978e+00
2.314383129367961978e+00
2.314383129367961978e+00
2.241818414868617992e+00
2.241818414868617992e+00
2.241818414868617992e+00
2.214442579424420909e+00
2.214442579424420909e+00
2.214442579424420909e+00
2.214442579424420909e+00
2.305195348979155678e+00
2.305195348979155678e+00
2.305195348979155678e+00
2.290757408368175430e+00
2.290757408368175430e+00
2.290757408368175430e+00
2.290757408368175430e+00
2.230943082979827352e+00
2.230943082979827352e+00
2.230943082979827352e+00
2.241630909146397510e+00
2.241630909146397510e+00
2.241630909146397510e+00
2.220817773979919085e+00
2.220817773979919085e+00
2.220817773979919085e+00
2.220817773979919085e+00
2.285507248146000592e+00
2.285507248146000592e+00
2.285507248146000592e+00
2.378322580645161111e+00
2.378322580645161111e+00
2.378322580645161111e+00
2.378322580645161111e+00
2.419386333811456957e+00
2.419386333811456957e+00
2.419386333811456957e+00
2.368384777367473326e+00
2.368384777367473326e+00
2.368384777367473326e+00
2.368384777367473326e+00
2.256068849757378203e+00
2.256068849757378203e+00
2.256068849757378203e+00
2.181629078035828950e+00
2.181629078035828950e+00
2.181629078035828950e+00
2.216130130924405695e+00
2.216130130924405695e+00
2.216130130924405695e+00
2.216130130924405695e+00
2.129689992980742907e+00
2.129689992980742907e+00
2.129689992980742907e+00
2.222130314035462462e+00
2.222130314035462462e+00
2.222130314035462462e+00
2.222130314035462462e+00
2.260006469924008776e+00
2.260006469924008776e+00
2.260006469924008776e+00
2.198129581591235393e+00
2.198129581591235393e+00
2.198129581591235393e+00
2.376822534867396808e+00
2.376822534867396808e+00
2.376822534867396808e+00
2.376822534867396808e+00
2.479763176366466482e+00
2.479763176366466482e+00
2.479763176366466482e+00
2.460262581255531433e+00
2.460262581255531433e+00
2.460262581255531433e+00
2.460262581255531433e+00
2.379635120700704931e+00
2.379635120700704931e+00
2.379635120700704931e+00
2.265819147312845505e+00
2.265819147312845505e+00
2.265819147312845505e+00
2.084313608203375079e+00
2.084313608203375079e+00
2.084313608203375079e+00
2.084313608203375079e+00
2.053562669759208870e+00
2.053562669759208870e+00
2.053562669759208870e+00
2.115252052369762659e+00
2.115252052369762659e+00
2.115252052369762659e+00
2.115252052369762659e+00
2.133440107425153442e+00
2.133440107425153442e+00
2.133440107425153442e+00
2.115252052369762659e+00
2.115252052369762659e+00
2.115252052369762659e+00
2.169066194647053525e+00
2.169066194647053525e+00
2.169066194647053525e+00
2.169066194647053525e+00
2.297320108645893644e+00
2.297320108645893644e+00
2.297320108645893644e+00
2.376635029145176325e+00
2.376635029145176325e+00
2.376635029145176325e+00
2.376635029145176325e+00
2.343634022034363884e+00
2.343634022034363884e+00
2.343634022034363884e+00
2.293007477034821662e+00
2.293007477034821662e+00
2.293007477034821662e+00
2.365572191534165203e+00
2.365572191534165203e+00
2.365572191534165203e+00
2.365572191534165203e+00
2.325070955534531691e+00
2.325070955534531691e+00
2.325070955534531691e+00
2.268069215979491737e+00
2.268069215979491737e+00
2.268069215979491737e+00
2.268069215979491737e+00
2.310820520645771925e+00
2.310820520645771925e+00
2.310820520645771925e+00
2.330696127201147494e+00
2.330696127201147494e+00
2.330696127201147494e+00
2.250443678090761956e+00
2.250443678090761956e+00
2.250443678090761956e+00
2.250443678090761956e+00
2.262256538590655452e+00
2.262256538590655452e+00
2.262256538590655452e+00
2.251568712424085295e+00
2.251568712424085295e+00
2.251568712424085295e+00
2.251568712424085295e+00
2.225317911313211550e+00
2.225317911313211550e+00
2.225317911313211550e+00
2.225130405590991067e+00
2.225130405590991067e+00
2.225130405590991067e+00
2.257381389812921579e+00
2.257381389812921579e+00
2.257381389812921579e+00
2.257381389812921579e+00
2.307820429090243319e+00
2.307820429090243319e+00
2.307820429090243319e+00
2.368759788811914291e+00
2.368759788811914291e+00
2.368759788811914291e+00
2.368759788811914291e+00
2.396135624256111374e+00
2.396135624256111374e+00
2.396135624256111374e+00
2.305570360423596643e+00
2.305570360423596643e+00
2.305570360423596643e+00
2.305570360423596643e+00
2.233380657368694511e+00
2.233380657368694511e+00
2.233380657368694511e+00
2.168316171758171151e+00
2.168316171758171151e+00
2.168316171758171151e+00
2.258506424146244473e+00
2.258506424146244473e+00
2.258506424146244473e+00
2.258506424146244473e+00
2.268069215979491737e+00
2.268069215979491737e+00
2.268069215979491737e+00
2.227005462813196335e+00
2.227005462813196335e+00
2.227005462813196335e+00
2.227005462813196335e+00
2.199254615924558287e+00
2.199254615924558287e+00
2.199254615924558287e+00
2.122189764091921838e+00
2.122189764091921838e+00
2.122189764091921838e+00
2.118439649647511303e+00
2.118439649647511303e+00
2.118439649647511303e+00
2.118439649647511303e+00
2.249318643757439062e+00
2.249318643757439062e+00
2.249318643757439062e+00
2.349259193700979687e+00
2.349259193700979687e+00
2.349259193700979687e+00
2.349259193700979687e+00
2.420323862422559369e+00
2.420323862422559369e+00
2.420323862422559369e+00
2.514076723532822744e+00
2.514076723532822744e+00
2.514076723532822744e+00
2.514076723532822744e+00
2.505076448866237371e+00
2.505076448866237371e+00
2.505076448866237371e+00
2.352446790978728330e+00
2.352446790978728330e+00
2.352446790978728330e+00
2.255506332590716312e+00
2.255506332590716312e+00
2.255506332590716312e+00
2.255506332590716312e+00
2.166441114535965884e+00
2.166441114535965884e+00
2.166441114535965884e+00
2.081876033814508364e+00
2.081876033814508364e+00
2.081876033814508364e+00
2.157628345591601438e+00
2.157628345591601438e+00
2.157628345591601438e+00
2.157628345591601438e+00
2.189691824091311467e+00
2.189691824091311467e+00
2.189691824091311467e+00
2.169628711813714972e+00
2.169628711813714972e+00
2.169628711813714972e+00
2.169628711813714972e+00
2.164941068758201581e+00
2.164941068758201581e+00
2.164941068758201581e+00
2.262444044312875935e+00
2.262444044312875935e+00
2.262444044312875935e+00
2.277444502090518075e+00
2.277444502090518075e+00
2.277444502090518075e+00
2.277444502090518075e+00
2.211067476424451339e+00
2.211067476424451339e+00
2.211067476424451339e+00
2.276131962034974254e+00
2.276131962034974254e+00
2.276131962034974254e+00
2.276131962034974254e+00
2.356009399700918827e+00
2.356009399700918827e+00
2.356009399700918827e+00
2.380572649311807787e+00
2.380572649311807787e+00
2.380572649311807787e+00
2.380572649311807787e+00
2.371947386089663379e+00
2.371947386089663379e+00
2.371947386089663379e+00
2.367447248756370914e+00
2.367447248756370914e+00
2.367447248756370914e+00
2.331633655812249906e+00
2.331633655812249906e+00
2.331633655812249906e+00
2.331633655812249906e+00
2.219130222479934300e+00
2.219130222479934300e+00
2.219130222479934300e+00
2.181629078035828950e+00
2.181629078035828950e+00
2.181629078035828950e+00
2.181629078035828950e+00
2.119752189703054679e+00
2.119752189703054679e+00
2.119752189703054679e+00
2.116939603869747000e+00
2.116939603869747000e+00
2.116939603869747000e+00
2.190254341257972914e+00
2.190254341257972914e+00
2.190254341257972914e+00
2.190254341257972914e+00
2.288507339701529197e+00
2.288507339701529197e+00
2.288507339701529197e+00
2.298445142979216982e+00
2.298445142979216982e+00
2.298445142979216982e+00
2.298445142979216982e+00
2.368947294534135217e+00
2.368947294534135217e+00
2.368947294534135217e+00
2.404573381756035300e+00
2.404573381756035300e+00
2.404573381756035300e+00
2.404573381756035300e+00
2.372322397534104788e+00
2.372322397534104788e+00
2.372322397534104788e+00
2.259818964201788294e+00
2.259818964201788294e+00
2.259818964201788294e+00
2.245193517868587563e+00
2.245193517868587563e+00
2.245193517868587563e+00
2.245193517868587563e+00
2.293194982757042144e+00
2.293194982757042144e+00
2.293194982757042144e+00
2.414323679311502602e+00
2.414323679311502602e+00
2.414323679311502602e+00
2.414323679311502602e+00
2.306507889034699499e+00
2.306507889034699499e+00
2.306507889034699499e+00
2.251006195257423848e+00
2.251006195257423848e+00
2.251006195257423848e+00
2.229255531479842567e+00
2.229255531479842567e+00
2.229255531479842567e+00
2.229255531479842567e+00
2.221755302591021497e+00
2.221755302591021497e+00
2.221755302591021497e+00
2.138877773369548763e+00
2.138877773369548763e+00
2.138877773369548763e+00
2.138877773369548763e+00
2.173941343424787398e+00
2.173941343424787398e+00
2.173941343424787398e+00
2.210504959257789892e+00
2.210504959257789892e+00
2.210504959257789892e+00
2.220630268257698603e+00
2.220630268257698603e+00
2.220630268257698603e+00
2.220630268257698603e+00
2.230005554368724940e+00
2.230005554368724940e+00
2.230005554368724940e+00
2.205817316202276945e+00
2.205817316202276945e+00
2.205817316202276945e+00
2.205817316202276945e+00
2.295632557145908859e+00
2.295632557145908859e+00
2.295632557145908859e+00
2.362572099978637485e+00
2.362572099978637485e+00
2.362572099978637485e+00
2.362572099978637485e+00
2.309507980590228104e+00
2.309507980590228104e+00
2.309507980590228104e+00
2.287569811090426342e+00
2.287569811090426342e+00
2.287569811090426342e+00
2.304257820368053267e+00
2.304257820368053267e+00
2.304257820368053267e+00
2.304257820368053267e+00
2.184066652424695665e+00
2.184066652424695665e+00
2.184066652424695665e+00
2.125752372814111890e+00
2.125752372814111890e+00
2.125752372814111890e+00
2.125752372814111890e+00
2.372509903256325270e+00
2.372509903256325270e+00
2.372509903256325270e+00
2.292632465590380253e+00
2.292632465590380253e+00
2.292632465590380253e+00
2.276506973479415219e+00
2.276506973479415219e+00
2.276506973479415219e+00
2.276506973479415219e+00
2.311758049256874337e+00
2.311758049256874337e+00
2.272006836146122755e+00
2.272006836146122755e+00
2.143190404980620745e+00
2.244255989257484707e+00
2.244255989257484707e+00
2.378697592089602519e+00
2.378697592089602519e+00
2.341196447645496725e+00
2.376260017700735361e+00
2.376260017700735361e+00
2.383760246589556875e+00
2.383760246589556875e+00
2.458012512588885201e+00
2.369134800256355700e+00
2.369134800256355700e+00
2.280632099368266719e+00
2.280632099368266719e+00
2.301820245979186552e+00
2.197379558702353020e+00
2.197379558702353020e+00
2.167753654591509704e+00
2.167753654591509704e+00
2.183129123813593253e+00
2.255693838312936794e+00
2.255693838312936794e+00
2.169441206091494490e+00
2.168691183202612560e+00
2.168691183202612560e+00
2.161753471480452937e+00
2.161753471480452937e+00
2.275381939146092325e+00
2.382822717978454019e+00
2.382822717978454019e+00
2.502451368755150174e+00
2.502451368755150174e+00
2.459887569811090469e+00
2.163628528702658205e+00
2.163628528702658205e+00
2.017561571092867823e+00
2.017561571092867823e+00
1.924558732871486599e+00
1.991873287148655747e+00
1.991873287148655747e+00
2.252693746757408633e+00
2.301632740256966070e+00
2.301632740256966070e+00
2.339321390423291458e+00
2.339321390423291458e+00
2.401760795922727176e+00
2.437199377422406776e+00
2.437199377422406776e+00
2.371947386089663379e+00
2.371947386089663379e+00
2.332946195867793726e+00
2.307257911923581428e+00
2.307257911923581428e+00
2.402323313089388623e+00
2.398385692922757606e+00
2.166066103091524919e+00
2.166066103091524919e+00
2.062375438703573760e+00
2.062375438703573760e+00
2.007436262092959556e+00
2.112626972258675018e+00
2.112626972258675018e+00
2.295632557145908859e+00
2.295632557145908859e+00
2.298070131534776017e+00
2.306320383312479017e+00
2.306320383312479017e+00
2.405885921811578676e+00
2.395760612811670409e+00
2.395760612811670409e+00
2.408323496200445835e+00
2.408323496200445835e+00
2.479388164922025517e+00
2.458575029755546648e+00
2.458575029755546648e+00
2.361822077089755112e+00
2.361822077089755112e+00
2.277069490646077110e+00
2.117877132480849411e+00
2.117877132480849411e+00
2.046999969481490211e+00
1.938434156315805401e+00
1.938434156315805401e+00
2.013248939481795396e+00
2.013248939481795396e+00
2.219130222479934300e+00
2.342321481978820064e+00
2.342321481978820064e+00
2.429324137089144742e+00
2.429324137089144742e+00
2.571640980254524589e+00
2.511076631977294138e+00
2.511076631977294138e+00
2.375322489089632505e+00
2.375322489089632505e+00
2.351134250923184954e+00
2.193629444257942485e+00
2.193629444257942485e+00
2.079625965147862576e+00
2.079625965147862576e+00
1.940309213538010891e+00
2.017186559648426858e+00
2.017186559648426858e+00
2.203379741813409787e+00
2.232443128757591655e+00
2.232443128757591655e+00
2.371572374645222414e+00
2.371572374645222414e+00
2.403073335978270997e+00
2.466075258644368162e+00
2.466075258644368162e+00
2.449762260811182202e+00
2.275756950590533290e+00
2.275756950590533290e+00
2.162878505813776275e+00
2.076063356425672080e+00
2.076063356425672080e+00
2.015499008148442073e+00
2.015499008148442073e+00
2.132877590258491995e+00
2.221942808313242423e+00
2.221942808313242423e+00
2.287569811090426342e+00
2.287569811090426342e+00
2.407573473311563461e+00
2.396135624256111374e+00
2.396135624256111374e+00
2.331446150090029423e+00
2.266006653035065987e+00
2.266006653035065987e+00
2.421636402478102745e+00
2.421636402478102745e+00
2.550077822199164235e+00
2.568453382976775501e+00
2.568453382976775501e+00
2.429511642811365224e+00
2.429511642811365224e+00
2.331071138645588459e+00
2.076625873592333971e+00
2.076625873592333971e+00
1.824430677205725271e+00
1.824430677205725271e+00
1.917996032593768163e+00
2.046062440870388244e+00
2.046062440870388244e+00
2.229068025757622085e+00
2.300882717368083696e+00
2.300882717368083696e+00
2.264319101535081202e+00
2.264319101535081202e+00
2.266381664479506952e+00
2.315883175145725836e+00
2.315883175145725836e+00
2.344571550645466296e+00
2.344571550645466296e+00
2.547077730643635629e+00
2.538077455977050256e+00
2.538077455977050256e+00
2.402698324533829588e+00
2.249318643757439062e+00
2.249318643757439062e+00
2.073250770592364400e+00
2.073250770592364400e+00
2.015311502426221590e+00
2.251193700979644330e+00
2.251193700979644330e+00
2.340258919034394314e+00
2.340258919034394314e+00
2.363509628589739453e+00
2.335196264534440402e+00
2.335196264534440402e+00
2.248943632312997654e+00
2.248943632312997654e+00
2.194566972869045340e+00
2.212567522202215642e+00
2.212567522202215642e+00
2.275569444868312807e+00
2.275569444868312807e+00
2.272194341868343237e+00
2.216130130924405695e+00
2.216130130924405695e+00
2.171316263313699757e+00
2.143377910702841227e+00
2.143377910702841227e+00
2.205817316202276945e+00
2.205817316202276945e+00
2.330321115756706529e+00
2.356759422589800756e+00
2.356759422589800756e+00
2.346259102145451525e+00
2.341008941923276243e+00
2.341008941923276243e+00
2.415636219367045978e+00
2.415636219367045978e+00
2.354321848200934042e+00
2.245381023590808045e+00
2.245381023590808045e+00
2.142627887813959298e+00
2.142627887813959298e+00
2.157815851313821920e+00
2.175066377758110736e+00
2.175066377758110736e+00
2.168316171758171151e+00
2.168316171758171151e+00
2.161190954313791490e+00
2.305570360423596643e+00
2.305570360423596643e+00
2.419573839533677440e+00
2.419573839533677440e+00
2.514076723532822744e+00
2.537889950254829774e+00
2.537889950254829774e+00
2.385635303811762142e+00
2.202442213202307375e+00
2.202442213202307375e+00
2.121627246925260390e+00
2.121627246925260390e+00
2.049437543870357370e+00
2.188191778313547164e+00
2.188191778313547164e+00
2.172441297647023095e+00
2.172441297647023095e+00
2.346071596423230599e+00
2.333883724478896582e+00
2.333883724478896582e+00
2.254943815424054865e+00
2.254943815424054865e+00
2.290007385479293500e+00
2.232818140202032620e+00
2.232818140202032620e+00
2.041749809259315818e+00
2.041749809259315818e+00
2.277069490646077110e+00
2.277069490646077110e+00
2.277069490646077110e+00
2.282319650868251504e+00
2.439636951811273491e+00
2.439636951811273491e+00
2.371197363200781449e+00
2.371197363200781449e+00
2.267131687368389326e+00
2.203004730368968822e+00
2.203004730368968822e+00
2.230568071535386387e+00
2.230568071535386387e+00
2.216692648091067142e+00
2.280069582201605716e+00
2.280069582201605716e+00
2.329383587145603673e+00
2.329383587145603673e+00
2.413948667867061193e+00
2.459512558366649504e+00
2.459512558366649504e+00
2.358259468367565059e+00
2.358259468367565059e+00
2.197004547257912055e+00
1.973497726371044036e+00
1.973497726371044036e+00
1.952122074037903943e+00
2.001061067537461380e+00
2.001061067537461380e+00
2.297695120090334608e+00
2.297695120090334608e+00
2.442824549089022579e+00
2.287757316812646824e+00
2.287757316812646824e+00
2.214067567979979945e+00
2.214067567979979945e+00
2.311383037812433372e+00
2.363509628589739453e+00
2.363509628589739453e+00
2.460825098422192880e+00
2.460825098422192880e+00
2.354509353923154524e+00
2.313258095034638639e+00
2.313258095034638639e+00
2.201129673146763555e+00
2.190629352702413879e+00
2.190629352702413879e+00
2.239755851924192243e+00
2.239755851924192243e+00
2.141127842036194995e+00
2.212942533646656607e+00
2.212942533646656607e+00
2.193066927091281038e+00
2.193066927091281038e+00
2.479575670644245999e+00
2.708895168919950081e+00
2.708895168919950081e+00
2.526827112643818651e+00
2.526827112643818651e+00
2.366322214423047576e+00
2.073063264870143918e+00
2.073063264870143918e+00
1.908620746482741826e+00
1.908620746482741826e+00
2.028999420148319910e+00
2.252318735312967224e+00
2.252318735312967224e+00
2.366509720145268059e+00
2.360884548478652700e+00
2.360884548478652700e+00
2.229255531479842567e+00
2.229255531479842567e+00
2.143565416425061709e+00
2.039312234870449103e+00
2.039312234870449103e+00
2.155565782647175688e+00
2.155565782647175688e+00
2.291507431257057803e+00
2.386572832422864110e+00
2.386572832422864110e+00
2.478450636310922661e+00
2.478450636310922661e+00
2.453887386700033701e+00
2.326195989867855030e+00
2.326195989867855030e+00
2.294320017090365038e+00
2.294320017090365038e+00
2.257006378368480615e+00
2.145065462202826012e+00
2.145065462202826012e+00
2.087876216925565576e+00
2.216130130924405695e+00
2.216130130924405695e+00
2.148440565202795582e+00
2.148440565202795582e+00
2.183129123813593253e+00
2.290007385479293500e+00
2.290007385479293500e+00
2.325258461256752618e+00
2.290944914090395912e+00
2.290944914090395912e+00
2.371947386089663379e+00
2.371947386089663379e+00
2.422573931089205601e+00
2.460075075533310951e+00
2.460075075533310951e+00
2.209004913480026033e+00
2.209004913480026033e+00
2.254943815424054865e+00
2.213692556535538980e+00
2.213692556535538980e+00
2.259443952757347329e+00
2.166628620258186366e+00
2.166628620258186366e+00
2.114502029480880285e+00
2.114502029480880285e+00
2.282882168034912951e+00
2.382072695089572090e+00
2.382072695089572090e+00
2.360509537034211291e+00
2.360509537034211291e+00
2.307257911923581428e+00
2.187629261146885273e+00
2.187629261146885273e+00
2.197004547257912055e+00
2.197004547257912055e+00
2.290757408368175430e+00
2.404010864589373409e+00
2.404010864589373409e+00
2.286632282479323930e+00
2.286632282479323930e+00
2.320383312479018745e+00
2.332196172978911797e+00
2.332196172978911797e+00
2.354134342478713116e+00
2.186129215369121415e+00
2.186129215369121415e+00
2.172066286202582130e+00
2.172066286202582130e+00
2.096876491592150504e+00
2.056375255592516993e+00
2.056375255592516993e+00
2.185004181035798521e+00
2.185004181035798521e+00
2.344196539201025331e+00
2.309882992034669069e+00
2.309882992034669069e+00
2.271444318979460864e+00
2.271444318979460864e+00
2.285694753868221074e+00
2.399323221533860018e+00
2.399323221533860018e+00
2.480888210699789376e+00
2.528889675588243957e+00
2.528889675588243957e+00
2.309882992034669069e+00
2.309882992034669069e+00
2.263944090090640238e+00
2.101751640369884377e+00
2.101751640369884377e+00
2.084688619647816488e+00
2.084688619647816488e+00
1.905058137760551773e+00
2.085813653981139382e+00
2.085813653981139382e+00
2.430261665700247153e+00
2.430261665700247153e+00
2.695394756920072243e+00
2.665206335642567481e+00
2.665206335642567481e+00
2.560390636921292984e+00
2.373634937589648164e+00
2.373634937589648164e+00
2.026186834315011787e+00
2.026186834315011787e+00
1.815055391094698933e+00
1.945746879482405989e+00
1.945746879482405989e+00
2.168878688924833043e+00
2.168878688924833043e+00
2.252318735312967224e+00
2.271631824701681346e+00
2.271631824701681346e+00
2.239755851924192243e+00
2.239755851924192243e+00
2.271631824701681346e+00
2.177128940702536042e+00
2.177128940702536042e+00
2.099314065981017663e+00
2.180504043702505612e+00
2.180504043702505612e+00
2.585703909421063873e+00
2.585703909421063873e+00
2.456324961088900860e+00
2.279507065034943825e+00
2.279507065034943825e+00
2.263006561479537382e+00
2.263006561479537382e+00
2.267319193090609808e+00
2.215380108035523765e+00
2.215380108035523765e+00
2.305945371868038052e+00
2.305945371868038052e+00
2.360509537034211291e+00
2.362572099978637485e+00
2.362572099978637485e+00
2.392198004089480357e+00
2.281194616534928166e+00
2.281194616534928166e+00
2.292069948423719250e+00
2.292069948423719250e+00
2.284569719534897736e+00
2.213130039368877089e+00
2.213130039368877089e+00
2.208817407757805107e+00
2.208817407757805107e+00
2.192129398480178182e+00
2.143002899258400262e+00
2.143002899258400262e+00
2.251193700979644330e+00
2.251193700979644330e+00
2.266194158757286470e+00
2.137002716147343495e+00
2.137002716147343495e+00
2.292819971312600735e+00
2.292819971312600735e+00
2.277444502090518075e+00
2.266194158757286470e+00
2.266194158757286470e+00
2.310820520645771925e+00
2.278944547868282378e+00
2.278944547868282378e+00
2.439074434644612044e+00
2.439074434644612044e+00
2.425199011200292798e+00
2.201317178868984037e+00
2.201317178868984037e+00
2.147503036591693171e+00
2.147503036591693171e+00
2.256818872646260132e+00
2.308382946256904766e+00
2.308382946256904766e+00
2.168503677480392078e+00
2.168503677480392078e+00
2.169441206091494490e+00
2.337446333201086635e+00
2.337446333201086635e+00
2.391072969756157018e+00
2.274256904812768987e+00
2.274256904812768987e+00
2.281007110812707683e+00
2.281007110812707683e+00
2.124814844203009478e+00
2.287194799645985377e+00
2.287194799645985377e+00
2.435886837366862956e+00
2.435886837366862956e+00
2.383947752311777357e+00
2.545390179143650844e+00
2.545390179143650844e+00
2.466262764366588645e+00
2.466262764366588645e+00
2.099876583147679110e+00
2.072125736259041062e+00
2.072125736259041062e+00
2.166441114535965884e+00
2.166441114535965884e+00
2.367259743034150432e+00
2.375885006256294396e+00
2.375885006256294396e+00
2.480513199255348411e+00
2.546890224921415147e+00
2.546890224921415147e+00
2.286257271034882521e+00
2.286257271034882521e+00
1.946684408093508845e+00
1.759928708761864247e+00
1.759928708761864247e+00
1.875994750816370127e+00
1.875994750816370127e+00
2.115252052369762659e+00
2.465512741477706271e+00
2.465512741477706271e+00
2.516701803643909940e+00
2.516701803643909940e+00
2.226442945646534444e+00
2.367259743034150432e+00
2.367259743034150432e+00
2.323195898312326424e+00
2.168878688924833043e+00
2.168878688924833043e+00
2.337633838923307117e+00
2.337633838923307117e+00
2.391072969756157018e+00
2.345884090701010116e+00
2.345884090701010116e+00
2.338383861812189490e+00
2.338383861812189490e+00
2.154815759758293314e+00
2.249506149479659545e+00
2.249506149479659545e+00
2.214442579424420909e+00
2.214442579424420909e+00
2.437386883144627259e+00
2.521201940977202849e+00
2.521201940977202849e+00
2.460825098422192880e+00
2.460825098422192880e+00
2.393323038422803695e+00
2.181066560869167059e+00
2.181066560869167059e+00
2.146753013702810797e+00
2.109626880703146412e+00
2.109626880703146412e+00
2.193816949980162967e+00
2.193816949980162967e+00
2.496826197088534371e+00
2.471887936033204003e+00
2.471887936033204003e+00
2.253443769646290562e+00
2.253443769646290562e+00
1.988498184148686176e+00
1.838681112094485259e+00
1.838681112094485259e+00
2.026936857203894160e+00
2.026936857203894160e+00
2.115252052369762659e+00
2.316258186590166801e+00
2.316258186590166801e+00
2.389385418256172233e+00
2.389385418256172233e+00
2.400260750144962874e+00
2.372509903256325270e+00
2.372509903256325270e+00
2.425011505478072316e+00
2.361072054200873183e+00
2.361072054200873183e+00
2.311008026367992407e+00
2.311008026367992407e+00
2.198879604480116878e+00
2.313258095034638639e+00
2.313258095034638639e+00
2.232255623035371173e+00
2.232255623035371173e+00
2.273131870479445649e+00
2.381135166478469234e+00
2.381135166478469234e+00
2.277819513534959039e+00
2.277819513534959039e+00
2.169066194647053525e+00
2.235630726035340299e+00
2.235630726035340299e+00
2.297507614368114126e+00
2.297507614368114126e+00
2.550640339365825238e+00
2.710582720419934866e+00
2.710582720419934866e+00
2.559640614032411055e+00
2.389947935422834124e+00
2.389947935422834124e+00
1.994685872981963648e+00
1.994685872981963648e+00
1.804742576372569962e+00
1.972185186315500438e+00
1.972185186315500438e+00
2.004623676259651432e+00
2.004623676259651432e+00
2.149378093813898438e+00
2.246131046479689974e+00
2.246131046479689974e+00
2.212942533646656607e+00
2.279694570757164307e+00
2.279694570757164307e+00
2.353759331034272151e+00
2.353759331034272151e+00
2.387885372478407930e+00
2.361259559923093665e+00
2.361259559923093665e+00
2.341383953367717208e+00
2.341383953367717208e+00
2.225130405590991067e+00
2.422761436811426083e+00
2.422761436811426083e+00
2.417698782311472172e+00
2.448074709311197417e+00
2.448074709311197417e+00
2.451074800866725578e+00
2.451074800866725578e+00
2.434386791589098653e+00
2.376447523422955843e+00
2.376447523422955843e+00
2.231693105868709726e+00
2.231693105868709726e+00
2.079813470870083059e+00
2.084501113925596005e+00
2.084501113925596005e+00
2.063687978759117581e+00
2.063687978759117581e+00
2.215942625202185212e+00
2.313820612201300086e+00
2.313820612201300086e+00
2.168316171758171151e+00
2.168316171758171151e+00
2.251568712424085295e+00
2.241630909146397510e+00
2.241630909146397510e+00
1.899620471816156453e+00
2.097814020203253360e+00
2.097814020203253360e+00
2.340258919034394314e+00
2.340258919034394314e+00
2.386760338145085036e+00
2.532827295754875419e+00
2.532827295754875419e+00
2.423511459700308013e+00
2.423511459700308013e+00
2.222317819757682944e+00
2.270694296090578934e+00
2.270694296090578934e+00
2.441324503311258276e+00
2.441324503311258276e+00
2.351696768089846401e+00
2.311008026367992407e+00
2.311008026367992407e+00
2.086938688314462720e+00
2.086938688314462720e+00
1.950622028260139862e+00
2.042499832148198191e+00
2.042499832148198191e+00
2.214255073702200427e+00
2.302945280312509890e+00
2.302945280312509890e+00
2.506201483199560265e+00
2.506201483199560265e+00
2.529264687032685366e+00
2.390322946867275089e+00
2.390322946867275089e+00
2.374009949034089573e+00
2.374009949034089573e+00
2.284194708090456771e+00
2.146002990813928868e+00
2.146002990813928868e+00
2.165316080202642990e+00
2.165316080202642990e+00
2.199629627368999252e+00
2.240880886257515137e+00
2.240880886257515137e+00
2.201317178868984037e+00
2.339883907589953349e+00
2.339883907589953349e+00
2.418448805200354101e+00
2.418448805200354101e+00
2.460262581255531433e+00
2.460262581255531433e+00
2.460262581255531433e+00
2.429136631366924259e+00
2.429136631366924259e+00
2.587391460921048658e+00
2.701957457197790902e+00
2.701957457197790902e+00
2.308195440534684284e+00
2.308195440534684284e+00
1.931683950315866705e+00
1.742678182317575653e+00
1.742678182317575653e+00
1.846181340983306329e+00
2.043249855037080120e+00
2.043249855037080120e+00
2.113001983703115982e+00
2.113001983703115982e+00
2.105876766258735877e+00
2.122939786980803767e+00
2.122939786980803767e+00
2.170191228980376863e+00
2.170191228980376863e+00
2.421448896755882263e+00
2.364822168645283273e+00
2.364822168645283273e+00
2.459887569811090469e+00
2.459887569811090469e+00
2.475450544755394056e+00
2.381697683645130681e+00
2.381697683645130681e+00
2.360322031311990809e+00
2.360322031311990809e+00
2.402885830256050514e+00
2.349634205145421095e+00
2.349634205145421095e+00
2.107001800592058771e+00
2.084126102481154597e+00
2.084126102481154597e+00
2.348696676534318240e+00
2.348696676534318240e+00
2.292069948423719250e+00
2.361447065645314147e+00
2.361447065645314147e+00
2.485013336588640875e+00
2.318883266701254442e+00
2.318883266701254442e+00
2.255318826868495830e+00
2.255318826868495830e+00
2.179941526535844165e+00
2.046812463759269729e+00
2.046812463759269729e+00
2.269006744590594149e+00
2.387322855311746483e+00
2.387322855311746483e+00
2.296757591479232197e+00
2.296757591479232197e+00
2.263756584368419311e+00
2.205442304757835537e+00
2.205442304757835537e+00
2.241630909146397510e+00
2.241630909146397510e+00
2.253631275368511044e+00
2.043812372203741567e+00
2.043812372203741567e+00
2.165878597369304437e+00
2.165878597369304437e+00
2.459325052644428578e+00
2.499826288644062977e+00
2.499826288644062977e+00
2.524952055421613384e+00
2.400635761589403838e+00
2.400635761589403838e+00
2.386197820978423145e+00
2.386197820978423145e+00
2.541452558977019383e+00
2.376447523422955843e+00
2.376447523422955843e+00
2.164003540147099169e+00
2.164003540147099169e+00
1.971435163426618287e+00
1.793304727317117875e+00
1.793304727317117875e+00
1.926246284371471162e+00
1.926246284371471162e+00
2.008748802148503376e+00
2.306132877590258534e+00
2.306132877590258534e+00
2.419761345255897922e+00
2.419761345255897922e+00
2.359572008423108880e+00
2.332571184423352761e+00
2.332571184423352761e+00
2.290944914090395912e+00
2.290944914090395912e+00
2.263381572923978347e+00
2.289632374034852091e+00
2.289632374034852091e+00
2.241818414868617992e+00
2.102501663258766751e+00
2.102501663258766751e+00
2.321695852534562121e+00
2.321695852534562121e+00
2.604266975920896066e+00
2.603141941587572727e+00
2.603141941587572727e+00
2.471700430310983521e+00
2.471700430310983521e+00
2.317945738090151586e+00
2.157253334147160473e+00
2.157253334147160473e+00
2.131940061647389140e+00
2.131940061647389140e+00
2.149753105258339403e+00
2.071563219092379615e+00
2.071563219092379615e+00
2.062375438703573760e+00
2.158753379924924776e+00
2.158753379924924776e+00
2.213692556535538980e+00
2.213692556535538980e+00
2.198504593035676358e+00
2.372697408978545752e+00
2.372697408978545752e+00
2.575203588976714197e+00
2.575203588976714197e+00
2.455199926755577522e+00
2.346634113589892490e+00
2.346634113589892490e+00
2.296570085757011714e+00
2.296570085757011714e+00
2.262444044312875935e+00
2.240318369090853690e+00
2.240318369090853690e+00
2.298445142979216982e+00
2.250631183812982439e+00
2.250631183812982439e+00
2.245943540757469048e+00
2.245943540757469048e+00
2.259443952757347329e+00
2.286632282479323930e+00
2.286632282479323930e+00
2.332571184423352761e+00
2.332571184423352761e+00
2.274819421979430434e+00
2.122752281258583285e+00
2.122752281258583285e+00
2.052250129703665493e+00
2.052250129703665493e+00
2.276319467757194737e+00
2.398948210089419053e+00
2.398948210089419053e+00
2.352446790978728330e+00
2.352446790978728330e+00
2.409073519089327764e+00
2.389385418256172233e+00
2.389385418256172233e+00
2.349259193700979687e+00
2.231693105868709726e+00
2.231693105868709726e+00
2.108876857814264483e+00
2.108876857814264483e+00
1.884807519760735017e+00
2.246693563646351421e+00
2.246693563646351421e+00
2.447887203588976490e+00
2.447887203588976490e+00
2.388635395367290304e+00
2.276319467757194737e+00
2.276319467757194737e+00
2.264131595812860720e+00
2.264131595812860720e+00
2.185191686758019003e+00
2.242568437757499922e+00
2.242568437757499922e+00
2.346071596423230599e+00
2.473387981810968306e+00
2.473387981810968306e+00
2.555140476699118146e+00
2.555140476699118146e+00
2.408511001922666317e+00
2.254943815424054865e+00
2.006498733481856700e+00
2.006498733481856700e+00
2.071750724814600098e+00
2.282507156590471986e+00
2.282507156590471986e+00
2.203567247535630269e+00
2.203567247535630269e+00
2.239568346201971760e+00
2.316633198034607766e+00
2.316633198034607766e+00
2.198129581591235393e+00
2.198129581591235393e+00
2.187441755424664791e+00
2.148440565202795582e+00
2.148440565202795582e+00
2.076063356425672080e+00
2.076063356425672080e+00
2.273694387646107540e+00
2.410573564867091623e+00
2.410573564867091623e+00
2.375509994811853431e+00
2.360509537034211291e+00
2.360509537034211291e+00
2.312133060701315301e+00
2.312133060701315301e+00
2.278194524979400004e+00
2.290382396923734465e+00
2.290382396923734465e+00
2.300507705923642732e+00
2.300507705923642732e+00
2.285319742423780109e+00
2.261506515701773079e+00
2.261506515701773079e+00
2.399323221533860018e+00
2.399323221533860018e+00
2.484825830866420393e+00
2.370447340311899076e+00
2.370447340311899076e+00
2.404948393200476264e+00
2.504701437421796406e+00
2.504701437421796406e+00
2.355634388256477418e+00
2.355634388256477418e+00
2.088813745536667987e+00
1.803992553483687811e+00
1.803992553483687811e+00
1.623799554429761649e+00
1.623799554429761649e+00
1.995810907315286764e+00
2.326383495590075512e+00
2.326383495590075512e+00
2.416573747978148834e+00
2.416573747978148834e+00
2.539014984588152668e+00
2.449762260811182202e+00
2.392010498367259874e+00
2.392010498367259874e+00
2.309882992034669069e+00
2.309882992034669069e+00
2.290194891201513983e+00
2.281007110812707683e+00
2.281007110812707683e+00
2.258131412701803509e+00
2.258131412701803509e+00
2.201692190313425002e+00
2.273506881923887057e+00
2.273506881923887057e+00
2.308007934812463802e+00
2.364822168645283273e+00
2.364822168645283273e+00
2.256068849757378203e+00
2.256068849757378203e+00
2.230005554368724940e+00
2.205067293313394572e+00
2.205067293313394572e+00
2.376635029145176325e+00
2.366697225867488541e+00
2.366697225867488541e+00
2.214630085146641392e+00
2.214630085146641392e+00
2.120314706869716570e+00
2.170941251869258792e+00
2.170941251869258792e+00
2.170191228980376863e+00
2.170191228980376863e+00
2.172441297647023095e+00
2.282694662312692468e+00
2.282694662312692468e+00
2.252131229590746742e+00
2.252131229590746742e+00
2.351509262367625919e+00
2.406823450422681532e+00
2.406823450422681532e+00
2.520826929532761884e+00
2.290944914090395912e+00
2.290944914090395912e+00
2.093876400036621899e+00
2.093876400036621899e+00
2.124627338480788552e+00
2.204129764702292160e+00
2.204129764702292160e+00
2.491013519699698087e+00
2.491013519699698087e+00
2.469637867366557771e+00
2.500763817255165389e+00
2.500763817255165389e+00
2.531889767143772563e+00
2.531889767143772563e+00
2.482763267921994643e+00
2.125752372814111890e+00
2.125752372814111890e+00
1.854619098483230255e+00
1.920433606982634878e+00
1.920433606982634878e+00
2.098939054536576698e+00
2.098939054536576698e+00
2.208254890591143660e+00
2.178628986480300345e+00
2.178628986480300345e+00
2.161378460036011973e+00
2.161378460036011973e+00
2.313820612201300086e+00
2.436261848811303921e+00
2.436261848811303921e+00
2.446574663533433114e+00
2.446574663533433114e+00
2.318695760979033516e+00
2.270319284646137969e+00
2.270319284646137969e+00
2.213880062257759462e+00
2.216130130924405695e+00
2.216130130924405695e+00
2.362384594256416559e+00
2.362384594256416559e+00
2.396135624256111374e+00
2.356009399700918827e+00
2.356009399700918827e+00
2.432136722922452865e+00
2.625642628254035937e+00
2.625642628254035937e+00
2.414886196478164049e+00
2.414886196478164049e+00
2.180879055146946577e+00
1.888932645649586517e+00
1.888932645649586517e+00
1.909745780816064942e+00
1.909745780816064942e+00
2.112064455092013571e+00
2.167566148869289222e+00
2.167566148869289222e+00
2.182941618091372327e+00
2.182941618091372327e+00
2.312133060701315301e+00
2.317570726645710621e+00
2.317570726645710621e+00
2.250631183812982439e+00
2.250631183812982439e+00
2.217630176702169997e+00
2.201692190313425002e+00
2.201692190313425002e+00
2.321320841090121156e+00
2.492138554033020981e+00
2.492138554033020981e+00
2.442824549089022579e+00
2.442824549089022579e+00
2.434386791589098653e+00
2.295257545701467894e+00
2.295257545701467894e+00
2.196817041535691573e+00
2.196817041535691573e+00
2.178066469313638454e+00
2.234318185979796478e+00
2.234318185979796478e+00
2.309882992034669069e+00
2.309882992034669069e+00
2.227567979979857782e+00
2.223067842646564873e+00
2.223067842646564873e+00
2.164191045869319652e+00
2.164191045869319652e+00
2.434949308755760100e+00
2.517451826532791870e+00
2.517451826532791870e+00
2.565078279976805931e+00
2.494013611255226248e+00
2.494013611255226248e+00
2.389572923978392716e+00
2.389572923978392716e+00
2.013811456648457288e+00
1.821805597094637852e+00
1.821805597094637852e+00
1.992435804315317194e+00
1.992435804315317194e+00
2.150503128147221332e+00
2.302382763145847999e+00
2.302382763145847999e+00
2.289257362590411127e+00
2.289257362590411127e+00
2.295070039979247412e+00
2.300882717368083696e+00
2.300882717368083696e+00
2.234880703146458369e+00
2.281569627979369130e+00
2.281569627979369130e+00
2.285507248146000592e+00
2.285507248146000592e+00
2.231130588702047834e+00
2.325445966978973100e+00
2.325445966978973100e+00
2.305945371868038052e+00
2.305945371868038052e+00
2.368384777367473326e+00
2.369697317423017147e+00
2.369697317423017147e+00
2.347009125034333454e+00
2.347009125034333454e+00
2.330133610034486047e+00
2.204129764702292160e+00
2.204129764702292160e+00
2.238818323313089387e+00
2.311758049256874337e+00
2.311758049256874337e+00
2.169253700369274007e+00
2.169253700369274007e+00
2.148628070925016065e+00
2.389197912533951751e+00
2.389197912533951751e+00
2.527014618366038690e+00
2.527014618366038690e+00
2.444512100589007364e+00
2.122752281258583285e+00
2.122752281258583285e+00
1.978372875148777910e+00
1.978372875148777910e+00
2.031999511703848516e+00
2.171878780480361648e+00
2.171878780480361648e+00
2.325258461256752618e+00
2.325258461256752618e+00
2.401385784478286212e+00
2.333696218756676100e+00
2.333696218756676100e+00
2.291507431257057803e+00
2.263006561479537382e+00
2.263006561479537382e+00
2.253443769646290562e+00
2.253443769646290562e+00
2.259068941312906365e+00
2.306507889034699499e+00
2.306507889034699499e+00
2.359009491256446989e+00
2.359009491256446989e+00
2.366697225867488541e+00
2.403823358867152926e+00
2.403823358867152926e+00
2.316633198034607766e+00
2.316633198034607766e+00
2.075875850703451597e+00
2.010998870815149164e+00
2.010998870815149164e+00
2.260943998535111632e+00
2.260943998535111632e+00
2.422198919644764192e+00
2.461012604144413807e+00
2.461012604144413807e+00
2.407573473311563461e+00
2.407573473311563461e+00
2.328258552812280335e+00
2.225880428479872997e+00
2.225880428479872997e+00
2.177691457869197489e+00
2.195316995757927270e+00
2.195316995757927270e+00
2.228505508590960638e+00
2.228505508590960638e+00
2.150878139591662741e+00
2.162691000091555793e+00
2.162691000091555793e+00
2.168878688924833043e+00
2.347571642200994901e+00
2.347571642200994901e+00
2.455574938200018487e+00
2.455574938200018487e+00
2.480700704977568893e+00
2.367634754478591397e+00
2.367634754478591397e+00
2.289069856868190644e+00
2.289069856868190644e+00
2.124252327036347587e+00
2.145065462202826012e+00
2.145065462202826012e+00
2.398948210089419053e+00
2.398948210089419053e+00
2.402698324533829588e+00
2.339508896145511940e+00
2.339508896145511940e+00
2.304632831812494231e+00
2.304632831812494231e+00
2.201129673146763555e+00
2.068750633259071936e+00
2.068750633259071936e+00
2.191379375591296252e+00
2.136627704702902530e+00
2.136627704702902530e+00
2.172066286202582130e+00
2.172066286202582130e+00
2.221942808313242423e+00
2.281569627979369130e+00
2.281569627979369130e+00
2.329571092867824156e+00
2.329571092867824156e+00
2.329008575701162709e+00
2.376447523422955843e+00
2.376447523422955843e+00
2.362384594256416559e+00
2.362384594256416559e+00
2.271069307535019899e+00
2.208254890591143660e+00
2.208254890591143660e+00
2.185941709646900932e+00
2.185941709646900932e+00
2.174503860591448845e+00
2.259443952757347329e+00
2.259443952757347329e+00
2.339508896145511940e+00
2.290944914090395912e+00
2.290944914090395912e+00
2.315133152256843907e+00
2.315133152256843907e+00
2.367259743034150432e+00
2.406260933256020085e+00
2.406260933256020085e+00
2.381885189367351607e+00
2.381885189367351607e+00
2.366509720145268059e+00
2.295257545701467894e+00
2.295257545701467894e+00
2.213692556535538980e+00
2.213692556535538980e+00
2.221380291146580532e+00
2.163066011535996758e+00
2.163066011535996758e+00
2.296195074312570750e+00
2.430449171422468080e+00
2.430449171422468080e+00
2.326195989867855030e+00
2.326195989867855030e+00
2.257381389812921579e+00
2.182754112369151844e+00
2.182754112369151844e+00
2.078500930814539238e+00
2.078500930814539238e+00
2.112439466536454535e+00
2.228693014313181120e+00
2.228693014313181120e+00
2.300882717368083696e+00
2.300882717368083696e+00
2.193441938535722002e+00
2.161190954313791490e+00
2.161190954313791490e+00
2.247631092257453833e+00
2.247631092257453833e+00
2.237505783257545566e+00
2.322070863979003530e+00
2.322070863979003530e+00
2.469075350199895880e+00
2.335946287423322332e+00
2.335946287423322332e+00
2.355446882534256936e+00
2.355446882534256936e+00
2.373447431867427682e+00
2.263006561479537382e+00
2.263006561479537382e+00
2.237880794701986531e+00
2.237880794701986531e+00
2.343634022034363884e+00
2.245943540757469048e+00
2.245943540757469048e+00
2.168503677480392078e+00
2.168503677480392078e+00
2.224755394146549659e+00
2.144315439313944083e+00
2.144315439313944083e+00
2.218942716757713818e+00
2.218942716757713818e+00
2.244631000701926116e+00
2.365759697256386129e+00
2.365759697256386129e+00
2.393135532700583212e+00
2.363697134311959935e+00
2.363697134311959935e+00
2.369509811700796664e+00
2.369509811700796664e+00
2.331633655812249906e+00
2.189691824091311467e+00
2.189691824091311467e+00
2.269569261757255596e+00
2.269569261757255596e+00
2.319070772423474924e+00
2.373447431867427682e+00
2.373447431867427682e+00
2.236380748924222672e+00
2.236380748924222672e+00
2.082063539536728847e+00
2.080000976592303541e+00
2.080000976592303541e+00
2.158753379924924776e+00
2.198504593035676358e+00
2.317945738090151586e+00
2.317945738090151586e+00
2.398760704367198571e+00
2.398760704367198571e+00
2.415448713644825496e+00
2.336508804589983779e+00
2.336508804589983779e+00
2.339883907589953349e+00
2.339883907589953349e+00
2.311570543534653854e+00
2.305570360423596643e+00
2.305570360423596643e+00
2.227380474257637299e+00
2.129877498702963390e+00
2.129877498702963390e+00
2.099501571703238145e+00
2.099501571703238145e+00
2.147503036591693171e+00
2.318883266701254442e+00
2.318883266701254442e+00
2.357509445478682686e+00
2.357509445478682686e+00
2.321695852534562121e+00
2.350384228034303025e+00
2.350384228034303025e+00
2.376635029145176325e+00
2.376635029145176325e+00
2.430636677144688562e+00
2.564890774254585448e+00
2.564890774254585448e+00
2.513889217810602261e+00
2.513889217810602261e+00
2.247068575090792386e+00
2.281007110812707683e+00
2.281007110812707683e+00
2.086938688314462720e+00
1.994123355815301979e+00
1.994123355815301979e+00
2.001998596148564236e+00
2.001998596148564236e+00
2.143752922147282192e+00
2.209379924924466998e+00
2.209379924924466998e+00
2.247068575090792386e+00
2.247068575090792386e+00
2.350009216589862060e+00
2.397823175756096159e+00
2.397823175756096159e+00
2.365947202978606612e+00
2.365947202978606612e+00
2.308382946256904766e+00
2.243880977813043742e+00
2.243880977813043742e+00
2.244631000701926116e+00
2.346071596423230599e+00
2.346071596423230599e+00
2.498513748588519157e+00
2.466075258644368162e+00
2.466075258644368162e+00
2.282319650868251504e+00
2.027686880092776089e+00
2.027686880092776089e+00
1.919121066927091501e+00
1.919121066927091501e+00
2.058062807092501334e+00
2.191191869869075770e+00
2.191191869869075770e+00
2.218567705313272853e+00
2.333133701590014208e+00
2.333133701590014208e+00
2.395948118533890892e+00
2.395948118533890892e+00
2.353571825312051669e+00
2.317008209479048730e+00
2.317008209479048730e+00
2.306320383312479017e+00
2.306320383312479017e+00
2.294320017090365038e+00
2.260381481368449741e+00
2.260381481368449741e+00
2.311570543534653854e+00
2.311570543534653854e+00
2.319445783867915889e+00
2.223067842646564873e+00
2.223067842646564873e+00
2.142440382091738371e+00
2.208254890591143660e+00
2.208254890591143660e+00
2.248943632312997654e+00
2.248943632312997654e+00
2.291319925534837321e+00
2.331258644367808941e+00
2.331258644367808941e+00
2.309882992034669069e+00
2.309882992034669069e+00
2.343259010589922919e+00
2.371009857478560967e+00
2.371009857478560967e+00
2.269569261757255596e+00
2.269569261757255596e+00
2.191941892757957699e+00
2.261694021423993561e+00
2.261694021423993561e+00
2.258131412701803509e+00
2.310820520645771925e+00
2.310820520645771925e+00
2.225317911313211550e+00
2.225317911313211550e+00
2.232255623035371173e+00
2.255881344035157721e+00
2.255881344035157721e+00
2.366697225867488541e+00
2.366697225867488541e+00
2.464950224311044824e+00
2.504138920255134515e+00
2.504138920255134515e+00
2.533014801477095901e+00
2.533014801477095901e+00
2.365947202978606612e+00
2.156503311258278099e+00
2.156503311258278099e+00
1.978747886593218652e+00
1.929246375926999768e+00
1.929246375926999768e+00
2.160440931424909561e+00
2.160440931424909561e+00
2.268631733146153184e+00
2.295070039979247412e+00
2.295070039979247412e+00
2.292257454145939732e+00
2.292257454145939732e+00
2.258693929868464956e+00
2.210692464980010374e+00
2.210692464980010374e+00
2.215942625202185212e+00
2.305007843256935196e+00
2.305007843256935196e+00
2.391072969756157018e+00
2.391072969756157018e+00
2.317195715201269657e+00
2.327696035645618888e+00
2.327696035645618888e+00
2.323008392590105942e+00
2.323008392590105942e+00
2.288694845423749680e+00
2.286632282479323930e+00
2.286632282479323930e+00
2.254756309701834383e+00
2.128564958647419569e+00
2.128564958647419569e+00
2.136252693258461566e+00
2.136252693258461566e+00
2.229630542924283532e+00
2.344759056367687222e+00
2.344759056367687222e+00
2.429886654255806189e+00
2.429886654255806189e+00
2.494201116977446731e+00
2.473387981810968306e+00
2.473387981810968306e+00
2.269194250312814631e+00
2.269194250312814631e+00
2.122377269814142320e+00
2.068938138981292418e+00
2.068938138981292418e+00
2.129127475814081016e+00
2.143940427869502674e+00
2.143940427869502674e+00
2.233193151646474028e+00
2.233193151646474028e+00
2.266006653035065987e+00
2.234505691702016961e+00
2.234505691702016961e+00
2.324133426923429280e+00
2.324133426923429280e+00
2.312695577867977192e+00
2.253443769646290562e+00
2.253443769646290562e+00
2.315133152256843907e+00
2.315133152256843907e+00
2.318133243812372069e+00
2.266944181646168399e+00
2.266944181646168399e+00
2.358446974089785542e+00
2.358446974089785542e+00
2.275756950590533290e+00
2.212380016479995160e+00
2.212380016479995160e+00
2.141877864925076924e+00
2.269006744590594149e+00
2.269006744590594149e+00
2.449199743644520311e+00
2.449199743644520311e+00
2.389010406811731269e+00
2.267131687368389326e+00
2.267131687368389326e+00
2.202067201757865966e+00
2.202067201757865966e+00
2.246693563646351421e+00
2.240880886257515137e+00
2.240880886257515137e+00
2.293757499923703591e+00
2.293757499923703591e+00
2.315133152256843907e+00
2.307257911923581428e+00
2.307257911923581428e+00
2.307070406201360946e+00
2.288319833979308715e+00
2.288319833979308715e+00
2.327133518478957885e+00
2.327133518478957885e+00
2.266944181646168399e+00
2.223067842646564873e+00
2.223067842646564873e+00
2.159878414258247670e+00
2.159878414258247670e+00
2.189691824091311467e+00
2.228880520035401602e+00
2.228880520035401602e+00
2.132877590258491995e+00
2.132877590258491995e+00
2.232255623035371173e+00
2.368759788811914291e+00
2.368759788811914291e+00
2.408511001922666317e+00
2.438511917477950597e+00
2.438511917477950597e+00
2.394260567033906106e+00
2.394260567033906106e+00
2.338383861812189490e+00
2.192879421369060555e+00
2.192879421369060555e+00
2.148628070925016065e+00
2.148628070925016065e+00
2.166816125980407293e+00
2.219880245368816230e+00
2.219880245368816230e+00
2.279319559312723342e+00
2.279319559312723342e+00
2.293194982757042144e+00
2.277069490646077110e+00
2.277069490646077110e+00
2.220817773979919085e+00
2.206942350535599839e+00
2.206942350535599839e+00
2.339133884701071420e+00
2.339133884701071420e+00
2.334633747367778511e+00
2.275006927701650916e+00
2.275006927701650916e+00
2.299757683034760802e+00
2.299757683034760802e+00
2.382260200811792572e+00
2.339321390423291458e+00
2.339321390423291458e+00
2.210317453535568966e+00
2.210317453535568966e+00
2.117502121036408447e+00
2.117877132480849411e+00
2.117877132480849411e+00
2.217630176702169997e+00
2.217630176702169997e+00
2.271444318979460864e+00
2.243693472090823260e+00
2.243693472090823260e+00
2.274256904812768987e+00
2.339883907589953349e+00
2.339883907589953349e+00
2.308757957701345731e+00
2.308757957701345731e+00
2.341758964812158617e+00
2.346634113589892490e+00
2.346634113589892490e+00
2.358259468367565059e+00
2.358259468367565059e+00
2.380760155034028269e+00
2.284194708090456771e+00
2.284194708090456771e+00
2.214255073702200427e+00
2.164378551591540134e+00
2.164378551591540134e+00
2.239755851924192243e+00
2.239755851924192243e+00
2.257568895535142062e+00
2.239380840479750834e+00
2.239380840479750834e+00
2.119002166814172750e+00
2.119002166814172750e+00
2.047187475203710694e+00
2.224755394146549659e+00
2.224755394146549659e+00
2.298070131534776017e+00
2.298070131534776017e+00
2.409636036255989211e+00
2.388822901089510786e+00
2.388822901089510786e+00
2.379447614978484449e+00
2.395385601367229444e+00
2.395385601367229444e+00
2.383572740867336393e+00
2.383572740867336393e+00
2.314383129367961978e+00
2.273131870479445649e+00
2.273131870479445649e+00
2.186879238258003344e+00
2.186879238258003344e+00
2.135127658925138228e+00
2.196254524369030126e+00
2.196254524369030126e+00
2.201504684591204519e+00
2.201504684591204519e+00
2.154065736869411385e+00
2.222317819757682944e+00
2.222317819757682944e+00
2.370259834589678594e+00
2.370259834589678594e+00
2.285882259590441556e+00
2.319820795312356854e+00
2.319820795312356854e+00
2.399135715811639535e+00
2.422948942533646566e+00
2.422948942533646566e+00
2.477700613422040732e+00
2.477700613422040732e+00
2.531889767143772563e+00
2.471325418866542556e+00
2.471325418866542556e+00
2.249318643757439062e+00
2.249318643757439062e+00
2.051125095370342155e+00
1.921933652760399180e+00
1.921933652760399180e+00
1.881807428205206412e+00
1.881807428205206412e+00
2.068188116092410045e+00
2.255506332590716312e+00
2.255506332590716312e+00
2.308007934812463802e+00
2.308007934812463802e+00
2.278569536423841413e+00
2.328633564256721744e+00
2.328633564256721744e+00
2.383197729422894984e+00
2.345884090701010116e+00
2.345884090701010116e+00
2.318883266701254442e+00
2.318883266701254442e+00
2.254006286812952009e+00
2.181254066591387542e+00
2.181254066591387542e+00
2.271631824701681346e+00
2.271631824701681346e+00
2.348884182256538722e+00
2.285132236701559627e+00
2.285132236701559627e+00
2.223442854091006282e+00
2.223442854091006282e+00
2.233568163090914993e+00
2.306695394756919981e+00
2.306695394756919981e+00
2.395573107089449927e+00
2.369322305978576182e+00
2.369322305978576182e+00
2.314945646534623425e+00
2.314945646534623425e+00
2.141690359202856442e+00
2.135690176091799675e+00
2.135690176091799675e+00
2.229255531479842567e+00
2.229255531479842567e+00
2.287757316812646824e+00
2.316445692312387283e+00
2.316445692312387283e+00
2.323758415478988315e+00
2.323758415478988315e+00
2.233380657368694511e+00
2.237505783257545566e+00
2.237505783257545566e+00
2.246881069368571904e+00
2.246881069368571904e+00
2.238630817590868904e+00
2.279882076479384789e+00
2.279882076479384789e+00
2.346259102145451525e+00
2.359009491256446989e+00
2.359009491256446989e+00
2.378697592089602519e+00
2.378697592089602519e+00
2.302007751701407035e+00
2.269006744590594149e+00
2.269006744590594149e+00
2.212005005035553751e+00
2.212005005035553751e+00
2.284944730979339145e+00
2.296570085757011714e+00
2.296570085757011714e+00
2.250443678090761956e+00
2.250443678090761956e+00
2.152940702536088047e+00
2.063500473036897098e+00
2.063500473036897098e+00
2.138315256202887316e+00
2.275006927701650916e+00
2.275006927701650916e+00
2.319258278145695407e+00
2.319258278145695407e+00
2.343821527756584366e+00
2.388072878200628413e+00
2.388072878200628413e+00
2.365197180089724238e+00
2.365197180089724238e+00
2.330508621478927012e+00
2.263381572923978347e+00
2.263381572923978347e+00
2.185004181035798521e+00
2.185004181035798521e+00
2.166628620258186366e+00
2.145252967925046494e+00
2.145252967925046494e+00
2.266006653035065987e+00
2.242005920590838475e+00
2.242005920590838475e+00
2.263194067201757864e+00
2.263194067201757864e+00
2.338383861812189490e+00
2.341758964812158617e+00
2.341758964812158617e+00
2.350571733756523507e+00
2.350571733756523507e+00
2.370822351756340485e+00
2.379072603534043484e+00
2.379072603534043484e+00
2.231693105868709726e+00
2.231693105868709726e+00
2.201504684591204519e+00
2.217255165257729033e+00
2.217255165257729033e+00
2.234505691702016961e+00
2.258506424146244473e+00
2.258506424146244473e+00
2.255131321146275347e+00
2.255131321146275347e+00
2.310820520645771925e+00
2.218567705313272853e+00
2.218567705313272853e+00
2.191566881313516735e+00
2.191566881313516735e+00
2.295820062868129341e+00
2.342696493423261028e+00
2.342696493423261028e+00
2.264881618701742649e+00
2.264881618701742649e+00
2.253631275368511044e+00
2.301820245979186552e+00
2.301820245979186552e+00
2.314383129367961978e+00
2.314383129367961978e+00
2.377197546311838217e+00
2.446012146366771223e+00
2.446012146366771223e+00
2.393135532700583212e+00
2.315508163701284872e+00
2.315508163701284872e+00
2.164378551591540134e+00
2.164378551591540134e+00
2.109439374980925930e+00
2.068938138981292418e+00
2.068938138981292418e+00
2.073250770592364400e+00
2.073250770592364400e+00
2.189504318369090985e+00
2.297320108645893644e+00
2.297320108645893644e+00
2.350946745200964472e+00
2.470387890255439700e+00
2.470387890255439700e+00
2.484825830866420393e+00
2.484825830866420393e+00
2.371384868923001932e+00
2.272569353312784202e+00
2.272569353312784202e+00
2.162878505813776275e+00
2.162878505813776275e+00
2.101751640369884377e+00
2.116002075258644588e+00
2.116002075258644588e+00
2.215755119479964730e+00
2.215755119479964730e+00
2.249131138035218136e+00
2.232818140202032620e+00
2.232818140202032620e+00
2.226255439924313961e+00
2.226255439924313961e+00
2.322070863979003530e+00
2.321320841090121156e+00
2.321320841090121156e+00
2.384885280922879769e+00
2.390135441145054607e+00
2.390135441145054607e+00
2.364634662923062791e+00
2.364634662923062791e+00
2.288507339701529197e+00
2.260193975646229259e+00
2.260193975646229259e+00
2.215192602313302839e+00
2.215192602313302839e+00
2.227380474257637299e+00
2.206942350535599839e+00
2.206942350535599839e+00
2.140565324869533104e+00
2.140565324869533104e+00
2.143377910702841227e+00
2.194379467146824858e+00
2.194379467146824858e+00
2.300507705923642732e+00
2.300507705923642732e+00
2.351884273812066883e+00
2.301445234534745587e+00
2.301445234534745587e+00
2.253631275368511044e+00
2.253631275368511044e+00
2.263944090090640238e+00
2.320195806756797818e+00
2.320195806756797818e+00
2.365197180089724238e+00
2.365197180089724238e+00
2.385072786645100695e+00
2.372884914700766235e+00
2.372884914700766235e+00
2.329196081423383191e+00
2.247443586535233351e+00
2.247443586535233351e+00
2.137940244758446351e+00
2.137940244758446351e+00
2.078688436536759720e+00
2.143940427869502674e+00
2.143940427869502674e+00
2.230005554368724940e+00
2.230005554368724940e+00
2.250443678090761956e+00
2.348696676534318240e+00
2.348696676534318240e+00
2.361822077089755112e+00
2.350384228034303025e+00
2.350384228034303025e+00
2.446387157811212187e+00
2.446387157811212187e+00
2.474700521866512126e+00
2.329196081423383191e+00
2.329196081423383191e+00
2.215380108035523765e+00
2.215380108035523765e+00
2.052437635425885976e+00
2.007436262092959556e+00
2.007436262092959556e+00
2.104189214758751536e+00
2.104189214758751536e+00
2.175816400646992221e+00
2.216880153813287624e+00
2.216880153813287624e+00
2.372134891811884305e+00
2.452012329477828434e+00
2.452012329477828434e+00
2.379822626422925413e+00
2.379822626422925413e+00
2.352821802423169739e+00
2.215380108035523765e+00
2.215380108035523765e+00
2.116189580980865070e+00
2.116189580980865070e+00
2.162128482924894346e+00
2.213317545091097571e+00
2.213317545091097571e+00
2.255881344035157721e+00
2.255881344035157721e+00
2.272381847590563719e+00
2.280632099368266719e+00
2.280632099368266719e+00
2.241443403424177028e+00
2.241443403424177028e+00
2.265819147312845505e+00
2.259256447035126847e+00
2.259256447035126847e+00
2.297695120090334608e+00
2.284382213812677254e+00
2.284382213812677254e+00
2.312508072145756710e+00
2.312508072145756710e+00
2.433449262977995797e+00
2.465325235755485789e+00
2.465325235755485789e+00
2.355634388256477418e+00
2.355634388256477418e+00
2.169628711813714972e+00
2.153690725424969976e+00
2.153690725424969976e+00
2.214817590868861874e+00
2.214817590868861874e+00
2.212005005035553751e+00
2.285132236701559627e+00
2.285132236701559627e+00
2.295820062868129341e+00
2.295820062868129341e+00
2.264506607257301685e+00
2.260943998535111632e+00
2.260943998535111632e+00
2.299382671590319838e+00
2.296195074312570750e+00
2.296195074312570750e+00
2.290007385479293500e+00
2.290007385479293500e+00
2.334446241645558029e+00
2.324883449812311209e+00
2.324883449812311209e+00
2.308945463423566213e+00
2.308945463423566213e+00
2.298820154423657947e+00
2.271256813257240381e+00
2.271256813257240381e+00
2.212005005035553751e+00
2.212005005035553751e+00
2.138690267647328280e+00
2.142252876369517889e+00
2.142252876369517889e+00
2.184066652424695665e+00
2.215567613757744247e+00
2.215567613757744247e+00
2.357509445478682686e+00
2.357509445478682686e+00
2.380385143589587305e+00
2.377385052034058699e+00
2.377385052034058699e+00
2.381135166478469234e+00
2.381135166478469234e+00
2.286069765312662039e+00
2.193629444257942485e+00
2.193629444257942485e+00
2.228505508590960638e+00
2.228505508590960638e+00
2.235443220313119816e+00
2.215567613757744247e+00
2.215567613757744247e+00
2.237318277535325084e+00
2.237318277535325084e+00
2.196817041535691573e+00
2.173378826258125951e+00
2.173378826258125951e+00
2.190816858424634361e+00
2.248006103701895242e+00
2.248006103701895242e+00
2.354509353923154524e+00
2.354509353923154524e+00
2.422011413922543710e+00
2.430449171422468080e+00
2.430449171422468080e+00
2.373447431867427682e+00
2.373447431867427682e+00
2.223067842646564873e+00
2.126127384258552855e+00
2.126127384258552855e+00
2.101376628925443413e+00
2.101376628925443413e+00
2.187254249702444309e+00
2.241443403424177028e+00
2.241443403424177028e+00
2.243693472090823260e+00
2.243693472090823260e+00
2.230568071535386387e+00
2.254756309701834383e+00
2.254756309701834383e+00
2.251381206701864812e+00
2.321695852534562121e+00
2.321695852534562121e+00
2.382260200811792572e+00
2.382260200811792572e+00
2.313445600756859122e+00
2.279319559312723342e+00
2.279319559312723342e+00
2.217442670979949515e+00
2.217442670979949515e+00
2.209192419202246516e+00
2.185379192480239485e+00
2.185379192480239485e+00
2.230943082979827352e+00
2.319445783867915889e+00
2.319445783867915889e+00
2.286257271034882521e+00
2.286257271034882521e+00
2.262444044312875935e+00
2.262819055757316900e+00
2.262819055757316900e+00
2.256068849757378203e+00
2.256068849757378203e+00
2.264881618701742649e+00
2.215005096591082356e+00
2.215005096591082356e+00
2.265819147312845505e+00
2.265819147312845505e+00
2.455762443922238969e+00
2.557203039643543896e+00
2.557203039643543896e+00
2.428011597033600921e+00
2.428011597033600921e+00
2.362197088534196077e+00
2.162691000091555793e+00
2.162691000091555793e+00
2.022436719870601696e+00
2.074938322092349186e+00
2.074938322092349186e+00
2.133252601702932960e+00
2.133252601702932960e+00
2.161940977202673420e+00
2.232443128757591655e+00
2.232443128757591655e+00
2.233755668813135031e+00
2.233755668813135031e+00
2.247068575090792386e+00
2.251756218146305777e+00
2.251756218146305777e+00
2.314570635090182460e+00
2.314570635090182460e+00
2.297507614368114126e+00
2.288319833979308715e+00
2.288319833979308715e+00
2.347946653645436310e+00
2.347946653645436310e+00
2.305382854701376161e+00
2.350009216589862060e+00
2.350009216589862060e+00
2.335383770256660885e+00
2.313445600756859122e+00
2.313445600756859122e+00
2.203192236091189304e+00
2.203192236091189304e+00
2.227192968535416817e+00
2.262444044312875935e+00
2.262444044312875935e+00
2.166441114535965884e+00
2.166441114535965884e+00
2.189879329813531950e+00
2.292819971312600735e+00
2.292819971312600735e+00
2.353571825312051669e+00
2.364822168645283273e+00
2.364822168645283273e+00
2.322633381145664977e+00
2.322633381145664977e+00
2.318320749534592551e+00
2.336321298867763296e+00
2.336321298867763296e+00
2.262256538590655452e+00
2.262256538590655452e+00
2.194754478591265823e+00
2.190816858424634361e+00
2.190816858424634361e+00
2.265069124423963132e+00
2.265069124423963132e+00
2.236193243202001746e+00
2.233005645924253102e+00
2.233005645924253102e+00
2.205067293313394572e+00
2.205067293313394572e+00
2.161003448591571008e+00
2.195316995757927270e+00
2.195316995757927270e+00
2.237505783257545566e+00
2.189129306924649576e+00
2.189129306924649576e+00
2.157815851313821920e+00
2.157815851313821920e+00
2.296945097201452679e+00
2.360884548478652700e+00
2.360884548478652700e+00
2.380947660756248752e+00
2.380947660756248752e+00
2.345696584978789634e+00
2.308570451979125249e+00
2.308570451979125249e+00
2.282694662312692468e+00
2.282694662312692468e+00
2.293757499923703591e+00
2.292632465590380253e+00
2.292632465590380253e+00
2.306132877590258534e+00
2.306132877590258534e+00
2.326571001312295994e+00
2.322820886867885459e+00
2.322820886867885459e+00
2.267881710257271255e+00
2.257193884090700653e+00
2.257193884090700653e+00
2.187816766869105756e+00
2.187816766869105756e+00
2.221005279702139568e+00
2.244068483535264225e+00
2.244068483535264225e+00
2.251006195257423848e+00
2.251006195257423848e+00
2.252318735312967224e+00
2.258881435590685438e+00
2.258881435590685438e+00
2.272756859035004684e+00
2.272756859035004684e+00
2.279882076479384789e+00
2.251943723868526259e+00
2.251943723868526259e+00
2.204879787591174090e+00
2.204879787591174090e+00
2.201692190313425002e+00
2.192879421369060555e+00
2.192879421369060555e+00
2.341008941923276243e+00
2.375322489089632505e+00
2.299757683034760802e+00
2.299757683034760802e+00
2.303882808923612302e+00
2.303882808923612302e+00
2.318320749534592551e+00
2.272381847590563719e+00
2.272381847590563719e+00
2.266756675923947917e+00
2.236568254646443155e+00
2.236568254646443155e+00
2.228318002868740155e+00
2.228318002868740155e+00
2.235630726035340299e+00
2.234880703146458369e+00
2.234880703146458369e+00
2.285132236701559627e+00
2.285132236701559627e+00
2.332758690145573244e+00
2.366697225867488541e+00
2.366697225867488541e+00
2.385447798089541660e+00
2.385447798089541660e+00
2.265819147312845505e+00
2.200379650257881181e+00
2.200379650257881181e+00
2.214442579424420909e+00
2.286257271034882521e+00
2.286257271034882521e+00
2.318695760979033516e+00
2.318695760979033516e+00
2.284382213812677254e+00
2.240693380535294654e+00
2.240693380535294654e+00
2.190441846980193397e+00
2.190441846980193397e+00
2.144502945036164565e+00
2.149190588091677956e+00
2.149190588091677956e+00
2.240130863368633207e+00
2.240130863368633207e+00
2.305382854701376161e+00
2.295632557145908859e+00
2.295632557145908859e+00
2.265069124423963132e+00
2.265069124423963132e+00
2.274819421979430434e+00
2.321508346812341639e+00
2.321508346812341639e+00
2.349821710867641578e+00
2.333133701590014208e+00
2.333133701590014208e+00
2.267506698812830290e+00
2.267506698812830290e+00
2.253631275368511044e+00
2.221192785424360050e+00
2.206567339091158875e+00
2.206567339091158875e+00
2.243505966368602778e+00
2.236005737479781263e+00
2.236005737479781263e+00
2.257943906979583026e+00
2.257943906979583026e+00
2.289444868312631609e+00
2.275756950590533290e+00
2.275756950590533290e+00
2.263006561479537382e+00
2.263006561479537382e+00
2.255318826868495830e+00
2.240505874813074172e+00
2.240505874813074172e+00
2.273131870479445649e+00
2.273131870479445649e+00
2.251568712424085295e+00
2.307632923368022837e+00
2.307632923368022837e+00
2.336508804589983779e+00
2.275194433423871843e+00
2.275194433423871843e+00
2.230755577257606870e+00
2.230755577257606870e+00
2.170566240424817828e+00
2.182004089480269915e+00
2.182004089480269915e+00
2.213692556535538980e+00
2.271069307535019899e+00
2.271069307535019899e+00
2.356384411145359792e+00
2.356384411145359792e+00
2.393698049867244659e+00
2.347384136478774419e+00
2.347384136478774419e+00
2.302570268868068482e+00
2.302570268868068482e+00
2.261131504257332114e+00
2.229630542924283532e+00
2.229630542924283532e+00
2.254381298257393418e+00
2.254381298257393418e+00
2.224567888424329176e+00
2.221942808313242423e+00
2.221942808313242423e+00
2.215192602313302839e+00
2.125002349925229961e+00
2.125002349925229961e+00
2.283819696646015807e+00
2.283819696646015807e+00
2.407198461867122496e+00
2.489325968199713301e+00
2.489325968199713301e+00
2.465700247199926753e+00
2.465700247199926753e+00
2.327883541367839371e+00
2.251193700979644330e+00
2.251193700979644330e+00
2.184629169591357556e+00
2.184629169591357556e+00
2.245193517868587563e+00
2.201879696035645484e+00
2.201879696035645484e+00
2.218192693868831444e+00
2.262256538590655452e+00
2.262256538590655452e+00
2.280444593646046680e+00
2.280444593646046680e+00
2.329383587145603673e+00
2.263569078646198829e+00
2.263569078646198829e+00
2.246506057924130939e+00
2.246506057924130939e+00
2.231318094424268317e+00
2.196067018646809643e+00
2.196067018646809643e+00
2.161003448591571008e+00
2.160440931424909561e+00
2.160440931424909561e+00
2.231318094424268317e+00
2.231318094424268317e+00
2.267319193090609808e+00
2.282882168034912951e+00
2.282882168034912951e+00
2.332571184423352761e+00
2.332571184423352761e+00
2.333321207312235135e+00
2.284569719534897736e+00
2.284569719534897736e+00
2.251568712424085295e+00
2.251568712424085295e+00
2.215567613757744247e+00
2.206754844813379357e+00
2.206754844813379357e+00
2.240880886257515137e+00
2.325070955534531691e+00
2.325070955534531691e+00
2.364822168645283273e+00
2.364822168645283273e+00
2.344946562089907705e+00
2.287757316812646824e+00
2.287757316812646824e+00
2.240318369090853690e+00
2.240318369090853690e+00
