2.212380016479995160e+00
2.212380016479995160e+00
2.212380016479995160e+00
2.260568987090670667e+00
2.260568987090670667e+00
2.260568987090670667e+00
2.260568987090670667e+00
2.284944730979339145e+00
2.284944730979339145e+00
2.284944730979339145e+00
2.314570635090182460e+00
2.314570635090182460e+00
2.314570635090182460e+00
2.330883632923367976e+00
2.330883632923367976e+00
2.330883632923367976e+00
2.330883632923367976e+00
2.311758049256874337e+00
2.311758049256874337e+00
2.311758049256874337e+00
2.278194524979400004e+00
2.278194524979400004e+00
2.278194524979400004e+00
2.278194524979400004e+00
2.267881710257271255e+00
2.267881710257271255e+00
2.267881710257271255e+00
2.258881435590685438e+00
2.258881435590685438e+00
2.258881435590685438e+00
2.258881435590685438e+00
2.250818689535202921e+00
2.250818689535202921e+00
2.250818689535202921e+00
2.236943266090884119e+00
2.236943266090884119e+00
2.236943266090884119e+00
2.231130588702047834e+00
2.231130588702047834e+00
2.231130588702047834e+00
2.231130588702047834e+00
2.219130222479934300e+00
2.219130222479934300e+00
2.219130222479934300e+00
2.197942075869014911e+00
2.197942075869014911e+00
2.197942075869014911e+00
2.197942075869014911e+00
2.241818414868617992e+00
2.241818414868617992e+00
2.241818414868617992e+00
2.276506973479415219e+00
2.276506973479415219e+00
2.276506973479415219e+00
2.289632374034852091e+00
2.289632374034852091e+00
2.289632374034852091e+00
2.289632374034852091e+00
2.320570818201239227e+00
2.320570818201239227e+00
2.320570818201239227e+00
2.309320474868007622e+00
2.309320474868007622e+00
2.309320474868007622e+00
2.309320474868007622e+00
2.275006927701650916e+00
2.275006927701650916e+00
2.275006927701650916e+00
2.265256630146183614e+00
2.265256630146183614e+00
2.265256630146183614e+00
2.265256630146183614e+00
2.249131138035218136e+00
2.249131138035218136e+00
2.249131138035218136e+00
2.242193426313058957e+00
2.242193426313058957e+00
2.242193426313058957e+00
2.242193426313058957e+00
2.250256172368541474e+00
2.250256172368541474e+00
2.250256172368541474e+00
2.231505600146489243e+00
2.231505600146489243e+00
2.231505600146489243e+00
2.230568071535386387e+00
2.230568071535386387e+00
2.230568071535386387e+00
2.230568071535386387e+00
2.216505142368846659e+00
2.216505142368846659e+00
2.216505142368846659e+00
2.225130405590991067e+00
2.225130405590991067e+00
2.225130405590991067e+00
2.277444502090518075e+00
2.277444502090518075e+00
2.277444502090518075e+00
2.292632465590380253e+00
2.292632465590380253e+00
2.292632465590380253e+00
2.297132602923673161e+00
2.297132602923673161e+00
2.297132602923673161e+00
2.297132602923673161e+00
2.315133152256843907e+00
2.315133152256843907e+00
2.315133152256843907e+00
2.298632648701437464e+00
2.298632648701437464e+00
2.298632648701437464e+00
2.298632648701437464e+00
2.260381481368449741e+00
2.260381481368449741e+00
2.260381481368449741e+00
2.248943632312997654e+00
2.248943632312997654e+00
2.248943632312997654e+00
2.234318185979796478e+00
2.234318185979796478e+00
2.234318185979796478e+00
2.234318185979796478e+00
2.240693380535294654e+00
2.240693380535294654e+00
2.240693380535294654e+00
2.234693197424237443e+00
2.234693197424237443e+00
2.234693197424237443e+00
2.234693197424237443e+00
2.230005554368724940e+00
2.230005554368724940e+00
2.230005554368724940e+00
2.236568254646443155e+00
2.236568254646443155e+00
2.236568254646443155e+00
2.209754936368907963e+00
2.209754936368907963e+00
2.209754936368907963e+00
2.233005645924253102e+00
2.233005645924253102e+00
2.233005645924253102e+00
2.233005645924253102e+00
2.270881801812799416e+00
2.270881801812799416e+00
2.270881801812799416e+00
2.296945097201452679e+00
2.296945097201452679e+00
2.296945097201452679e+00
2.296945097201452679e+00
2.326946012756737403e+00
2.326946012756737403e+00
2.326946012756737403e+00
2.336883816034425188e+00
2.336883816034425188e+00
2.336883816034425188e+00
2.336883816034425188e+00
2.313633106479079604e+00
2.313633106479079604e+00
2.313633106479079604e+00
2.261881527146214044e+00
2.261881527146214044e+00
2.261881527146214044e+00
2.242943449201941331e+00
2.242943449201941331e+00
2.242943449201941331e+00
2.242943449201941331e+00
2.236380748924222672e+00
2.236380748924222672e+00
2.236380748924222672e+00
2.231318094424268317e+00
2.231318094424268317e+00
2.231318094424268317e+00
2.231318094424268317e+00
2.212380016479995160e+00
2.212380016479995160e+00
2.212380016479995160e+00
2.221380291146580532e+00
2.221380291146580532e+00
2.221380291146580532e+00
2.215567613757744247e+00
2.215567613757744247e+00
2.215567613757744247e+00
2.215567613757744247e+00
2.197942075869014911e+00
2.197942075869014911e+00
2.197942075869014911e+00
2.241255897701956545e+00
2.241255897701956545e+00
2.241255897701956545e+00
2.289069856868190644e+00
2.289069856868190644e+00
2.289069856868190644e+00
2.289069856868190644e+00
2.311008026367992407e+00
2.311008026367992407e+00
2.311008026367992407e+00
2.328258552812280335e+00
2.328258552812280335e+00
2.328258552812280335e+00
2.328258552812280335e+00
2.331446150090029423e+00
2.331446150090029423e+00
2.331446150090029423e+00
2.308945463423566213e+00
2.308945463423566213e+00
2.308945463423566213e+00
2.308945463423566213e+00
2.274631916257209951e+00
2.274631916257209951e+00
2.274631916257209951e+00
2.261881527146214044e+00
2.261881527146214044e+00
2.261881527146214044e+00
2.259818964201788294e+00
2.259818964201788294e+00
2.259818964201788294e+00
2.259818964201788294e+00
2.254381298257393418e+00
2.254381298257393418e+00
2.254381298257393418e+00
2.232255623035371173e+00
2.232255623035371173e+00
2.232255623035371173e+00
2.232255623035371173e+00
2.222130314035462462e+00
2.222130314035462462e+00
2.222130314035462462e+00
2.197004547257912055e+00
2.197004547257912055e+00
2.197004547257912055e+00
2.197004547257912055e+00
2.185379192480239485e+00
2.185379192480239485e+00
2.185379192480239485e+00
2.235068208868678852e+00
2.235068208868678852e+00
2.235068208868678852e+00
2.269944273201696561e+00
2.269944273201696561e+00
2.269944273201696561e+00
2.269944273201696561e+00
2.282694662312692468e+00
2.282694662312692468e+00
2.282694662312692468e+00
2.308570451979125249e+00
2.308570451979125249e+00
2.308570451979125249e+00
2.308570451979125249e+00
2.311570543534653854e+00
2.311570543534653854e+00
2.311570543534653854e+00
2.285319742423780109e+00
2.285319742423780109e+00
2.285319742423780109e+00
2.270694296090578934e+00
2.270694296090578934e+00
2.270694296090578934e+00
2.270694296090578934e+00
2.271069307535019899e+00
2.271069307535019899e+00
2.271069307535019899e+00
2.252693746757408633e+00
2.252693746757408633e+00
2.252693746757408633e+00
2.252693746757408633e+00
2.215755119479964730e+00
2.215755119479964730e+00
2.215755119479964730e+00
2.216130130924405695e+00
2.216130130924405695e+00
2.216130130924405695e+00
2.216130130924405695e+00
2.222317819757682944e+00
2.222317819757682944e+00
2.222317819757682944e+00
2.204317270424512643e+00
2.204317270424512643e+00
2.204317270424512643e+00
2.211067476424451339e+00
2.211067476424451339e+00
2.211067476424451339e+00
2.211067476424451339e+00
2.271444318979460864e+00
2.271444318979460864e+00
2.271444318979460864e+00
2.285132236701559627e+00
2.285132236701559627e+00
2.285132236701559627e+00
2.285132236701559627e+00
2.316820703756828248e+00
2.316820703756828248e+00
2.316820703756828248e+00
2.337821344645527599e+00
2.337821344645527599e+00
2.337821344645527599e+00
2.320195806756797818e+00
2.320195806756797818e+00
2.320195806756797818e+00
2.320195806756797818e+00
2.290382396923734465e+00
2.290382396923734465e+00
2.290382396923734465e+00
2.281007110812707683e+00
2.281007110812707683e+00
2.281007110812707683e+00
2.281007110812707683e+00
2.258318918424023991e+00
2.258318918424023991e+00
2.258318918424023991e+00
2.248193609424115724e+00
2.248193609424115724e+00
2.248193609424115724e+00
2.248193609424115724e+00
2.224380382702108694e+00
2.224380382702108694e+00
2.224380382702108694e+00
2.212005005035553751e+00
2.212005005035553751e+00
2.212005005035553751e+00
2.202067201757865966e+00
2.202067201757865966e+00
2.202067201757865966e+00
2.202067201757865966e+00
2.188754295480208611e+00
2.188754295480208611e+00
2.188754295480208611e+00
2.219880245368816230e+00
2.219880245368816230e+00
2.219880245368816230e+00
2.219880245368816230e+00
2.279882076479384789e+00
2.279882076479384789e+00
2.279882076479384789e+00
2.297882625812555535e+00
2.297882625812555535e+00
2.297882625812555535e+00
2.323945921201208797e+00
2.323945921201208797e+00
2.323945921201208797e+00
2.323945921201208797e+00
2.334633747367778511e+00
2.334633747367778511e+00
2.334633747367778511e+00
2.299570177312540320e+00
2.299570177312540320e+00
2.299570177312540320e+00
2.299570177312540320e+00
2.262444044312875935e+00
2.262444044312875935e+00
2.262444044312875935e+00
2.239755851924192243e+00
2.239755851924192243e+00
2.239755851924192243e+00
2.239755851924192243e+00
2.231693105868709726e+00
2.231693105868709726e+00
2.231693105868709726e+00
2.231505600146489243e+00
2.231505600146489243e+00
2.231505600146489243e+00
2.227755485702078264e+00
2.227755485702078264e+00
2.227755485702078264e+00
2.227755485702078264e+00
2.227192968535416817e+00
2.227192968535416817e+00
2.227192968535416817e+00
2.214817590868861874e+00
2.214817590868861874e+00
2.214817590868861874e+00
2.214817590868861874e+00
2.204692281868953607e+00
2.204692281868953607e+00
2.204692281868953607e+00
2.253256263924070080e+00
2.253256263924070080e+00
2.253256263924070080e+00
2.295820062868129341e+00
2.295820062868129341e+00
2.295820062868129341e+00
2.295820062868129341e+00
2.292632465590380253e+00
2.292632465590380253e+00
2.292632465590380253e+00
2.322633381145664977e+00
2.322633381145664977e+00
2.322633381145664977e+00
2.322633381145664977e+00
2.325445966978973100e+00
2.325445966978973100e+00
2.325445966978973100e+00
2.305382854701376161e+00
2.305382854701376161e+00
2.305382854701376161e+00
2.305382854701376161e+00
2.276881984923856628e+00
2.276881984923856628e+00
2.276881984923856628e+00
2.253818781090731527e+00
2.253818781090731527e+00
2.253818781090731527e+00
2.236568254646443155e+00
2.236568254646443155e+00
2.236568254646443155e+00
2.236568254646443155e+00
2.228505508590960638e+00
2.228505508590960638e+00
2.228505508590960638e+00
2.216880153813287624e+00
2.216880153813287624e+00
2.216880153813287624e+00
2.216880153813287624e+00
2.208817407757805107e+00
2.208817407757805107e+00
2.208817407757805107e+00
2.192504409924619146e+00
2.192504409924619146e+00
2.192504409924619146e+00
2.203004730368968822e+00
2.203004730368968822e+00
2.203004730368968822e+00
2.203004730368968822e+00
2.260193975646229259e+00
2.260193975646229259e+00
2.260193975646229259e+00
2.290944914090395912e+00
2.290944914090395912e+00
2.290944914090395912e+00
2.307257911923581428e+00
2.307257911923581428e+00
2.307257911923581428e+00
2.307257911923581428e+00
2.340446424756614796e+00
2.340446424756614796e+00
2.340446424756614796e+00
2.317383220923490139e+00
2.317383220923490139e+00
2.317383220923490139e+00
2.317383220923490139e+00
2.278944547868282378e+00
2.278944547868282378e+00
2.278944547868282378e+00
2.267694204535050773e+00
2.267694204535050773e+00
2.267694204535050773e+00
2.259818964201788294e+00
2.259818964201788294e+00
2.259818964201788294e+00
2.259818964201788294e+00
2.260381481368449741e+00
2.260381481368449741e+00
2.260381481368449741e+00
2.242568437757499922e+00
2.242568437757499922e+00
2.242568437757499922e+00
2.242568437757499922e+00
2.227567979979857782e+00
2.227567979979857782e+00
2.227567979979857782e+00
2.215942625202185212e+00
2.215942625202185212e+00
2.215942625202185212e+00
2.215942625202185212e+00
2.198317087313455875e+00
2.198317087313455875e+00
2.198317087313455875e+00
2.235443220313119816e+00
2.235443220313119816e+00
2.235443220313119816e+00
2.266756675923947917e+00
2.266756675923947917e+00
2.266756675923947917e+00
2.266756675923947917e+00
2.284382213812677254e+00
2.284382213812677254e+00
2.284382213812677254e+00
2.316820703756828248e+00
2.316820703756828248e+00
2.316820703756828248e+00
2.316820703756828248e+00
2.324883449812311209e+00
2.324883449812311209e+00
2.324883449812311209e+00
2.306132877590258534e+00
2.306132877590258534e+00
2.306132877590258534e+00
2.274069399090548504e+00
2.274069399090548504e+00
2.274069399090548504e+00
2.274069399090548504e+00
2.264131595812860720e+00
2.264131595812860720e+00
2.264131595812860720e+00
2.243880977813043742e+00
2.243880977813043742e+00
2.243880977813043742e+00
2.243880977813043742e+00
2.211629993591112786e+00
2.211629993591112786e+00
2.211629993591112786e+00
2.197754570146794428e+00
2.197754570146794428e+00
2.197754570146794428e+00
2.212942533646656607e+00
2.212942533646656607e+00
2.212942533646656607e+00
2.212942533646656607e+00
2.216130130924405695e+00
2.216130130924405695e+00
2.216130130924405695e+00
2.210692464980010374e+00
2.210692464980010374e+00
2.210692464980010374e+00
2.210692464980010374e+00
2.253068758201849597e+00
2.253068758201849597e+00
2.253068758201849597e+00
2.285319742423780109e+00
2.285319742423780109e+00
2.285319742423780109e+00
2.300320200201422249e+00
2.300320200201422249e+00
2.300320200201422249e+00
2.300320200201422249e+00
2.319633289590136371e+00
2.319633289590136371e+00
2.319633289590136371e+00
2.326946012756737403e+00
2.326946012756737403e+00
2.326946012756737403e+00
2.326946012756737403e+00
2.284007202368236289e+00
2.284007202368236289e+00
2.284007202368236289e+00
2.236755760368663637e+00
2.236755760368663637e+00
2.236755760368663637e+00
2.231318094424268317e+00
2.231318094424268317e+00
2.231318094424268317e+00
2.231318094424268317e+00
2.239193334757530351e+00
2.239193334757530351e+00
2.239193334757530351e+00
2.252881252479629115e+00
2.252881252479629115e+00
2.252881252479629115e+00
2.252881252479629115e+00
2.226817957090975852e+00
2.226817957090975852e+00
2.226817957090975852e+00
2.222692831202123909e+00
2.222692831202123909e+00
2.222692831202123909e+00
2.208817407757805107e+00
2.208817407757805107e+00
2.208817407757805107e+00
2.208817407757805107e+00
2.206754844813379357e+00
2.206754844813379357e+00
2.206754844813379357e+00
2.267506698812830290e+00
2.267506698812830290e+00
2.267506698812830290e+00
2.267506698812830290e+00
2.295257545701467894e+00
2.295257545701467894e+00
2.295257545701467894e+00
2.304445326090273749e+00
2.304445326090273749e+00
2.304445326090273749e+00
2.304445326090273749e+00
2.315695669423505798e+00
2.315695669423505798e+00
2.315695669423505798e+00
2.320945829645680192e+00
2.320945829645680192e+00
2.320945829645680192e+00
2.320945829645680192e+00
2.300132694479201767e+00
2.300132694479201767e+00
2.300132694479201767e+00
2.287007293923764895e+00
2.287007293923764895e+00
2.287007293923764895e+00
2.263944090090640238e+00
2.263944090090640238e+00
2.263944090090640238e+00
2.263944090090640238e+00
2.246131046479689974e+00
2.246131046479689974e+00
2.246131046479689974e+00
2.242755943479720404e+00
2.242755943479720404e+00
2.242755943479720404e+00
2.242755943479720404e+00
2.216130130924405695e+00
2.216130130924405695e+00
2.216130130924405695e+00
2.209754936368907963e+00
2.209754936368907963e+00
2.209754936368907963e+00
2.198317087313455875e+00
2.198317087313455875e+00
2.198317087313455875e+00
2.198317087313455875e+00
2.209754936368907963e+00
2.209754936368907963e+00
2.209754936368907963e+00
2.266194158757286470e+00
2.266194158757286470e+00
2.266194158757286470e+00
2.266194158757286470e+00
2.281007110812707683e+00
2.281007110812707683e+00
2.281007110812707683e+00
2.298070131534776017e+00
2.298070131534776017e+00
2.298070131534776017e+00
2.325633472701193583e+00
2.325633472701193583e+00
2.325633472701193583e+00
2.325633472701193583e+00
2.296570085757011714e+00
2.296570085757011714e+00
2.296570085757011714e+00
2.279694570757164307e+00
2.279694570757164307e+00
2.279694570757164307e+00
2.279694570757164307e+00
2.277819513534959039e+00
2.277819513534959039e+00
2.277819513534959039e+00
2.257381389812921579e+00
2.257381389812921579e+00
2.257381389812921579e+00
2.257381389812921579e+00
2.229068025757622085e+00
2.229068025757622085e+00
2.229068025757622085e+00
2.225130405590991067e+00
2.225130405590991067e+00
2.225130405590991067e+00
2.212942533646656607e+00
2.212942533646656607e+00
2.212942533646656607e+00
2.212942533646656607e+00
2.224755394146549659e+00
2.224755394146549659e+00
2.224755394146549659e+00
2.204879787591174090e+00
2.204879787591174090e+00
2.204879787591174090e+00
2.204879787591174090e+00
2.237505783257545566e+00
2.237505783257545566e+00
2.237505783257545566e+00
2.285507248146000592e+00
2.285507248146000592e+00
2.285507248146000592e+00
2.285507248146000592e+00
2.292819971312600735e+00
2.292819971312600735e+00
2.292819971312600735e+00
2.314758140812402942e+00
2.314758140812402942e+00
2.314758140812402942e+00
2.328446058534500818e+00
2.328446058534500818e+00
2.328446058534500818e+00
2.328446058534500818e+00
2.294882534257026929e+00
2.294882534257026929e+00
2.294882534257026929e+00
2.264506607257301685e+00
2.264506607257301685e+00
2.264506607257301685e+00
2.264506607257301685e+00
2.258131412701803509e+00
2.258131412701803509e+00
2.258131412701803509e+00
2.255881344035157721e+00
2.255881344035157721e+00
2.255881344035157721e+00
2.245568529313028083e+00
2.245568529313028083e+00
2.245568529313028083e+00
2.245568529313028083e+00
2.237318277535325084e+00
2.237318277535325084e+00
2.237318277535325084e+00
2.214067567979979945e+00
2.214067567979979945e+00
2.214067567979979945e+00
2.214067567979979945e+00
2.210692464980010374e+00
2.210692464980010374e+00
2.210692464980010374e+00
2.208067384868923178e+00
2.208067384868923178e+00
2.208067384868923178e+00
2.243693472090823260e+00
2.243693472090823260e+00
2.243693472090823260e+00
2.243693472090823260e+00
2.273506881923887057e+00
2.273506881923887057e+00
2.273506881923887057e+00
2.288694845423749680e+00
2.288694845423749680e+00
2.288694845423749680e+00
2.312508072145756710e+00
2.312508072145756710e+00
2.312508072145756710e+00
2.312508072145756710e+00
2.315320657979064389e+00
2.315320657979064389e+00
2.315320657979064389e+00
2.286444776757103448e+00
2.286444776757103448e+00
2.286444776757103448e+00
2.286444776757103448e+00
2.289069856868190644e+00
2.289069856868190644e+00
2.289069856868190644e+00
2.260568987090670667e+00
2.260568987090670667e+00
2.260568987090670667e+00
2.256068849757378203e+00
2.256068849757378203e+00
2.256068849757378203e+00
2.256068849757378203e+00
2.259068941312906365e+00
2.259068941312906365e+00
2.259068941312906365e+00
2.242943449201941331e+00
2.242943449201941331e+00
2.242943449201941331e+00
2.242943449201941331e+00
2.220255256813257638e+00
2.220255256813257638e+00
2.220255256813257638e+00
2.200754661702322146e+00
2.200754661702322146e+00
2.200754661702322146e+00
2.200754661702322146e+00
2.212567522202215642e+00
2.212567522202215642e+00
2.212567522202215642e+00
2.242005920590838475e+00
2.242005920590838475e+00
2.242005920590838475e+00
2.270881801812799416e+00
2.270881801812799416e+00
2.270881801812799416e+00
2.270881801812799416e+00
2.286632282479323930e+00
2.286632282479323930e+00
2.286632282479323930e+00
2.311008026367992407e+00
2.311008026367992407e+00
2.311008026367992407e+00
2.311008026367992407e+00
2.305382854701376161e+00
2.305382854701376161e+00
2.305382854701376161e+00
2.276319467757194737e+00
2.276319467757194737e+00
2.276319467757194737e+00
2.275944456312753772e+00
2.275944456312753772e+00
2.275944456312753772e+00
2.275944456312753772e+00
2.260381481368449741e+00
2.260381481368449741e+00
2.260381481368449741e+00
2.234693197424237443e+00
2.234693197424237443e+00
2.234693197424237443e+00
2.234693197424237443e+00
2.239380840479750834e+00
2.239380840479750834e+00
2.239380840479750834e+00
2.240318369090853690e+00
2.240318369090853690e+00
2.240318369090853690e+00
2.240318369090853690e+00
2.235630726035340299e+00
2.235630726035340299e+00
2.235630726035340299e+00
2.201129673146763555e+00
2.201129673146763555e+00
2.201129673146763555e+00
2.218380199591051927e+00
2.218380199591051927e+00
2.218380199591051927e+00
2.218380199591051927e+00
2.265631641590625023e+00
2.265631641590625023e+00
2.265631641590625023e+00
2.278569536423841413e+00
2.278569536423841413e+00
2.278569536423841413e+00
2.278569536423841413e+00
2.319445783867915889e+00
2.319445783867915889e+00
2.319445783867915889e+00
2.339696401867732423e+00
2.339696401867732423e+00
2.339696401867732423e+00
2.322070863979003530e+00
2.322070863979003530e+00
2.322070863979003530e+00
2.322070863979003530e+00
2.265256630146183614e+00
2.265256630146183614e+00
2.265256630146183614e+00
2.246881069368571904e+00
2.246881069368571904e+00
2.246881069368571904e+00
2.246881069368571904e+00
2.243505966368602778e+00
2.243505966368602778e+00
2.243505966368602778e+00
2.223255348368785356e+00
2.223255348368785356e+00
2.223255348368785356e+00
2.223255348368785356e+00
2.210504959257789892e+00
2.210504959257789892e+00
2.210504959257789892e+00
2.215942625202185212e+00
2.215942625202185212e+00
2.215942625202185212e+00
2.243505966368602778e+00
2.243505966368602778e+00
2.243505966368602778e+00
2.243505966368602778e+00
2.235255714590899334e+00
2.235255714590899334e+00
2.235255714590899334e+00
2.261506515701773079e+00
2.261506515701773079e+00
2.261506515701773079e+00
2.261506515701773079e+00
2.297132602923673161e+00
2.297132602923673161e+00
2.297132602923673161e+00
2.319258278145695407e+00
2.319258278145695407e+00
2.319258278145695407e+00
2.338196356089969008e+00
2.338196356089969008e+00
2.338196356089969008e+00
2.338196356089969008e+00
2.318508255256813033e+00
2.318508255256813033e+00
2.318508255256813033e+00
2.290382396923734465e+00
2.290382396923734465e+00
2.290382396923734465e+00
2.290382396923734465e+00
2.251193700979644330e+00
2.251193700979644330e+00
2.251193700979644330e+00
2.214630085146641392e+00
2.214630085146641392e+00
2.214630085146641392e+00
2.200004638813440216e+00
2.200004638813440216e+00
2.200004638813440216e+00
2.200004638813440216e+00
2.227005462813196335e+00
2.227005462813196335e+00
2.227005462813196335e+00
2.208817407757805107e+00
2.208817407757805107e+00
2.208817407757805107e+00
2.208817407757805107e+00
2.195316995757927270e+00
2.195316995757927270e+00
2.195316995757927270e+00
2.208442396313364142e+00
2.208442396313364142e+00
2.208442396313364142e+00
2.208442396313364142e+00
2.215380108035523765e+00
2.215380108035523765e+00
2.215380108035523765e+00
2.254756309701834383e+00
2.254756309701834383e+00
2.254756309701834383e+00
2.281007110812707683e+00
2.281007110812707683e+00
2.281007110812707683e+00
2.281007110812707683e+00
2.298070131534776017e+00
2.298070131534776017e+00
2.298070131534776017e+00
2.338946378978850937e+00
2.338946378978850937e+00
2.338946378978850937e+00
2.338946378978850937e+00
2.331821161534470832e+00
2.331821161534470832e+00
2.331821161534470832e+00
2.302945280312509890e+00
2.302945280312509890e+00
2.302945280312509890e+00
2.286444776757103448e+00
2.286444776757103448e+00
2.286444776757103448e+00
2.286444776757103448e+00
2.255693838312936794e+00
2.255693838312936794e+00
2.255693838312936794e+00
2.242943449201941331e+00
2.242943449201941331e+00
2.242943449201941331e+00
2.242943449201941331e+00
2.238443311868648422e+00
2.238443311868648422e+00
2.238443311868648422e+00
2.215567613757744247e+00
2.215567613757744247e+00
2.215567613757744247e+00
2.221380291146580532e+00
2.221380291146580532e+00
2.221380291146580532e+00
2.221380291146580532e+00
2.193441938535722002e+00
2.193441938535722002e+00
2.193441938535722002e+00
2.200942167424543072e+00
2.200942167424543072e+00
2.200942167424543072e+00
2.200942167424543072e+00
2.262256538590655452e+00
2.262256538590655452e+00
2.262256538590655452e+00
2.279319559312723342e+00
2.279319559312723342e+00
2.279319559312723342e+00
2.279319559312723342e+00
2.299195165868098911e+00
2.299195165868098911e+00
2.299195165868098911e+00
2.321695852534562121e+00
2.321695852534562121e+00
2.321695852534562121e+00
2.318133243812372069e+00
2.318133243812372069e+00
2.318133243812372069e+00
2.318133243812372069e+00
2.313820612201300086e+00
2.313820612201300086e+00
2.313820612201300086e+00
2.291132419812616394e+00
2.291132419812616394e+00
2.291132419812616394e+00
2.291132419812616394e+00
2.231693105868709726e+00
2.231693105868709726e+00
2.231693105868709726e+00
2.254193792535172935e+00
2.254193792535172935e+00
2.254193792535172935e+00
2.231693105868709726e+00
2.231693105868709726e+00
2.231693105868709726e+00
2.231693105868709726e+00
2.216130130924405695e+00
2.216130130924405695e+00
2.216130130924405695e+00
2.201879696035645484e+00
2.201879696035645484e+00
2.201879696035645484e+00
2.201879696035645484e+00
2.178253975035859380e+00
2.178253975035859380e+00
2.178253975035859380e+00
2.215567613757744247e+00
2.215567613757744247e+00
2.215567613757744247e+00
2.263944090090640238e+00
2.263944090090640238e+00
2.263944090090640238e+00
2.263944090090640238e+00
2.303882808923612302e+00
2.303882808923612302e+00
2.303882808923612302e+00
2.331633655812249906e+00
2.331633655812249906e+00
2.331633655812249906e+00
2.331633655812249906e+00
2.327508529923398850e+00
2.327508529923398850e+00
2.327508529923398850e+00
2.303882808923612302e+00
2.303882808923612302e+00
2.303882808923612302e+00
2.277256996368297592e+00
2.277256996368297592e+00
2.277256996368297592e+00
2.277256996368297592e+00
2.277444502090518075e+00
2.277444502090518075e+00
2.277444502090518075e+00
2.255881344035157721e+00
2.255881344035157721e+00
2.255881344035157721e+00
2.255881344035157721e+00
2.239380840479750834e+00
2.239380840479750834e+00
2.239380840479750834e+00
2.229630542924283532e+00
2.229630542924283532e+00
2.229630542924283532e+00
2.222317819757682944e+00
2.222317819757682944e+00
2.222317819757682944e+00
2.222317819757682944e+00
2.192691915646840073e+00
2.192691915646840073e+00
2.192691915646840073e+00
2.181629078035828950e+00
2.181629078035828950e+00
2.181629078035828950e+00
2.181629078035828950e+00
2.237880794701986531e+00
2.237880794701986531e+00
2.237880794701986531e+00
2.285882259590441556e+00
2.285882259590441556e+00
2.285882259590441556e+00
2.285882259590441556e+00
2.288507339701529197e+00
2.288507339701529197e+00
2.288507339701529197e+00
2.315133152256843907e+00
2.315133152256843907e+00
2.315133152256843907e+00
2.328633564256721744e+00
2.328633564256721744e+00
2.328633564256721744e+00
2.328633564256721744e+00
2.307070406201360946e+00
2.307070406201360946e+00
2.307070406201360946e+00
2.286257271034882521e+00
2.286257271034882521e+00
2.286257271034882521e+00
2.286257271034882521e+00
2.263381572923978347e+00
2.263381572923978347e+00
2.263381572923978347e+00
2.239005829035309869e+00
2.239005829035309869e+00
2.239005829035309869e+00
2.239568346201971760e+00
2.239568346201971760e+00
2.239568346201971760e+00
2.239568346201971760e+00
2.199817133091219734e+00
2.199817133091219734e+00
2.199817133091219734e+00
2.194941984313486305e+00
2.194941984313486305e+00
2.194941984313486305e+00
2.194941984313486305e+00
2.204879787591174090e+00
2.204879787591174090e+00
2.204879787591174090e+00
2.207692373424482213e+00
2.207692373424482213e+00
2.207692373424482213e+00
2.207692373424482213e+00
2.259256447035126847e+00
2.259256447035126847e+00
2.259256447035126847e+00
2.288882351145970162e+00
2.288882351145970162e+00
2.288882351145970162e+00
2.321695852534562121e+00
2.321695852534562121e+00
2.321695852534562121e+00
2.321695852534562121e+00
2.330321115756706529e+00
2.330321115756706529e+00
2.330321115756706529e+00
2.303507797479171337e+00
2.303507797479171337e+00
2.303507797479171337e+00
2.303507797479171337e+00
2.274256904812768987e+00
2.274256904812768987e+00
2.274256904812768987e+00
2.256631366924039650e+00
2.256631366924039650e+00
2.256631366924039650e+00
2.248756126590777171e+00
2.248756126590777171e+00
2.248756126590777171e+00
2.248756126590777171e+00
2.255318826868495830e+00
2.255318826868495830e+00
2.255318826868495830e+00
2.233005645924253102e+00
2.233005645924253102e+00
2.233005645924253102e+00
2.233005645924253102e+00
2.227942991424298746e+00
2.227942991424298746e+00
2.227942991424298746e+00
2.218567705313272853e+00
2.218567705313272853e+00
2.218567705313272853e+00
2.218567705313272853e+00
2.206942350535599839e+00
2.206942350535599839e+00
2.206942350535599839e+00
2.215942625202185212e+00
2.215942625202185212e+00
2.215942625202185212e+00
2.257381389812921579e+00
2.257381389812921579e+00
2.257381389812921579e+00
2.257381389812921579e+00
2.276694479201635701e+00
2.276694479201635701e+00
2.276694479201635701e+00
2.315883175145725836e+00
2.315883175145725836e+00
2.315883175145725836e+00
2.315883175145725836e+00
2.350759239478743989e+00
2.350759239478743989e+00
2.350759239478743989e+00
2.317195715201269657e+00
2.317195715201269657e+00
2.317195715201269657e+00
2.295632557145908859e+00
2.295632557145908859e+00
2.295632557145908859e+00
2.295632557145908859e+00
2.265631641590625023e+00
2.265631641590625023e+00
2.265631641590625023e+00
2.243880977813043742e+00
2.243880977813043742e+00
2.243880977813043742e+00
2.243880977813043742e+00
2.240318369090853690e+00
2.240318369090853690e+00
2.240318369090853690e+00
2.230005554368724940e+00
2.230005554368724940e+00
2.230005554368724940e+00
2.230005554368724940e+00
2.216505142368846659e+00
2.216505142368846659e+00
2.216505142368846659e+00
2.206004821924497428e+00
2.206004821924497428e+00
2.206004821924497428e+00
2.179754020813623683e+00
2.179754020813623683e+00
2.179754020813623683e+00
2.179754020813623683e+00
2.225880428479872997e+00
2.225880428479872997e+00
2.225880428479872997e+00
2.296570085757011714e+00
2.296570085757011714e+00
2.296570085757011714e+00
2.296570085757011714e+00
2.310070497756889552e+00
2.310070497756889552e+00
2.310070497756889552e+00
2.341008941923276243e+00
2.341008941923276243e+00
2.341008941923276243e+00
2.349259193700979687e+00
2.349259193700979687e+00
2.349259193700979687e+00
2.349259193700979687e+00
2.343446516312143402e+00
2.343446516312143402e+00
2.343446516312143402e+00
2.261319009979552597e+00
2.261319009979552597e+00
2.261319009979552597e+00
2.261319009979552597e+00
2.253068758201849597e+00
2.253068758201849597e+00
2.253068758201849597e+00
2.232255623035371173e+00
2.232255623035371173e+00
2.232255623035371173e+00
2.227192968535416817e+00
2.227192968535416817e+00
2.227192968535416817e+00
2.227192968535416817e+00
2.213130039368877089e+00
2.213130039368877089e+00
2.213130039368877089e+00
2.211254982146671821e+00
2.211254982146671821e+00
2.211254982146671821e+00
2.211254982146671821e+00
2.198317087313455875e+00
2.198317087313455875e+00
2.198317087313455875e+00
2.184629169591357556e+00
2.184629169591357556e+00
2.184629169591357556e+00
2.184629169591357556e+00
2.240505874813074172e+00
2.240505874813074172e+00
2.240505874813074172e+00
2.310633014923550999e+00
2.310633014923550999e+00
2.310633014923550999e+00
2.316070680867946319e+00
2.316070680867946319e+00
2.316070680867946319e+00
2.316070680867946319e+00
2.324508438367870244e+00
2.324508438367870244e+00
2.324508438367870244e+00
2.315320657979064389e+00
2.315320657979064389e+00
2.315320657979064389e+00
2.315320657979064389e+00
2.299945188756981285e+00
2.299945188756981285e+00
2.299945188756981285e+00
2.280257087923826198e+00
2.280257087923826198e+00
2.280257087923826198e+00
2.261506515701773079e+00
2.261506515701773079e+00
2.261506515701773079e+00
2.261506515701773079e+00
2.258881435590685438e+00
2.258881435590685438e+00
2.258881435590685438e+00
2.224380382702108694e+00
2.224380382702108694e+00
2.224380382702108694e+00
2.224380382702108694e+00
2.190629352702413879e+00
2.190629352702413879e+00
2.190629352702413879e+00
2.196254524369030126e+00
2.196254524369030126e+00
2.196254524369030126e+00
2.196254524369030126e+00
2.182566606646931362e+00
2.182566606646931362e+00
2.182566606646931362e+00
2.200754661702322146e+00
2.200754661702322146e+00
2.200754661702322146e+00
2.269944273201696561e+00
2.269944273201696561e+00
2.269944273201696561e+00
2.269944273201696561e+00
2.302945280312509890e+00
2.302945280312509890e+00
2.302945280312509890e+00
2.308945463423566213e+00
2.308945463423566213e+00
2.308945463423566213e+00
2.338008850367748082e+00
2.338008850367748082e+00
2.338008850367748082e+00
2.338008850367748082e+00
2.298820154423657947e+00
2.298820154423657947e+00
2.298820154423657947e+00
2.258318918424023991e+00
2.258318918424023991e+00
2.258318918424023991e+00
2.258318918424023991e+00
2.285132236701559627e+00
2.285132236701559627e+00
2.285132236701559627e+00
2.267694204535050773e+00
2.267694204535050773e+00
2.267694204535050773e+00
2.250443678090761956e+00
2.250443678090761956e+00
2.250443678090761956e+00
2.250443678090761956e+00
2.225130405590991067e+00
2.225130405590991067e+00
2.225130405590991067e+00
2.206379833368938392e+00
2.206379833368938392e+00
2.206379833368938392e+00
2.206379833368938392e+00
2.200754661702322146e+00
2.200754661702322146e+00
2.200754661702322146e+00
2.188379284035767647e+00
2.188379284035767647e+00
2.188379284035767647e+00
2.188379284035767647e+00
2.221755302591021497e+00
2.221755302591021497e+00
2.221755302591021497e+00
2.271256813257240381e+00
2.271256813257240381e+00
2.271256813257240381e+00
2.314008117923521013e+00
2.314008117923521013e+00
2.314008117923521013e+00
2.314008117923521013e+00
2.345696584978789634e+00
2.345696584978789634e+00
2.345696584978789634e+00
2.352821802423169739e+00
2.352821802423169739e+00
2.352821802423169739e+00
2.352821802423169739e+00
2.302195257423627517e+00
2.302195257423627517e+00
2.302195257423627517e+00
2.276506973479415219e+00
2.276506973479415219e+00
2.276506973479415219e+00
2.267131687368389326e+00
2.267131687368389326e+00
2.267131687368389326e+00
2.267131687368389326e+00
2.243318460646382295e+00
2.243318460646382295e+00
2.243318460646382295e+00
2.213130039368877089e+00
2.213130039368877089e+00
2.213130039368877089e+00
2.213130039368877089e+00
2.191566881313516735e+00
2.191566881313516735e+00
2.191566881313516735e+00
2.256068849757378203e+00
2.256068849757378203e+00
2.256068849757378203e+00
2.256068849757378203e+00
2.267506698812830290e+00
2.267506698812830290e+00
2.267506698812830290e+00
2.227380474257637299e+00
2.227380474257637299e+00
2.227380474257637299e+00
2.280257087923826198e+00
2.280257087923826198e+00
2.280257087923826198e+00
2.280257087923826198e+00
2.284194708090456771e+00
2.284194708090456771e+00
2.284194708090456771e+00
2.251756218146305777e+00
2.251756218146305777e+00
2.251756218146305777e+00
2.251756218146305777e+00
2.275944456312753772e+00
2.275944456312753772e+00
2.275944456312753772e+00
2.304257820368053267e+00
2.304257820368053267e+00
2.304257820368053267e+00
2.257193884090700653e+00
2.257193884090700653e+00
2.257193884090700653e+00
2.257193884090700653e+00
2.246506057924130939e+00
2.246506057924130939e+00
2.246506057924130939e+00
2.255506332590716312e+00
2.255506332590716312e+00
2.255506332590716312e+00
2.255506332590716312e+00
2.273506881923887057e+00
2.273506881923887057e+00
2.273506881923887057e+00
2.241630909146397510e+00
2.241630909146397510e+00
2.241630909146397510e+00
2.241630909146397510e+00
2.216880153813287624e+00
2.216880153813287624e+00
2.216880153813287624e+00
2.225130405590991067e+00
2.225130405590991067e+00
2.225130405590991067e+00
2.209004913480026033e+00
2.209004913480026033e+00
2.209004913480026033e+00
2.209004913480026033e+00
2.205254799035615054e+00
2.205254799035615054e+00
2.205254799035615054e+00
2.252693746757408633e+00
2.252693746757408633e+00
2.252693746757408633e+00
2.305007843256935196e+00
2.305007843256935196e+00
2.305007843256935196e+00
2.305007843256935196e+00
2.321133335367900674e+00
2.321133335367900674e+00
2.321133335367900674e+00
2.344196539201025331e+00
2.344196539201025331e+00
2.344196539201025331e+00
2.344196539201025331e+00
2.336321298867763296e+00
2.336321298867763296e+00
2.336321298867763296e+00
2.276694479201635701e+00
2.276694479201635701e+00
2.276694479201635701e+00
2.242380932035279439e+00
2.242380932035279439e+00
2.242380932035279439e+00
2.242380932035279439e+00
2.237130771813104602e+00
2.237130771813104602e+00
2.237130771813104602e+00
2.238255806146427940e+00
2.238255806146427940e+00
2.238255806146427940e+00
2.238255806146427940e+00
2.223067842646564873e+00
2.223067842646564873e+00
2.223067842646564873e+00
2.208442396313364142e+00
2.208442396313364142e+00
2.208442396313364142e+00
2.208442396313364142e+00
2.195692007202368234e+00
2.195692007202368234e+00
2.195692007202368234e+00
2.198879604480116878e+00
2.198879604480116878e+00
2.198879604480116878e+00
2.219692739646595747e+00
2.219692739646595747e+00
2.219692739646595747e+00
2.219692739646595747e+00
2.260193975646229259e+00
2.260193975646229259e+00
2.260193975646229259e+00
2.291507431257057803e+00
2.291507431257057803e+00
2.291507431257057803e+00
2.291507431257057803e+00
2.319445783867915889e+00
2.319445783867915889e+00
2.319445783867915889e+00
2.360884548478652700e+00
2.360884548478652700e+00
2.360884548478652700e+00
2.321508346812341639e+00
2.321508346812341639e+00
2.321508346812341639e+00
2.321508346812341639e+00
2.269756767479476078e+00
2.269756767479476078e+00
2.269756767479476078e+00
2.279507065034943825e+00
2.279507065034943825e+00
2.279507065034943825e+00
2.279507065034943825e+00
2.272944364757225166e+00
2.272944364757225166e+00
2.272944364757225166e+00
2.275756950590533290e+00
2.275756950590533290e+00
2.275756950590533290e+00
2.257568895535142062e+00
2.257568895535142062e+00
2.257568895535142062e+00
2.257568895535142062e+00
2.244068483535264225e+00
2.244068483535264225e+00
2.244068483535264225e+00
2.242005920590838475e+00
2.242005920590838475e+00
2.242005920590838475e+00
2.242005920590838475e+00
2.201129673146763555e+00
2.201129673146763555e+00
2.201129673146763555e+00
2.214067567979979945e+00
2.214067567979979945e+00
2.214067567979979945e+00
2.214067567979979945e+00
2.237693288979766049e+00
2.237693288979766049e+00
2.237693288979766049e+00
2.226067934202093479e+00
2.226067934202093479e+00
2.226067934202093479e+00
2.281757133701590057e+00
2.281757133701590057e+00
2.281757133701590057e+00
2.281757133701590057e+00
2.314008117923521013e+00
2.314008117923521013e+00
2.314008117923521013e+00
2.280069582201605716e+00
2.280069582201605716e+00
2.280069582201605716e+00
2.280069582201605716e+00
2.268631733146153184e+00
2.268631733146153184e+00
2.268631733146153184e+00
2.280819605090487201e+00
2.280819605090487201e+00
2.280819605090487201e+00
2.254568803979613900e+00
2.254568803979613900e+00
2.254568803979613900e+00
2.254568803979613900e+00
2.241255897701956545e+00
2.241255897701956545e+00
2.241255897701956545e+00
2.233755668813135031e+00
2.233755668813135031e+00
2.233755668813135031e+00
2.233755668813135031e+00
2.248006103701895242e+00
2.248006103701895242e+00
2.248006103701895242e+00
2.207692373424482213e+00
2.207692373424482213e+00
2.207692373424482213e+00
2.207692373424482213e+00
2.185191686758019003e+00
2.185191686758019003e+00
2.185191686758019003e+00
2.243693472090823260e+00
2.243693472090823260e+00
2.243693472090823260e+00
2.269944273201696561e+00
2.269944273201696561e+00
2.291319925534837321e+00
2.291319925534837321e+00
2.291319925534837321e+00
2.337821344645527599e+00
2.337821344645527599e+00
2.337821344645527599e+00
2.337821344645527599e+00
2.333133701590014208e+00
2.333133701590014208e+00
2.333133701590014208e+00
2.288507339701529197e+00
2.288507339701529197e+00
2.288507339701529197e+00
2.288507339701529197e+00
2.259068941312906365e+00
2.259068941312906365e+00
2.259068941312906365e+00
2.229068025757622085e+00
2.229068025757622085e+00
2.229068025757622085e+00
2.280257087923826198e+00
2.280257087923826198e+00
2.280257087923826198e+00
2.280257087923826198e+00
2.243130954924161813e+00
2.243130954924161813e+00
2.243130954924161813e+00
2.217067659535508550e+00
2.217067659535508550e+00
2.217067659535508550e+00
2.217067659535508550e+00
2.221567796868801015e+00
2.221567796868801015e+00
2.221567796868801015e+00
2.189316812646870059e+00
2.189316812646870059e+00
2.189316812646870059e+00
2.189316812646870059e+00
2.205629810480056463e+00
2.205629810480056463e+00
2.205629810480056463e+00
2.262819055757316900e+00
2.262819055757316900e+00
2.262819055757316900e+00
2.286819788201544412e+00
2.286819788201544412e+00
2.286819788201544412e+00
2.286819788201544412e+00
2.296195074312570750e+00
2.296195074312570750e+00
2.296195074312570750e+00
2.339883907589953349e+00
2.339883907589953349e+00
2.339883907589953349e+00
2.339883907589953349e+00
2.329758598590044638e+00
2.329758598590044638e+00
2.329758598590044638e+00
2.312133060701315301e+00
2.312133060701315301e+00
2.312133060701315301e+00
2.283632190923795324e+00
2.283632190923795324e+00
2.283632190923795324e+00
2.283632190923795324e+00
2.272569353312784202e+00
2.272569353312784202e+00
2.272569353312784202e+00
2.245193517868587563e+00
2.245193517868587563e+00
2.245193517868587563e+00
2.245193517868587563e+00
2.250256172368541474e+00
2.250256172368541474e+00
2.250256172368541474e+00
2.216317636646626177e+00
2.216317636646626177e+00
2.216317636646626177e+00
2.216317636646626177e+00
2.209942442091128445e+00
2.209942442091128445e+00
2.209942442091128445e+00
2.199254615924558287e+00
2.199254615924558287e+00
2.199254615924558287e+00
2.233755668813135031e+00
2.233755668813135031e+00
2.233755668813135031e+00
2.233755668813135031e+00
2.284757225257118218e+00
2.284757225257118218e+00
2.284757225257118218e+00
2.275756950590533290e+00
2.275756950590533290e+00
2.275756950590533290e+00
2.275756950590533290e+00
2.303320291756950855e+00
2.303320291756950855e+00
2.303320291756950855e+00
2.316820703756828248e+00
2.316820703756828248e+00
2.316820703756828248e+00
2.316820703756828248e+00
2.275944456312753772e+00
2.275944456312753772e+00
2.275944456312753772e+00
2.249506149479659545e+00
2.249506149479659545e+00
2.249506149479659545e+00
2.233005645924253102e+00
2.233005645924253102e+00
2.233005645924253102e+00
2.233005645924253102e+00
2.241068391979735619e+00
2.241068391979735619e+00
2.263381572923978347e+00
2.263381572923978347e+00
2.263381572923978347e+00
2.239568346201971760e+00
2.239568346201971760e+00
2.239568346201971760e+00
2.239568346201971760e+00
2.235818231757560781e+00
2.235818231757560781e+00
2.235818231757560781e+00
2.197004547257912055e+00
2.197004547257912055e+00
2.197004547257912055e+00
2.166441114535965884e+00
2.166441114535965884e+00
2.166441114535965884e+00
2.166441114535965884e+00
2.221380291146580532e+00
2.221380291146580532e+00
2.221380291146580532e+00
2.292069948423719250e+00
2.292069948423719250e+00
2.292069948423719250e+00
2.317758232367931104e+00
2.317758232367931104e+00
2.317758232367931104e+00
2.317758232367931104e+00
2.339883907589953349e+00
2.339883907589953349e+00
2.339883907589953349e+00
2.310258003479110034e+00
2.310258003479110034e+00
2.310258003479110034e+00
2.310258003479110034e+00
2.278007019257179522e+00
2.278007019257179522e+00
2.278007019257179522e+00
2.257943906979583026e+00
2.257943906979583026e+00
2.257943906979583026e+00
2.252318735312967224e+00
2.252318735312967224e+00
2.252318735312967224e+00
2.252318735312967224e+00
2.269006744590594149e+00
2.269006744590594149e+00
2.269006744590594149e+00
2.260193975646229259e+00
2.260193975646229259e+00
2.260193975646229259e+00
2.260193975646229259e+00
2.263006561479537382e+00
2.263006561479537382e+00
2.263006561479537382e+00
2.255881344035157721e+00
2.255881344035157721e+00
2.255881344035157721e+00
2.119752189703054679e+00
2.119752189703054679e+00
2.119752189703054679e+00
2.119752189703054679e+00
2.106064271980956359e+00
2.106064271980956359e+00
2.106064271980956359e+00
2.275006927701650916e+00
2.275006927701650916e+00
2.275006927701650916e+00
2.330321115756706529e+00
2.330321115756706529e+00
2.330321115756706529e+00
2.330321115756706529e+00
2.321320841090121156e+00
2.321320841090121156e+00
2.321320841090121156e+00
2.323758415478988315e+00
2.323758415478988315e+00
2.323758415478988315e+00
2.323758415478988315e+00
2.356946928312021239e+00
2.356946928312021239e+00
2.356946928312021239e+00
2.320570818201239227e+00
2.320570818201239227e+00
2.320570818201239227e+00
2.298632648701437464e+00
2.298632648701437464e+00
2.298632648701437464e+00
2.298632648701437464e+00
2.257381389812921579e+00
2.257381389812921579e+00
2.257381389812921579e+00
2.268444227423932702e+00
2.268444227423932702e+00
2.268444227423932702e+00
2.268444227423932702e+00
2.221380291146580532e+00
2.221380291146580532e+00
2.221380291146580532e+00
2.169066194647053525e+00
2.169066194647053525e+00
2.169066194647053525e+00
2.183504135258034218e+00
2.183504135258034218e+00
2.183504135258034218e+00
2.183504135258034218e+00
2.210129947813348927e+00
2.210129947813348927e+00
2.210129947813348927e+00
2.228693014313181120e+00
2.228693014313181120e+00
2.228693014313181120e+00
2.228693014313181120e+00
2.274444410534989469e+00
2.274444410534989469e+00
2.274444410534989469e+00
2.266756675923947917e+00
2.266756675923947917e+00
2.266756675923947917e+00
2.312695577867977192e+00
2.312695577867977192e+00
2.312695577867977192e+00
2.312695577867977192e+00
2.370072328867458111e+00
2.370072328867458111e+00
2.370072328867458111e+00
2.320008301034577336e+00
2.320008301034577336e+00
2.320008301034577336e+00
2.320008301034577336e+00
2.282132145146031021e+00
2.282132145146031021e+00
2.282132145146031021e+00
2.281569627979369130e+00
2.281569627979369130e+00
2.281569627979369130e+00
2.281569627979369130e+00
2.263194067201757864e+00
2.263194067201757864e+00
2.263194067201757864e+00
2.253818781090731527e+00
2.253818781090731527e+00
2.253818781090731527e+00
2.227942991424298746e+00
2.227942991424298746e+00
2.227942991424298746e+00
2.227942991424298746e+00
2.223442854091006282e+00
2.223442854091006282e+00
2.223442854091006282e+00
2.156690816980498582e+00
2.156690816980498582e+00
2.156690816980498582e+00
2.156690816980498582e+00
2.171691274758141166e+00
2.171691274758141166e+00
2.171691274758141166e+00
2.224942899868770141e+00
2.224942899868770141e+00
2.224942899868770141e+00
2.267319193090609808e+00
2.267319193090609808e+00
2.267319193090609808e+00
2.267319193090609808e+00
2.275569444868312807e+00
2.275569444868312807e+00
2.275569444868312807e+00
2.335571275978881367e+00
2.335571275978881367e+00
2.335571275978881367e+00
2.339321390423291458e+00
2.339321390423291458e+00
2.339321390423291458e+00
2.339321390423291458e+00
2.301820245979186552e+00
2.301820245979186552e+00
2.301820245979186552e+00
2.260943998535111632e+00
2.260943998535111632e+00
2.260943998535111632e+00
2.260943998535111632e+00
2.271631824701681346e+00
2.271631824701681346e+00
2.271631824701681346e+00
2.267694204535050773e+00
2.267694204535050773e+00
2.267694204535050773e+00
2.227192968535416817e+00
2.227192968535416817e+00
2.227192968535416817e+00
2.227192968535416817e+00
2.227755485702078264e+00
2.227755485702078264e+00
2.227755485702078264e+00
2.213317545091097571e+00
2.213317545091097571e+00
2.213317545091097571e+00
2.213317545091097571e+00
2.206192327646717910e+00
2.206192327646717910e+00
2.206192327646717910e+00
2.229068025757622085e+00
2.229068025757622085e+00
2.229068025757622085e+00
2.229068025757622085e+00
2.303320291756950855e+00
2.303320291756950855e+00
2.303320291756950855e+00
2.308007934812463802e+00
2.308007934812463802e+00
2.308007934812463802e+00
2.299757683034760802e+00
2.299757683034760802e+00
2.299757683034760802e+00
2.299757683034760802e+00
2.353759331034272151e+00
2.353759331034272151e+00
2.353759331034272151e+00
2.309132969145787140e+00
2.309132969145787140e+00
2.309132969145787140e+00
2.309132969145787140e+00
2.262631550035096417e+00
2.262631550035096417e+00
2.262631550035096417e+00
2.222880336924344391e+00
2.222880336924344391e+00
2.222880336924344391e+00
2.216317636646626177e+00
2.216317636646626177e+00
2.216317636646626177e+00
2.216317636646626177e+00
2.231880611590930208e+00
2.231880611590930208e+00
2.231880611590930208e+00
2.278757042146061895e+00
2.278757042146061895e+00
2.278757042146061895e+00
2.278757042146061895e+00
2.292069948423719250e+00
2.292069948423719250e+00
2.292069948423719250e+00
2.263756584368419311e+00
2.263756584368419311e+00
2.263756584368419311e+00
2.263756584368419311e+00
2.215755119479964730e+00
2.215755119479964730e+00
2.215755119479964730e+00
2.201129673146763555e+00
2.201129673146763555e+00
2.201129673146763555e+00
2.230755577257606870e+00
2.230755577257606870e+00
2.230755577257606870e+00
2.230755577257606870e+00
2.293757499923703591e+00
2.293757499923703591e+00
2.293757499923703591e+00
2.253068758201849597e+00
2.253068758201849597e+00
2.253068758201849597e+00
2.253068758201849597e+00
2.276881984923856628e+00
2.276881984923856628e+00
2.276881984923856628e+00
2.271069307535019899e+00
2.271069307535019899e+00
2.271069307535019899e+00
2.270319284646137969e+00
2.270319284646137969e+00
2.270319284646137969e+00
2.270319284646137969e+00
2.283444685201574842e+00
2.283444685201574842e+00
2.283444685201574842e+00
2.275756950590533290e+00
2.275756950590533290e+00
2.275756950590533290e+00
2.275756950590533290e+00
2.254193792535172935e+00
2.254193792535172935e+00
2.254193792535172935e+00
2.209379924924466998e+00
2.209379924924466998e+00
2.209379924924466998e+00
2.209379924924466998e+00
2.213130039368877089e+00
2.213130039368877089e+00
2.213130039368877089e+00
2.225130405590991067e+00
2.225130405590991067e+00
2.225130405590991067e+00
2.225880428479872997e+00
2.225880428479872997e+00
2.225880428479872997e+00
2.225880428479872997e+00
2.224192876979888212e+00
2.224192876979888212e+00
2.224192876979888212e+00
2.283632190923795324e+00
2.283632190923795324e+00
2.283632190923795324e+00
2.283632190923795324e+00
2.266944181646168399e+00
2.266944181646168399e+00
2.266944181646168399e+00
2.287757316812646824e+00
2.287757316812646824e+00
2.287757316812646824e+00
2.356759422589800756e+00
2.356759422589800756e+00
2.356759422589800756e+00
2.356759422589800756e+00
2.329758598590044638e+00
2.329758598590044638e+00
2.329758598590044638e+00
2.274256904812768987e+00
2.274256904812768987e+00
2.274256904812768987e+00
2.274256904812768987e+00
2.259256447035126847e+00
2.259256447035126847e+00
2.259256447035126847e+00
2.221942808313242423e+00
2.221942808313242423e+00
2.221942808313242423e+00
2.212755027924436124e+00
2.212755027924436124e+00
2.212755027924436124e+00
2.212755027924436124e+00
2.215192602313302839e+00
2.215192602313302839e+00
2.215192602313302839e+00
2.273319376201666131e+00
2.273319376201666131e+00
2.273319376201666131e+00
2.273319376201666131e+00
2.247256080813012868e+00
2.247256080813012868e+00
2.247256080813012868e+00
2.206192327646717910e+00
2.206192327646717910e+00
2.206192327646717910e+00
2.206192327646717910e+00
2.236005737479781263e+00
2.236005737479781263e+00
2.236005737479781263e+00
2.244631000701926116e+00
2.244631000701926116e+00
2.244631000701926116e+00
2.283069673757133433e+00
2.283069673757133433e+00
2.283069673757133433e+00
2.283069673757133433e+00
2.398385692922757606e+00
2.398385692922757606e+00
2.398385692922757606e+00
2.350571733756523507e+00
2.350571733756523507e+00
2.350571733756523507e+00
2.350571733756523507e+00
2.292444959868159771e+00
2.292444959868159771e+00
2.292444959868159771e+00
2.297882625812555535e+00
2.297882625812555535e+00
2.297882625812555535e+00
2.297882625812555535e+00
2.248568620868556689e+00
2.248568620868556689e+00
2.248568620868556689e+00
2.213130039368877089e+00
2.213130039368877089e+00
2.213130039368877089e+00
2.205442304757835537e+00
2.205442304757835537e+00
2.205442304757835537e+00
2.205442304757835537e+00
2.209379924924466998e+00
2.209379924924466998e+00
2.209379924924466998e+00
2.213317545091097571e+00
2.213317545091097571e+00
2.213317545091097571e+00
2.213317545091097571e+00
2.202254707480086449e+00
2.202254707480086449e+00
2.202254707480086449e+00
2.213880062257759462e+00
2.213880062257759462e+00
2.213880062257759462e+00
2.263381572923978347e+00
2.263381572923978347e+00
2.263381572923978347e+00
2.263381572923978347e+00
2.277632007812738557e+00
2.277632007812738557e+00
2.277632007812738557e+00
2.301445234534745587e+00
2.301445234534745587e+00
2.301445234534745587e+00
2.301445234534745587e+00
2.361447065645314147e+00
2.361447065645314147e+00
2.361447065645314147e+00
2.355259376812036454e+00
2.355259376812036454e+00
2.355259376812036454e+00
2.355259376812036454e+00
2.336883816034425188e+00
2.336883816034425188e+00
2.336883816034425188e+00
2.270694296090578934e+00
2.270694296090578934e+00
2.270694296090578934e+00
2.194754478591265823e+00
2.194754478591265823e+00
2.194754478591265823e+00
2.194754478591265823e+00
2.209567430646687480e+00
2.209567430646687480e+00
2.209567430646687480e+00
2.208442396313364142e+00
2.208442396313364142e+00
2.208442396313364142e+00
2.208442396313364142e+00
2.194754478591265823e+00
2.194754478591265823e+00
2.194754478591265823e+00
2.222692831202123909e+00
2.222692831202123909e+00
2.222692831202123909e+00
2.223817865535447247e+00
2.223817865535447247e+00
2.223817865535447247e+00
2.223817865535447247e+00
2.241443403424177028e+00
2.241443403424177028e+00
2.241443403424177028e+00
2.280444593646046680e+00
2.280444593646046680e+00
2.280444593646046680e+00
2.304445326090273749e+00
2.304445326090273749e+00
2.304445326090273749e+00
2.304445326090273749e+00
2.332383678701132279e+00
2.332383678701132279e+00
2.332383678701132279e+00
2.380572649311807787e+00
2.380572649311807787e+00
2.380572649311807787e+00
2.342508987701040546e+00
2.342508987701040546e+00
2.342508987701040546e+00
2.342508987701040546e+00
2.250443678090761956e+00
2.250443678090761956e+00
2.250443678090761956e+00
2.229443037202063049e+00
2.229443037202063049e+00
2.229443037202063049e+00
2.229443037202063049e+00
2.223442854091006282e+00
2.223442854091006282e+00
2.223442854091006282e+00
2.233943174535355514e+00
2.233943174535355514e+00
2.233943174535355514e+00
2.233943174535355514e+00
2.193441938535722002e+00
2.193441938535722002e+00
2.193441938535722002e+00
2.237318277535325084e+00
2.237318277535325084e+00
2.237318277535325084e+00
2.264131595812860720e+00
2.264131595812860720e+00
2.264131595812860720e+00
2.264131595812860720e+00
2.249318643757439062e+00
2.249318643757439062e+00
2.249318643757439062e+00
2.257943906979583026e+00
2.257943906979583026e+00
2.257943906979583026e+00
2.257943906979583026e+00
2.255693838312936794e+00
2.255693838312936794e+00
2.255693838312936794e+00
2.250443678090761956e+00
2.250443678090761956e+00
2.250443678090761956e+00
2.252318735312967224e+00
2.252318735312967224e+00
2.252318735312967224e+00
2.252318735312967224e+00
2.237693288979766049e+00
2.237693288979766049e+00
2.237693288979766049e+00
2.238818323313089387e+00
2.238818323313089387e+00
2.238818323313089387e+00
2.238818323313089387e+00
2.250256172368541474e+00
2.250256172368541474e+00
2.250256172368541474e+00
2.254193792535172935e+00
2.254193792535172935e+00
2.254193792535172935e+00
2.254193792535172935e+00
2.285882259590441556e+00
2.285882259590441556e+00
2.285882259590441556e+00
2.295632557145908859e+00
2.295632557145908859e+00
2.295632557145908859e+00
2.255318826868495830e+00
2.255318826868495830e+00
2.255318826868495830e+00
2.255318826868495830e+00
2.224755394146549659e+00
2.224755394146549659e+00
2.224755394146549659e+00
2.215192602313302839e+00
2.215192602313302839e+00
2.215192602313302839e+00
2.215192602313302839e+00
2.202442213202307375e+00
2.202442213202307375e+00
2.202442213202307375e+00
2.281194616534928166e+00
2.281194616534928166e+00
2.281194616534928166e+00
2.281194616534928166e+00
2.342133976256599581e+00
2.342133976256599581e+00
2.342133976256599581e+00
2.315883175145725836e+00
2.315883175145725836e+00
2.315883175145725836e+00
2.402510818811609106e+00
2.402510818811609106e+00
2.402510818811609106e+00
2.402510818811609106e+00
2.346821619312112972e+00
2.346821619312112972e+00
2.346821619312112972e+00
2.248568620868556689e+00
2.248568620868556689e+00
2.248568620868556689e+00
2.248568620868556689e+00
2.281757133701590057e+00
2.281757133701590057e+00
2.281757133701590057e+00
2.234880703146458369e+00
2.234880703146458369e+00
2.234880703146458369e+00
2.167191137424848257e+00
2.167191137424848257e+00
2.167191137424848257e+00
2.167191137424848257e+00
2.201504684591204519e+00
2.201504684591204519e+00
2.201504684591204519e+00
2.244068483535264225e+00
2.244068483535264225e+00
2.244068483535264225e+00
2.244068483535264225e+00
2.237505783257545566e+00
2.237505783257545566e+00
2.237505783257545566e+00
2.209379924924466998e+00
2.209379924924466998e+00
2.209379924924466998e+00
2.134190130314035372e+00
2.134190130314035372e+00
2.134190130314035372e+00
2.134190130314035372e+00
2.226442945646534444e+00
2.226442945646534444e+00
2.226442945646534444e+00
2.317195715201269657e+00
2.317195715201269657e+00
2.317195715201269657e+00
2.317195715201269657e+00
2.350571733756523507e+00
2.350571733756523507e+00
2.350571733756523507e+00
2.359572008423108880e+00
2.359572008423108880e+00
2.359572008423108880e+00
2.335758781701101849e+00
2.335758781701101849e+00
2.335758781701101849e+00
2.335758781701101849e+00
2.279319559312723342e+00
2.279319559312723342e+00
2.279319559312723342e+00
2.271444318979460864e+00
2.271444318979460864e+00
2.271444318979460864e+00
2.271444318979460864e+00
2.209192419202246516e+00
2.209192419202246516e+00
2.209192419202246516e+00
2.251943723868526259e+00
2.251943723868526259e+00
2.251943723868526259e+00
2.223067842646564873e+00
2.223067842646564873e+00
2.223067842646564873e+00
2.223067842646564873e+00
2.197567064424573946e+00
2.197567064424573946e+00
2.197567064424573946e+00
2.249881160924100509e+00
2.249881160924100509e+00
2.249881160924100509e+00
2.249881160924100509e+00
2.197942075869014911e+00
2.197942075869014911e+00
2.197942075869014911e+00
2.239005829035309869e+00
2.239005829035309869e+00
2.239005829035309869e+00
2.239005829035309869e+00
2.315133152256843907e+00
2.315133152256843907e+00
2.315133152256843907e+00
2.312133060701315301e+00
2.312133060701315301e+00
2.312133060701315301e+00
2.319070772423474924e+00
2.319070772423474924e+00
2.319070772423474924e+00
2.319070772423474924e+00
2.337258827478866152e+00
2.337258827478866152e+00
2.337258827478866152e+00
2.328633564256721744e+00
2.328633564256721744e+00
2.328633564256721744e+00
2.328633564256721744e+00
2.299007660145878429e+00
2.299007660145878429e+00
2.299007660145878429e+00
2.327883541367839371e+00
2.327883541367839371e+00
2.327883541367839371e+00
2.327883541367839371e+00
2.261319009979552597e+00
2.261319009979552597e+00
2.261319009979552597e+00
2.199817133091219734e+00
2.199817133091219734e+00
2.199817133091219734e+00
2.173753837702566916e+00
2.173753837702566916e+00
2.173753837702566916e+00
2.173753837702566916e+00
2.234505691702016961e+00
2.234505691702016961e+00
2.234505691702016961e+00
2.197942075869014911e+00
2.197942075869014911e+00
2.197942075869014911e+00
2.197942075869014911e+00
2.166628620258186366e+00
2.166628620258186366e+00
2.166628620258186366e+00
2.180129032258064647e+00
2.180129032258064647e+00
2.180129032258064647e+00
2.217630176702169997e+00
2.217630176702169997e+00
2.217630176702169997e+00
2.217630176702169997e+00
2.262444044312875935e+00
2.262444044312875935e+00
2.262444044312875935e+00
2.304257820368053267e+00
2.304257820368053267e+00
2.304257820368053267e+00
2.304257820368053267e+00
2.415073702200384531e+00
2.415073702200384531e+00
2.415073702200384531e+00
2.354321848200934042e+00
2.354321848200934042e+00
2.354321848200934042e+00
2.354321848200934042e+00
2.237318277535325084e+00
2.237318277535325084e+00
2.237318277535325084e+00
2.225317911313211550e+00
2.225317911313211550e+00
2.225317911313211550e+00
2.244255989257484707e+00
2.244255989257484707e+00
2.244255989257484707e+00
2.244255989257484707e+00
2.241068391979735619e+00
2.241068391979735619e+00
2.241068391979735619e+00
2.203379741813409787e+00
2.203379741813409787e+00
2.203379741813409787e+00
2.203379741813409787e+00
2.243505966368602778e+00
2.243505966368602778e+00
2.243505966368602778e+00
2.207129856257820322e+00
2.207129856257820322e+00
2.207129856257820322e+00
2.207129856257820322e+00
2.187629261146885273e+00
2.187629261146885273e+00
2.187629261146885273e+00
2.252881252479629115e+00
2.252881252479629115e+00
2.252881252479629115e+00
2.351509262367625919e+00
2.351509262367625919e+00
2.351509262367625919e+00
2.378885097811823002e+00
2.378885097811823002e+00
2.358071962645344577e+00
2.358071962645344577e+00
2.358071962645344577e+00
2.358071962645344577e+00
2.323570909756767389e+00
2.323570909756767389e+00
2.323570909756767389e+00
2.285882259590441556e+00
2.285882259590441556e+00
2.285882259590441556e+00
2.237505783257545566e+00
2.237505783257545566e+00
2.237505783257545566e+00
2.237505783257545566e+00
2.222692831202123909e+00
2.222692831202123909e+00
2.222692831202123909e+00
2.225505417035432032e+00
2.225505417035432032e+00
2.225505417035432032e+00
2.225505417035432032e+00
2.185941709646900932e+00
2.185941709646900932e+00
2.185941709646900932e+00
2.224192876979888212e+00
2.224192876979888212e+00
2.224192876979888212e+00
2.224192876979888212e+00
2.283819696646015807e+00
2.283819696646015807e+00
2.283819696646015807e+00
2.269194250312814631e+00
2.269194250312814631e+00
2.269194250312814631e+00
2.224567888424329176e+00
2.224567888424329176e+00
2.224567888424329176e+00
2.224567888424329176e+00
2.299382671590319838e+00
2.299382671590319838e+00
2.299382671590319838e+00
2.288507339701529197e+00
2.288507339701529197e+00
2.288507339701529197e+00
2.288507339701529197e+00
2.317195715201269657e+00
2.317195715201269657e+00
2.317195715201269657e+00
2.314758140812402942e+00
2.314758140812402942e+00
2.314758140812402942e+00
2.266006653035065987e+00
2.266006653035065987e+00
2.266006653035065987e+00
2.266006653035065987e+00
2.203942258980071234e+00
2.203942258980071234e+00
2.203942258980071234e+00
2.170191228980376863e+00
2.170191228980376863e+00
2.170191228980376863e+00
2.170191228980376863e+00
2.195316995757927270e+00
2.195316995757927270e+00
2.195316995757927270e+00
2.190629352702413879e+00
2.190629352702413879e+00
2.190629352702413879e+00
2.190629352702413879e+00
2.272194341868343237e+00
2.272194341868343237e+00
2.272194341868343237e+00
2.262256538590655452e+00
2.262256538590655452e+00
2.262256538590655452e+00
2.296382580034791232e+00
2.296382580034791232e+00
2.296382580034791232e+00
2.296382580034791232e+00
2.333508713034455617e+00
2.333508713034455617e+00
2.333508713034455617e+00
2.263006561479537382e+00
2.263006561479537382e+00
2.263006561479537382e+00
2.263006561479537382e+00
2.273694387646107540e+00
2.273694387646107540e+00
2.273694387646107540e+00
2.288882351145970162e+00
2.288882351145970162e+00
2.288882351145970162e+00
2.292444959868159771e+00
2.292444959868159771e+00
2.292444959868159771e+00
2.292444959868159771e+00
2.321320841090121156e+00
2.321320841090121156e+00
2.321320841090121156e+00
2.305570360423596643e+00
2.305570360423596643e+00
2.305570360423596643e+00
2.305570360423596643e+00
2.284194708090456771e+00
2.284194708090456771e+00
2.284194708090456771e+00
2.250068666646320992e+00
2.250068666646320992e+00
2.250068666646320992e+00
2.250068666646320992e+00
2.172441297647023095e+00
2.172441297647023095e+00
2.172441297647023095e+00
2.213692556535538980e+00
2.213692556535538980e+00
2.247256080813012868e+00
2.247256080813012868e+00
2.247256080813012868e+00
2.247256080813012868e+00
2.228318002868740155e+00
2.228318002868740155e+00
2.228318002868740155e+00
2.199629627368999252e+00
2.199629627368999252e+00
2.199629627368999252e+00
2.166628620258186366e+00
2.166628620258186366e+00
2.166628620258186366e+00
2.166628620258186366e+00
2.257756401257362544e+00
2.257756401257362544e+00
2.257756401257362544e+00
2.375885006256294396e+00
2.375885006256294396e+00
2.375885006256294396e+00
2.375885006256294396e+00
2.313445600756859122e+00
2.313445600756859122e+00
2.313445600756859122e+00
2.320945829645680192e+00
2.320945829645680192e+00
2.320945829645680192e+00
2.314195623645741495e+00
2.314195623645741495e+00
2.314195623645741495e+00
2.314195623645741495e+00
2.246881069368571904e+00
2.246881069368571904e+00
2.246881069368571904e+00
2.267506698812830290e+00
2.267506698812830290e+00
2.267506698812830290e+00
2.247443586535233351e+00
2.247443586535233351e+00
2.247443586535233351e+00
2.247443586535233351e+00
2.275381939146092325e+00
2.275381939146092325e+00
2.275381939146092325e+00
2.267319193090609808e+00
2.267319193090609808e+00
2.267319193090609808e+00
2.267319193090609808e+00
2.220255256813257638e+00
2.220255256813257638e+00
2.220255256813257638e+00
2.234318185979796478e+00
2.234318185979796478e+00
2.234318185979796478e+00
2.171128757591479275e+00
2.171128757591479275e+00
2.171128757591479275e+00
2.171128757591479275e+00
2.219317728202154782e+00
2.219317728202154782e+00
2.219317728202154782e+00
2.253631275368511044e+00
2.253631275368511044e+00
2.253631275368511044e+00
2.253631275368511044e+00
2.298070131534776017e+00
2.298070131534776017e+00
2.298070131534776017e+00
2.314758140812402942e+00
2.314758140812402942e+00
2.314758140812402942e+00
2.362009582811975594e+00
2.362009582811975594e+00
2.362009582811975594e+00
2.362009582811975594e+00
2.302382763145847999e+00
2.302382763145847999e+00
2.302382763145847999e+00
2.279132053590502860e+00
2.279132053590502860e+00
2.279132053590502860e+00
2.279132053590502860e+00
2.304257820368053267e+00
2.304257820368053267e+00
2.304257820368053267e+00
2.211254982146671821e+00
2.211254982146671821e+00
2.211254982146671821e+00
2.210317453535568966e+00
2.210317453535568966e+00
2.210317453535568966e+00
2.210317453535568966e+00
2.200004638813440216e+00
2.200004638813440216e+00
2.200004638813440216e+00
2.212380016479995160e+00
2.212380016479995160e+00
2.212380016479995160e+00
2.212380016479995160e+00
2.153128208258308529e+00
2.153128208258308529e+00
2.153128208258308529e+00
2.125377361369670925e+00
2.125377361369670925e+00
2.125377361369670925e+00
2.125377361369670925e+00
2.200567155980101663e+00
2.200567155980101663e+00
2.200567155980101663e+00
2.299757683034760802e+00
2.299757683034760802e+00
2.299757683034760802e+00
2.362947111423078006e+00
2.362947111423078006e+00
2.362947111423078006e+00
2.362947111423078006e+00
2.379072603534043484e+00
2.379072603534043484e+00
2.379072603534043484e+00
2.376447523422955843e+00
2.376447523422955843e+00
2.376447523422955843e+00
2.376447523422955843e+00
2.259068941312906365e+00
2.259068941312906365e+00
2.259068941312906365e+00
2.223442854091006282e+00
2.223442854091006282e+00
2.223442854091006282e+00
2.270131778923917043e+00
2.270131778923917043e+00
2.270131778923917043e+00
2.270131778923917043e+00
2.323195898312326424e+00
2.323195898312326424e+00
2.323195898312326424e+00
2.240318369090853690e+00
2.240318369090853690e+00
2.240318369090853690e+00
2.240318369090853690e+00
2.194754478591265823e+00
2.194754478591265823e+00
2.194754478591265823e+00
2.191191869869075770e+00
2.191191869869075770e+00
2.191191869869075770e+00
2.191191869869075770e+00
2.221005279702139568e+00
2.221005279702139568e+00
2.221005279702139568e+00
2.253443769646290562e+00
2.253443769646290562e+00
2.253443769646290562e+00
2.263194067201757864e+00
2.263194067201757864e+00
2.263194067201757864e+00
2.263194067201757864e+00
2.199817133091219734e+00
2.199817133091219734e+00
2.199817133091219734e+00
2.266756675923947917e+00
2.266756675923947917e+00
2.266756675923947917e+00
2.340821436201055761e+00
2.340821436201055761e+00
2.340821436201055761e+00
2.340821436201055761e+00
2.417136265144810281e+00
2.417136265144810281e+00
2.417136265144810281e+00
2.378885097811823002e+00
2.378885097811823002e+00
2.378885097811823002e+00
2.378885097811823002e+00
2.309882992034669069e+00
2.309882992034669069e+00
2.309882992034669069e+00
2.256443861201819168e+00
2.158190862758262885e+00
2.158190862758262885e+00
2.209754936368907963e+00
2.209754936368907963e+00
2.275381939146092325e+00
2.208254890591143660e+00
2.208254890591143660e+00
2.167566148869289222e+00
2.184816675313578038e+00
2.184816675313578038e+00
2.240880886257515137e+00
2.240880886257515137e+00
2.292819971312600735e+00
2.291132419812616394e+00
2.291132419812616394e+00
2.316258186590166801e+00
2.316258186590166801e+00
2.319070772423474924e+00
2.325633472701193583e+00
2.325633472701193583e+00
2.295820062868129341e+00
2.295820062868129341e+00
2.253818781090731527e+00
2.231693105868709726e+00
2.231693105868709726e+00
2.254381298257393418e+00
2.254381298257393418e+00
2.236943266090884119e+00
2.233943174535355514e+00
2.233943174535355514e+00
2.191379375591296252e+00
2.191379375591296252e+00
2.177316446424756524e+00
2.252506241035188150e+00
2.252506241035188150e+00
2.265631641590625023e+00
2.309695486312448587e+00
2.309695486312448587e+00
2.318133243812372069e+00
2.318133243812372069e+00
2.355259376812036454e+00
2.293757499923703591e+00
2.293757499923703591e+00
2.300132694479201767e+00
2.300132694479201767e+00
2.237130771813104602e+00
2.258693929868464956e+00
2.258693929868464956e+00
2.211067476424451339e+00
2.211067476424451339e+00
2.203754753257850751e+00
2.214630085146641392e+00
2.214630085146641392e+00
2.257381389812921579e+00
2.247068575090792386e+00
2.247068575090792386e+00
2.260006469924008776e+00
2.260006469924008776e+00
2.320383312479018745e+00
2.286069765312662039e+00
2.286069765312662039e+00
2.264881618701742649e+00
2.264881618701742649e+00
2.274069399090548504e+00
2.292257454145939732e+00
2.292257454145939732e+00
2.338008850367748082e+00
2.338008850367748082e+00
2.318508255256813033e+00
2.282694662312692468e+00
2.282694662312692468e+00
2.212942533646656607e+00
2.212942533646656607e+00
2.116189580980865070e+00
2.077563402203436382e+00
2.077563402203436382e+00
2.197379558702353020e+00
2.299195165868098911e+00
2.299195165868098911e+00
2.354696859645375007e+00
2.354696859645375007e+00
2.280069582201605716e+00
2.332571184423352761e+00
2.332571184423352761e+00
2.340071413312173831e+00
2.340071413312173831e+00
2.288507339701529197e+00
2.309882992034669069e+00
2.309882992034669069e+00
2.278757042146061895e+00
2.278757042146061895e+00
2.280819605090487201e+00
2.243130954924161813e+00
2.243130954924161813e+00
2.137565233314004942e+00
2.137565233314004942e+00
2.167941160313730187e+00
2.133065095980712478e+00
2.133065095980712478e+00
2.223067842646564873e+00
2.289069856868190644e+00
2.289069856868190644e+00
2.374197454756310055e+00
2.374197454756310055e+00
2.427824091311380439e+00
2.421636402478102745e+00
2.421636402478102745e+00
2.376635029145176325e+00
2.376635029145176325e+00
2.262819055757316900e+00
2.176753929258095077e+00
2.176753929258095077e+00
2.145815485091708386e+00
2.145815485091708386e+00
2.184254158146916147e+00
2.226442945646534444e+00
2.226442945646534444e+00
2.236380748924222672e+00
2.236380748924222672e+00
2.266569170201727434e+00
2.248193609424115724e+00
2.248193609424115724e+00
2.313633106479079604e+00
2.313633106479079604e+00
2.316445692312387283e+00
2.275006927701650916e+00
2.275006927701650916e+00
2.273881893368328022e+00
2.334446241645558029e+00
2.334446241645558029e+00
2.342696493423261028e+00
2.342696493423261028e+00
2.315133152256843907e+00
2.283444685201574842e+00
2.283444685201574842e+00
2.207504867702261730e+00
2.172253791924802613e+00
2.172253791924802613e+00
2.163628528702658205e+00
2.163628528702658205e+00
2.173941343424787398e+00
2.112439466536454535e+00
2.112439466536454535e+00
2.146378002258369833e+00
2.146378002258369833e+00
2.211254982146671821e+00
2.350946745200964472e+00
2.350946745200964472e+00
2.390697958311716054e+00
2.390697958311716054e+00
2.368009765923032361e+00
2.335946287423322332e+00
2.335946287423322332e+00
2.242943449201941331e+00
2.242943449201941331e+00
2.260568987090670667e+00
2.255318826868495830e+00
2.255318826868495830e+00
2.235818231757560781e+00
2.196442030091250608e+00
2.196442030091250608e+00
2.170003723258155937e+00
2.170003723258155937e+00
2.194566972869045340e+00
2.252506241035188150e+00
2.252506241035188150e+00
2.280069582201605716e+00
2.280069582201605716e+00
2.331821161534470832e+00
2.281944639423810539e+00
2.281944639423810539e+00
2.326946012756737403e+00
2.326946012756737403e+00
2.349634205145421095e+00
2.339321390423291458e+00
2.339321390423291458e+00
2.286819788201544412e+00
2.286819788201544412e+00
2.251193700979644330e+00
2.252506241035188150e+00
2.252506241035188150e+00
2.228318002868740155e+00
2.228318002868740155e+00
2.165503585924863472e+00
2.250068666646320992e+00
2.250068666646320992e+00
2.346634113589892490e+00
2.250068666646320992e+00
2.250068666646320992e+00
2.192691915646840073e+00
2.192691915646840073e+00
2.306320383312479017e+00
2.359384502700888397e+00
2.359384502700888397e+00
2.284382213812677254e+00
2.364259651478621826e+00
2.364259651478621826e+00
2.249506149479659545e+00
2.249506149479659545e+00
2.152753196813867564e+00
2.228318002868740155e+00
2.228318002868740155e+00
2.219317728202154782e+00
2.219317728202154782e+00
2.273694387646107540e+00
2.299382671590319838e+00
2.299382671590319838e+00
2.219692739646595747e+00
2.219692739646595747e+00
2.168128666035950669e+00
2.214817590868861874e+00
2.214817590868861874e+00
2.274069399090548504e+00
2.332008667256691314e+00
2.332008667256691314e+00
2.306132877590258534e+00
2.306132877590258534e+00
2.300507705923642732e+00
2.284194708090456771e+00
2.284194708090456771e+00
2.264881618701742649e+00
2.264881618701742649e+00
2.308007934812463802e+00
2.377010040589617734e+00
2.377010040589617734e+00
2.317945738090151586e+00
2.317945738090151586e+00
2.237880794701986531e+00
2.209567430646687480e+00
2.209567430646687480e+00
2.119752189703054679e+00
2.119752189703054679e+00
2.101001617481002448e+00
2.117127109591967482e+00
2.117127109591967482e+00
2.242755943479720404e+00
2.314383129367961978e+00
2.314383129367961978e+00
2.371572374645222414e+00
2.371572374645222414e+00
2.453512375255592737e+00
2.516889309366130423e+00
2.516889309366130423e+00
2.296382580034791232e+00
2.296382580034791232e+00
2.197192052980132537e+00
2.126877407147435228e+00
2.126877407147435228e+00
2.180129032258064647e+00
2.180129032258064647e+00
2.216692648091067142e+00
2.221005279702139568e+00
2.221005279702139568e+00
2.263194067201757864e+00
2.263194067201757864e+00
2.307257911923581428e+00
2.302195257423627517e+00
2.302195257423627517e+00
2.221005279702139568e+00
2.221005279702139568e+00
2.296945097201452679e+00
2.357134434034241721e+00
2.357134434034241721e+00
2.321508346812341639e+00
2.253256263924070080e+00
2.253256263924070080e+00
2.248568620868556689e+00
2.248568620868556689e+00
2.218567705313272853e+00
2.300695211645863214e+00
2.300695211645863214e+00
2.233005645924253102e+00
2.242755943479720404e+00
2.242755943479720404e+00
2.274819421979430434e+00
2.274819421979430434e+00
2.193441938535722002e+00
2.238818323313089387e+00
2.238818323313089387e+00
2.330696127201147494e+00
2.330696127201147494e+00
2.304445326090273749e+00
2.274069399090548504e+00
2.274069399090548504e+00
2.185191686758019003e+00
2.185191686758019003e+00
2.236755760368663637e+00
2.279132053590502860e+00
2.279132053590502860e+00
2.335571275978881367e+00
2.335571275978881367e+00
2.342133976256599581e+00
2.315508163701284872e+00
2.315508163701284872e+00
2.274631916257209951e+00
2.248568620868556689e+00
2.248568620868556689e+00
2.214630085146641392e+00
2.214630085146641392e+00
2.238630817590868904e+00
2.206567339091158875e+00
2.206567339091158875e+00
2.281007110812707683e+00
2.281007110812707683e+00
2.242568437757499922e+00
2.190816858424634361e+00
2.190816858424634361e+00
2.093688894314401416e+00
2.204692281868953607e+00
2.204692281868953607e+00
2.299570177312540320e+00
2.299570177312540320e+00
2.387322855311746483e+00
2.317195715201269657e+00
2.317195715201269657e+00
2.365572191534165203e+00
2.365572191534165203e+00
2.377572557756279181e+00
2.336696310312204705e+00
2.336696310312204705e+00
2.369509811700796664e+00
2.299195165868098911e+00
2.299195165868098911e+00
2.201129673146763555e+00
2.201129673146763555e+00
2.130815027314065802e+00
2.062937955870235207e+00
2.062937955870235207e+00
2.156503311258278099e+00
2.156503311258278099e+00
2.349634205145421095e+00
2.390697958311716054e+00
2.390697958311716054e+00
2.411886104922635443e+00
2.411886104922635443e+00
2.356196905423139309e+00
2.166816125980407293e+00
2.166816125980407293e+00
2.247631092257453833e+00
2.319633289590136371e+00
2.319633289590136371e+00
2.234505691702016961e+00
2.234505691702016961e+00
2.193066927091281038e+00
2.169253700369274007e+00
2.169253700369274007e+00
2.199254615924558287e+00
2.199254615924558287e+00
2.235630726035340299e+00
2.278007019257179522e+00
2.278007019257179522e+00
2.306320383312479017e+00
2.306320383312479017e+00
2.258506424146244473e+00
2.327133518478957885e+00
2.327133518478957885e+00
2.346821619312112972e+00
2.346821619312112972e+00
2.355821893978697901e+00
2.289069856868190644e+00
2.289069856868190644e+00
2.239380840479750834e+00
2.174316354869228363e+00
2.174316354869228363e+00
2.144502945036164565e+00
2.144502945036164565e+00
2.250631183812982439e+00
2.329946104312265120e+00
2.329946104312265120e+00
2.337821344645527599e+00
2.337821344645527599e+00
2.318133243812372069e+00
2.245006012146367080e+00
2.245006012146367080e+00
2.257568895535142062e+00
2.257568895535142062e+00
2.271069307535019899e+00
2.408511001922666317e+00
2.408511001922666317e+00
2.374009949034089573e+00
2.199817133091219734e+00
2.199817133091219734e+00
2.216505142368846659e+00
2.216505142368846659e+00
2.196629535813471090e+00
2.145252967925046494e+00
2.145252967925046494e+00
2.290194891201513983e+00
2.290194891201513983e+00
2.171503769035920239e+00
2.140190313425092139e+00
2.140190313425092139e+00
2.327321024201178368e+00
2.327321024201178368e+00
2.391260475478377501e+00
2.312508072145756710e+00
2.312508072145756710e+00
2.331258644367808941e+00
2.238818323313089387e+00
2.238818323313089387e+00
2.283444685201574842e+00
2.283444685201574842e+00
2.308382946256904766e+00
2.283069673757133433e+00
2.283069673757133433e+00
2.358446974089785542e+00
2.306882900479140464e+00
2.306882900479140464e+00
2.280819605090487201e+00
2.280819605090487201e+00
2.114502029480880285e+00
2.040249763481551515e+00
2.040249763481551515e+00
2.130815027314065802e+00
2.130815027314065802e+00
2.281757133701590057e+00
2.364259651478621826e+00
2.364259651478621826e+00
2.392760521256141804e+00
2.392760521256141804e+00
2.421448896755882263e+00
2.322633381145664977e+00
2.322633381145664977e+00
2.255881344035157721e+00
2.255881344035157721e+00
2.237318277535325084e+00
2.358071962645344577e+00
2.358071962645344577e+00
2.268631733146153184e+00
2.282507156590471986e+00
2.282507156590471986e+00
2.299945188756981285e+00
2.299945188756981285e+00
2.345696584978789634e+00
2.302570268868068482e+00
2.302570268868068482e+00
2.295632557145908859e+00
2.295632557145908859e+00
2.139440290536210654e+00
2.046062440870388244e+00
2.046062440870388244e+00
2.200192144535660699e+00
2.200192144535660699e+00
2.287382305368205859e+00
2.277819513534959039e+00
2.277819513534959039e+00
2.360134525589770327e+00
2.360134525589770327e+00
2.265069124423963132e+00
2.243880977813043742e+00
2.243880977813043742e+00
2.269381756035035114e+00
2.269381756035035114e+00
2.231505600146489243e+00
2.216130130924405695e+00
2.216130130924405695e+00
2.255693838312936794e+00
2.287757316812646824e+00
2.287757316812646824e+00
2.296570085757011714e+00
2.296570085757011714e+00
2.213692556535538980e+00
2.187066743980223826e+00
2.187066743980223826e+00
2.137190221869563977e+00
2.137190221869563977e+00
2.341008941923276243e+00
2.336133793145542814e+00
2.336133793145542814e+00
2.189879329813531950e+00
2.189879329813531950e+00
2.224005371257667729e+00
2.251568712424085295e+00
2.251568712424085295e+00
2.325445966978973100e+00
2.325445966978973100e+00
2.435511825922421991e+00
2.346821619312112972e+00
2.346821619312112972e+00
2.260381481368449741e+00
2.170003723258155937e+00
2.170003723258155937e+00
2.284194708090456771e+00
2.284194708090456771e+00
2.257943906979583026e+00
2.242193426313058957e+00
2.242193426313058957e+00
2.248943632312997654e+00
2.248943632312997654e+00
2.366322214423047576e+00
2.368947294534135217e+00
2.368947294534135217e+00
2.281944639423810539e+00
2.281944639423810539e+00
2.299382671590319838e+00
2.270131778923917043e+00
2.270131778923917043e+00
2.163253517258217240e+00
2.163253517258217240e+00
1.998998504593035630e+00
2.201317178868984037e+00
2.201317178868984037e+00
2.270881801812799416e+00
2.362572099978637485e+00
2.362572099978637485e+00
2.344946562089907705e+00
2.344946562089907705e+00
2.332196172978911797e+00
2.330696127201147494e+00
2.330696127201147494e+00
2.210692464980010374e+00
2.210692464980010374e+00
2.105501754814294912e+00
2.080000976592303541e+00
2.080000976592303541e+00
2.103626697592089645e+00
2.103626697592089645e+00
2.351884273812066883e+00
2.539014984588152668e+00
2.539014984588152668e+00
2.483513290810876573e+00
2.483513290810876573e+00
2.289444868312631609e+00
2.153690725424969976e+00
2.153690725424969976e+00
2.205254799035615054e+00
2.257006378368480615e+00
2.257006378368480615e+00
2.138315256202887316e+00
2.138315256202887316e+00
2.116189580980865070e+00
2.297320108645893644e+00
2.297320108645893644e+00
2.428574114200262368e+00
2.428574114200262368e+00
2.324133426923429280e+00
2.248381115146336207e+00
2.248381115146336207e+00
2.130065004425183872e+00
2.190816858424634361e+00
2.190816858424634361e+00
2.242005920590838475e+00
2.242005920590838475e+00
2.336321298867763296e+00
2.361072054200873183e+00
2.361072054200873183e+00
2.298632648701437464e+00
2.298632648701437464e+00
2.208254890591143660e+00
2.319633289590136371e+00
2.319633289590136371e+00
2.290757408368175430e+00
2.290757408368175430e+00
2.181066560869167059e+00
2.281757133701590057e+00
2.281757133701590057e+00
2.338008850367748082e+00
2.316445692312387283e+00
2.316445692312387283e+00
2.297882625812555535e+00
2.297882625812555535e+00
2.229068025757622085e+00
2.129689992980742907e+00
2.129689992980742907e+00
2.172441297647023095e+00
2.172441297647023095e+00
2.142815393536179780e+00
2.092938871425519931e+00
2.092938871425519931e+00
2.190441846980193397e+00
2.190441846980193397e+00
2.386385326700643628e+00
2.453324869533372254e+00
2.453324869533372254e+00
2.348134159367656792e+00
2.348134159367656792e+00
2.246693563646351421e+00
2.296757591479232197e+00
2.296757591479232197e+00
2.266006653035065987e+00
2.227755485702078264e+00
2.227755485702078264e+00
2.176191412091433186e+00
2.176191412091433186e+00
2.156690816980498582e+00
2.050562578203680708e+00
2.050562578203680708e+00
1.980622943815424142e+00
1.980622943815424142e+00
2.248756126590777171e+00
2.309695486312448587e+00
2.309695486312448587e+00
2.290757408368175430e+00
2.290757408368175430e+00
2.310820520645771925e+00
2.197379558702353020e+00
2.197379558702353020e+00
2.309882992034669069e+00
2.405323404644917229e+00
2.405323404644917229e+00
2.363134617145298488e+00
2.363134617145298488e+00
2.283257179479354360e+00
2.200754661702322146e+00
2.200754661702322146e+00
2.193816949980162967e+00
2.293194982757042144e+00
2.293194982757042144e+00
2.263756584368419311e+00
2.263756584368419311e+00
2.081501022370067400e+00
2.030499465926084213e+00
2.030499465926084213e+00
1.936559099093600356e+00
1.936559099093600356e+00
1.952684591204565612e+00
2.302195257423627517e+00
2.302195257423627517e+00
2.516701803643909940e+00
2.516701803643909940e+00
2.526077089754936722e+00
2.452949858088931290e+00
2.452949858088931290e+00
2.362572099978637485e+00
2.362572099978637485e+00
2.425949034089175171e+00
2.351696768089846401e+00
2.351696768089846401e+00
2.172816309091464060e+00
2.063312967314676172e+00
2.063312967314676172e+00
2.069125644703512901e+00
2.069125644703512901e+00
2.177128940702536042e+00
2.085251136814477935e+00
2.085251136814477935e+00
2.084313608203375079e+00
2.084313608203375079e+00
2.209567430646687480e+00
2.256068849757378203e+00
2.256068849757378203e+00
2.248381115146336207e+00
2.248381115146336207e+00
2.267319193090609808e+00
2.376822534867396808e+00
2.376822534867396808e+00
2.331633655812249906e+00
2.331633655812249906e+00
2.255318826868495830e+00
2.179941526535844165e+00
2.179941526535844165e+00
2.309132969145787140e+00
2.239755851924192243e+00
2.239755851924192243e+00
2.324320932645649762e+00
2.324320932645649762e+00
2.264319101535081202e+00
2.193816949980162967e+00
2.193816949980162967e+00
2.181629078035828950e+00
2.181629078035828950e+00
2.373634937589648164e+00
2.274444410534989469e+00
2.274444410534989469e+00
2.260193975646229259e+00
2.260193975646229259e+00
2.259818964201788294e+00
2.265069124423963132e+00
2.265069124423963132e+00
2.240693380535294654e+00
2.341946470534379099e+00
2.314008117923521013e+00
2.314008117923521013e+00
2.312508072145756710e+00
2.312508072145756710e+00
2.251193700979644330e+00
2.218380199591051927e+00
2.218380199591051927e+00
2.166253608813745402e+00
2.179191503646961792e+00
2.179191503646961792e+00
2.236568254646443155e+00
2.236568254646443155e+00
2.253068758201849597e+00
2.170378734702597345e+00
2.170378734702597345e+00
2.320945829645680192e+00
2.320945829645680192e+00
2.418448805200354101e+00
2.405323404644917229e+00
2.405323404644917229e+00
2.458200018311105683e+00
2.458200018311105683e+00
2.254006286812952009e+00
2.214442579424420909e+00
2.214442579424420909e+00
2.154628254036072832e+00
2.154628254036072832e+00
2.322445875423444495e+00
2.277819513534959039e+00
2.277819513534959039e+00
2.165128574480422063e+00
2.279132053590502860e+00
2.279132053590502860e+00
2.175253883480330774e+00
2.175253883480330774e+00
2.237130771813104602e+00
2.348696676534318240e+00
2.348696676534318240e+00
2.406448438978240567e+00
2.406448438978240567e+00
2.342883999145481511e+00
2.192879421369060555e+00
2.192879421369060555e+00
2.045874935148167761e+00
2.045874935148167761e+00
2.094813928647724754e+00
2.390697958311716054e+00
2.390697958311716054e+00
2.458387524033326166e+00
2.458387524033326166e+00
2.305382854701376161e+00
2.212192510757774677e+00
2.212192510757774677e+00
2.253256263924070080e+00
2.228130497146519229e+00
2.228130497146519229e+00
2.230005554368724940e+00
2.325633472701193583e+00
2.325633472701193583e+00
2.300132694479201767e+00
2.300132694479201767e+00
2.147503036591693171e+00
2.234318185979796478e+00
2.280819605090487201e+00
2.280819605090487201e+00
2.371384868923001932e+00
2.371384868923001932e+00
2.357884456923124095e+00
2.079250953703421168e+00
2.079250953703421168e+00
2.218005188146610962e+00
2.218005188146610962e+00
2.385822809533982625e+00
2.411698599200414961e+00
2.411698599200414961e+00
2.438324411755729670e+00
2.207879879146702695e+00
2.207879879146702695e+00
1.988123172704245212e+00
1.988123172704245212e+00
1.904870632038331291e+00
1.904120609149449139e+00
1.904120609149449139e+00
2.258693929868464956e+00
2.258693929868464956e+00
2.645330729087191468e+00
2.722020569475386953e+00
2.722020569475386953e+00
2.517076815088350905e+00
2.517076815088350905e+00
2.258881435590685438e+00
2.228130497146519229e+00
2.228130497146519229e+00
2.308007934812463802e+00
2.190066835535752432e+00
2.190066835535752432e+00
2.157628345591601438e+00
2.157628345591601438e+00
2.133252601702932960e+00
2.179566515091402756e+00
2.179566515091402756e+00
2.057687795648060813e+00
2.057687795648060813e+00
2.260943998535111632e+00
2.467200292977691056e+00
2.467200292977691056e+00
2.342883999145481511e+00
2.342883999145481511e+00
2.242005920590838475e+00
2.351321756645405436e+00
2.351321756645405436e+00
2.197379558702353020e+00
2.197379558702353020e+00
2.091251319925535146e+00
2.134940153202917745e+00
2.134940153202917745e+00
2.196254524369030126e+00
2.256256355479598685e+00
2.256256355479598685e+00
2.343446516312143402e+00
2.343446516312143402e+00
2.278569536423841413e+00
2.209192419202246516e+00
2.209192419202246516e+00
2.225505417035432032e+00
2.225505417035432032e+00
2.317758232367931104e+00
2.375134983367412023e+00
2.375134983367412023e+00
2.248381115146336207e+00
2.248381115146336207e+00
2.428574114200262368e+00
2.426699056978057101e+00
2.426699056978057101e+00
2.354321848200934042e+00
2.319258278145695407e+00
2.319258278145695407e+00
2.096126468703268575e+00
2.096126468703268575e+00
2.229068025757622085e+00
2.137752739036225869e+00
2.137752739036225869e+00
2.226255439924313961e+00
2.310070497756889552e+00
2.310070497756889552e+00
2.457825006866664719e+00
2.457825006866664719e+00
2.196629535813471090e+00
2.171878780480361648e+00
2.171878780480361648e+00
2.290757408368175430e+00
2.290757408368175430e+00
2.292632465590380253e+00
2.446012146366771223e+00
2.446012146366771223e+00
2.278569536423841413e+00
2.278569536423841413e+00
2.285694753868221074e+00
2.237318277535325084e+00
2.237318277535325084e+00
2.217817682424390480e+00
2.217817682424390480e+00
2.172441297647023095e+00
2.200567155980101663e+00
2.200567155980101663e+00
2.105501754814294912e+00
2.173566331980346433e+00
2.173566331980346433e+00
2.176003906369212704e+00
2.176003906369212704e+00
2.083938596758934114e+00
2.314570635090182460e+00
2.314570635090182460e+00
2.153878231147190458e+00
2.153878231147190458e+00
2.259256447035126847e+00
2.511451643421735547e+00
2.511451643421735547e+00
2.598829309976500745e+00
2.598829309976500745e+00
2.528889675588243957e+00
2.330696127201147494e+00
2.330696127201147494e+00
2.253068758201849597e+00
2.253068758201849597e+00
2.348134159367656792e+00
2.311008026367992407e+00
2.311008026367992407e+00
2.292257454145939732e+00
2.292257454145939732e+00
2.066500564592425260e+00
2.066688070314646186e+00
2.066688070314646186e+00
2.237505783257545566e+00
2.261506515701773079e+00
2.261506515701773079e+00
2.311945554979094819e+00
2.311945554979094819e+00
2.334258735923337547e+00
2.294695028534806447e+00
2.294695028534806447e+00
2.259818964201788294e+00
2.259818964201788294e+00
2.264506607257301685e+00
2.272194341868343237e+00
2.272194341868343237e+00
2.026936857203894160e+00
2.026936857203894160e+00
2.179566515091402756e+00
2.317195715201269657e+00
2.317195715201269657e+00
2.179379009369182274e+00
2.179379009369182274e+00
2.152378185369426600e+00
2.342321481978820064e+00
2.342321481978820064e+00
2.439449446089053009e+00
2.526077089754936722e+00
2.526077089754936722e+00
2.489138462477492819e+00
2.489138462477492819e+00
2.357696951200903612e+00
2.286632282479323930e+00
2.286632282479323930e+00
2.306507889034699499e+00
2.306507889034699499e+00
2.291694936979278285e+00
2.151065645313883223e+00
2.151065645313883223e+00
1.818993011261330173e+00
1.818993011261330173e+00
2.068938138981292418e+00
2.530577227088229186e+00
2.530577227088229186e+00
2.300132694479201767e+00
2.300132694479201767e+00
2.297320108645893644e+00
2.223255348368785356e+00
2.223255348368785356e+00
2.246506057924130939e+00
2.304632831812494231e+00
2.304632831812494231e+00
2.347759147923215384e+00
2.347759147923215384e+00
2.359196996978667915e+00
2.270881801812799416e+00
2.270881801812799416e+00
2.497951231421857266e+00
2.497951231421857266e+00
2.349259193700979687e+00
2.224942899868770141e+00
2.224942899868770141e+00
2.153503219702749494e+00
2.153503219702749494e+00
1.879744865260780662e+00
2.104001709036531054e+00
2.104001709036531054e+00
2.293945005645924073e+00
2.389572923978392716e+00
2.389572923978392716e+00
2.363322122867518971e+00
2.363322122867518971e+00
2.278757042146061895e+00
2.208629902035584625e+00
2.208629902035584625e+00
2.158753379924924776e+00
2.197567064424573946e+00
2.197567064424573946e+00
2.279132053590502860e+00
2.279132053590502860e+00
2.296195074312570750e+00
2.356009399700918827e+00
2.356009399700918827e+00
2.347759147923215384e+00
2.347759147923215384e+00
2.284757225257118218e+00
2.255318826868495830e+00
2.255318826868495830e+00
2.232068117313150690e+00
2.160628437147130043e+00
2.160628437147130043e+00
2.130815027314065802e+00
2.130815027314065802e+00
2.164378551591540134e+00
2.576141117587817053e+00
2.576141117587817053e+00
2.542577593310342721e+00
2.542577593310342721e+00
2.206942350535599839e+00
2.315508163701284872e+00
2.315508163701284872e+00
2.444887112033448329e+00
2.444887112033448329e+00
2.140940336313974068e+00
2.068000610370189563e+00
2.068000610370189563e+00
2.237130771813104602e+00
2.352446790978728330e+00
2.352446790978728330e+00
2.347009125034333454e+00
2.347009125034333454e+00
2.191379375591296252e+00
2.110939420758690233e+00
2.110939420758690233e+00
2.171878780480361648e+00
2.171878780480361648e+00
2.175441389202551257e+00
2.474138004699850679e+00
2.474138004699850679e+00
2.510889126255073656e+00
2.510889126255073656e+00
2.467762810144352947e+00
2.315320657979064389e+00
2.315320657979064389e+00
2.086001159703360308e+00
2.086001159703360308e+00
1.957934751426740450e+00
2.284194708090456771e+00
2.284194708090456771e+00
2.341196447645496725e+00
2.079813470870083059e+00
2.079813470870083059e+00
2.251943723868526259e+00
2.251943723868526259e+00
2.448074709311197417e+00
2.213505050813318054e+00
2.213505050813318054e+00
1.969560106204413019e+00
1.969560106204413019e+00
2.125189855647450443e+00
2.426324045533616136e+00
2.426324045533616136e+00
2.306882900479140464e+00
2.306882900479140464e+00
2.311008026367992407e+00
2.252131229590746742e+00
2.252131229590746742e+00
2.025811822870570822e+00
2.025811822870570822e+00
2.395010589922788480e+00
2.467387798699911539e+00
2.467387798699911539e+00
2.443574571977904952e+00
2.301820245979186552e+00
2.301820245979186552e+00
2.239755851924192243e+00
2.239755851924192243e+00
2.253631275368511044e+00
2.141690359202856442e+00
2.141690359202856442e+00
2.107751823480941145e+00
2.107751823480941145e+00
2.175816400646992221e+00
2.535827387310404024e+00
2.535827387310404024e+00
2.532452284310434454e+00
2.532452284310434454e+00
2.321508346812341639e+00
2.112439466536454535e+00
2.112439466536454535e+00
2.127627430036317158e+00
2.127627430036317158e+00
2.242755943479720404e+00
2.311195532090212890e+00
2.311195532090212890e+00
2.410761070589312105e+00
2.410761070589312105e+00
2.235443220313119816e+00
2.234130680257575996e+00
2.234130680257575996e+00
2.189129306924649576e+00
2.093126377147739969e+00
2.093126377147739969e+00
2.209379924924466998e+00
2.209379924924466998e+00
2.449199743644520311e+00
2.487450910977508034e+00
2.487450910977508034e+00
2.331071138645588459e+00
2.331071138645588459e+00
2.195692007202368234e+00
2.065188024536881883e+00
2.065188024536881883e+00
2.215755119479964730e+00
2.215755119479964730e+00
2.241068391979735619e+00
2.220630268257698603e+00
2.220630268257698603e+00
2.104564226203192501e+00
2.170378734702597345e+00
2.170378734702597345e+00
2.176566423535874595e+00
2.176566423535874595e+00
2.110751915036469750e+00
2.128939970091860534e+00
2.128939970091860534e+00
2.354696859645375007e+00
2.354696859645375007e+00
2.595641712698752102e+00
2.755396588030640803e+00
2.755396588030640803e+00
2.554577959532456255e+00
2.554577959532456255e+00
2.359572008423108880e+00
2.280257087923826198e+00
2.301070223090304623e+00
2.301070223090304623e+00
2.273506881923887057e+00
2.181254066591387542e+00
2.181254066591387542e+00
2.070063173314615312e+00
2.070063173314615312e+00
1.930746421704764071e+00
1.954372142704550397e+00
1.954372142704550397e+00
2.296945097201452679e+00
2.296945097201452679e+00
2.381885189367351607e+00
2.181254066591387542e+00
2.181254066591387542e+00
2.420511368144779851e+00
2.420511368144779851e+00
2.498513748588519157e+00
2.438324411755729670e+00
2.438324411755729670e+00
2.260568987090670667e+00
2.069125644703512901e+00
2.069125644703512901e+00
2.180129032258064647e+00
2.180129032258064647e+00
2.080188482314524023e+00
2.043999877925962494e+00
2.043999877925962494e+00
2.323195898312326424e+00
2.323195898312326424e+00
2.248006103701895242e+00
2.383572740867336393e+00
2.383572740867336393e+00
2.531139744254890633e+00
2.531139744254890633e+00
2.492138554033020981e+00
2.370822351756340485e+00
2.370822351756340485e+00
2.322070863979003530e+00
2.105126743369853504e+00
2.105126743369853504e+00
1.956622211371196629e+00
1.956622211371196629e+00
2.278569536423841413e+00
2.188004272591326682e+00
2.188004272591326682e+00
2.224192876979888212e+00
2.224192876979888212e+00
2.365384685811944721e+00
2.352821802423169739e+00
2.352821802423169739e+00
2.274819421979430434e+00
2.274819421979430434e+00
2.217630176702169997e+00
2.092751365703299449e+00
2.092751365703299449e+00
2.310633014923550999e+00
2.320758323923459709e+00
2.320758323923459709e+00
2.382635212256233537e+00
2.400260750144962874e+00
2.400260750144962874e+00
2.294882534257026929e+00
2.094626422925504272e+00
2.094626422925504272e+00
2.252131229590746742e+00
2.252131229590746742e+00
2.264506607257301685e+00
2.178066469313638454e+00
2.178066469313638454e+00
2.221005279702139568e+00
2.221005279702139568e+00
2.263006561479537382e+00
2.347196630756553937e+00
2.347196630756553937e+00
2.352634296700948813e+00
2.352634296700948813e+00
2.482950773644215126e+00
2.277819513534959039e+00
2.277819513534959039e+00
2.088438734092227023e+00
2.024499282815027001e+00
2.024499282815027001e+00
2.170941251869258792e+00
2.170941251869258792e+00
2.216692648091067142e+00
2.371572374645222414e+00
2.371572374645222414e+00
2.476950590533158358e+00
2.476950590533158358e+00
2.416198736533707869e+00
2.402510818811609106e+00
2.402510818811609106e+00
2.256068849757378203e+00
2.256068849757378203e+00
2.131752555925168657e+00
2.129877498702963390e+00
2.129877498702963390e+00
2.197192052980132537e+00
2.298820154423657947e+00
2.298820154423657947e+00
2.357884456923124095e+00
2.357884456923124095e+00
2.090501297036652772e+00
2.284007202368236289e+00
2.284007202368236289e+00
2.418261299478133619e+00
2.418261299478133619e+00
2.244255989257484707e+00
2.212380016479995160e+00
2.212380016479995160e+00
2.177503952146977007e+00
2.177503952146977007e+00
2.275381939146092325e+00
2.263381572923978347e+00
2.263381572923978347e+00
2.310820520645771925e+00
2.310820520645771925e+00
2.391822992645039392e+00
2.407573473311563461e+00
2.407573473311563461e+00
2.085813653981139382e+00
2.071750724814600098e+00
2.071750724814600098e+00
2.284944730979339145e+00
2.284944730979339145e+00
2.349821710867641578e+00
2.389760429700613198e+00
2.389760429700613198e+00
2.266381664479506952e+00
2.266381664479506952e+00
2.098376537369914807e+00
2.015874019592883037e+00
2.015874019592883037e+00
2.151815668202764709e+00
2.261881527146214044e+00
2.261881527146214044e+00
2.630517777031769810e+00
2.630517777031769810e+00
2.537514938810388809e+00
2.366322214423047576e+00
2.366322214423047576e+00
2.212192510757774677e+00
2.212192510757774677e+00
2.312695577867977192e+00
2.114502029480880285e+00
2.114502029480880285e+00
2.089751274147770843e+00
2.089751274147770843e+00
2.187254249702444309e+00
2.244631000701926116e+00
2.244631000701926116e+00
2.160065919980468152e+00
2.179379009369182274e+00
2.179379009369182274e+00
2.359009491256446989e+00
2.359009491256446989e+00
2.542765099032563203e+00
2.533764824365978274e+00
2.533764824365978274e+00
2.321883358256782603e+00
2.321883358256782603e+00
2.294320017090365038e+00
2.140565324869533104e+00
2.140565324869533104e+00
2.045499923703726353e+00
2.045499923703726353e+00
2.207692373424482213e+00
2.304632831812494231e+00
2.304632831812494231e+00
2.259631458479567812e+00
2.259631458479567812e+00
2.179754020813623683e+00
2.236755760368663637e+00
2.236755760368663637e+00
2.287194799645985377e+00
2.233380657368694511e+00
2.233380657368694511e+00
2.226255439924313961e+00
2.226255439924313961e+00
2.284194708090456771e+00
2.296945097201452679e+00
2.296945097201452679e+00
2.333133701590014208e+00
2.333133701590014208e+00
2.251006195257423848e+00
2.247443586535233351e+00
2.247443586535233351e+00
2.234505691702016961e+00
2.234505691702016961e+00
2.331821161534470832e+00
2.284757225257118218e+00
2.284757225257118218e+00
2.197942075869014911e+00
2.197942075869014911e+00
2.324508438367870244e+00
2.526077089754936722e+00
2.526077089754936722e+00
2.413011139255958781e+00
2.391447981200597983e+00
2.391447981200597983e+00
2.128377452925199087e+00
2.128377452925199087e+00
1.858744224372081755e+00
2.086938688314462720e+00
2.086938688314462720e+00
2.293194982757042144e+00
2.293194982757042144e+00
2.357696951200903612e+00
2.407385967589342979e+00
2.407385967589342979e+00
2.443199560533463544e+00
2.443199560533463544e+00
2.338196356089969008e+00
2.306132877590258534e+00
2.306132877590258534e+00
2.169066194647053525e+00
2.169066194647053525e+00
2.150503128147221332e+00
2.125564867091891408e+00
2.125564867091891408e+00
2.191754387035737217e+00
2.256068849757378203e+00
2.256068849757378203e+00
2.347759147923215384e+00
2.347759147923215384e+00
2.261881527146214044e+00
2.210317453535568966e+00
2.210317453535568966e+00
2.389760429700613198e+00
2.389760429700613198e+00
2.405135898922696747e+00
2.276694479201635701e+00
2.276694479201635701e+00
2.238818323313089387e+00
2.238818323313089387e+00
2.284757225257118218e+00
2.299195165868098911e+00
2.299195165868098911e+00
2.276319467757194737e+00
2.376447523422955843e+00
2.376447523422955843e+00
2.402323313089388623e+00
2.402323313089388623e+00
2.231505600146489243e+00
2.103064180425428198e+00
2.103064180425428198e+00
2.247256080813012868e+00
2.247256080813012868e+00
2.146565507980590315e+00
2.209192419202246516e+00
2.209192419202246516e+00
2.199817133091219734e+00
2.199817133091219734e+00
2.175816400646992221e+00
2.183316629535813735e+00
2.183316629535813735e+00
2.270319284646137969e+00
2.270319284646137969e+00
2.389947935422834124e+00
2.337633838923307117e+00
2.337633838923307117e+00
2.344009033478804849e+00
2.344009033478804849e+00
2.285882259590441556e+00
2.304445326090273749e+00
2.304445326090273749e+00
2.261694021423993561e+00
2.270694296090578934e+00
2.270694296090578934e+00
2.317945738090151586e+00
2.339133884701071420e+00
2.339133884701071420e+00
2.274069399090548504e+00
2.274069399090548504e+00
2.269006744590594149e+00
2.225317911313211550e+00
2.225317911313211550e+00
2.111501937925351680e+00
2.111501937925351680e+00
2.228318002868740155e+00
2.193441938535722002e+00
2.193441938535722002e+00
2.209192419202246516e+00
2.252318735312967224e+00
2.252318735312967224e+00
2.364822168645283273e+00
2.364822168645283273e+00
2.291882442701498768e+00
2.382260200811792572e+00
2.382260200811792572e+00
2.404760887478255782e+00
2.404760887478255782e+00
2.197754570146794428e+00
2.327321024201178368e+00
2.327321024201178368e+00
2.252693746757408633e+00
2.252693746757408633e+00
2.241255897701956545e+00
2.158940885647145258e+00
2.158940885647145258e+00
2.232255623035371173e+00
2.232255623035371173e+00
2.311570543534653854e+00
2.373072420422986717e+00
2.373072420422986717e+00
2.144690450758385047e+00
2.259443952757347329e+00
2.259443952757347329e+00
2.423136448255867048e+00
2.423136448255867048e+00
2.289257362590411127e+00
2.244255989257484707e+00
2.244255989257484707e+00
2.252131229590746742e+00
2.252131229590746742e+00
2.163628528702658205e+00
2.134377636036255854e+00
2.134377636036255854e+00
2.260756492812891150e+00
2.260756492812891150e+00
2.230755577257606870e+00
2.199067110202337361e+00
2.199067110202337361e+00
2.346446607867672007e+00
2.419198828089236475e+00
2.419198828089236475e+00
2.392010498367259874e+00
2.392010498367259874e+00
2.296007568590349823e+00
2.248568620868556689e+00
2.248568620868556689e+00
2.229630542924283532e+00
2.229630542924283532e+00
2.113939512314218838e+00
2.085626148258918899e+00
2.085626148258918899e+00
2.330133610034486047e+00
2.330133610034486047e+00
2.332571184423352761e+00
2.368572283089693808e+00
2.368572283089693808e+00
2.367072237311929506e+00
2.403260841700491479e+00
2.403260841700491479e+00
2.225317911313211550e+00
2.225317911313211550e+00
2.078313425092318756e+00
1.956434705648976147e+00
1.956434705648976147e+00
2.060500381481368493e+00
2.060500381481368493e+00
2.504513931699575480e+00
2.498138737144077748e+00
2.498138737144077748e+00
2.431011688589129527e+00
2.431011688589129527e+00
2.247256080813012868e+00
2.389760429700613198e+00
2.389760429700613198e+00
2.352071779534287366e+00
2.352071779534287366e+00
2.144690450758385047e+00
2.268256721701712220e+00
2.268256721701712220e+00
2.166253608813745402e+00
2.164753563035981099e+00
2.164753563035981099e+00
2.171316263313699757e+00
2.171316263313699757e+00
2.349821710867641578e+00
2.289632374034852091e+00
2.289632374034852091e+00
2.180504043702505612e+00
2.180504043702505612e+00
2.241068391979735619e+00
2.391635486922818910e+00
2.391635486922818910e+00
2.438324411755729670e+00
2.438324411755729670e+00
2.390322946867275089e+00
2.173566331980346433e+00
2.173566331980346433e+00
2.208817407757805107e+00
2.208817407757805107e+00
2.279507065034943825e+00
2.280257087923826198e+00
2.280257087923826198e+00
2.166066103091524919e+00
2.182754112369151844e+00
2.182754112369151844e+00
2.228693014313181120e+00
2.228693014313181120e+00
2.144315439313944083e+00
2.257193884090700653e+00
2.257193884090700653e+00
2.282694662312692468e+00
2.282694662312692468e+00
2.362384594256416559e+00
2.341196447645496725e+00
2.341196447645496725e+00
2.109251869258705447e+00
2.299007660145878429e+00
2.299007660145878429e+00
2.417511276589251690e+00
2.304820337534714714e+00
2.304820337534714714e+00
2.314383129367961978e+00
2.314383129367961978e+00
2.272756859035004684e+00
2.214067567979979945e+00
2.214067567979979945e+00
2.305757866145817125e+00
2.305757866145817125e+00
2.389010406811731269e+00
2.358071962645344577e+00
2.358071962645344577e+00
2.220442762535478121e+00
2.220442762535478121e+00
2.316258186590166801e+00
2.210504959257789892e+00
2.210504959257789892e+00
2.256068849757378203e+00
2.223255348368785356e+00
2.223255348368785356e+00
2.100626606036561483e+00
2.100626606036561483e+00
2.160815942869350526e+00
2.241443403424177028e+00
2.241443403424177028e+00
2.259068941312906365e+00
2.259068941312906365e+00
2.288132328257088233e+00
2.278007019257179522e+00
2.278007019257179522e+00
2.266756675923947917e+00
2.266756675923947917e+00
2.256256355479598685e+00
2.160253425702688634e+00
2.160253425702688634e+00
2.173941343424787398e+00
2.173941343424787398e+00
2.205817316202276945e+00
2.413573656422620228e+00
2.413573656422620228e+00
2.389197912533951751e+00
2.347946653645436310e+00
2.347946653645436310e+00
2.341008941923276243e+00
2.341008941923276243e+00
2.386010315256203107e+00
2.192691915646840073e+00
2.192691915646840073e+00
2.152003173924985191e+00
2.152003173924985191e+00
2.227942991424298746e+00
2.256443861201819168e+00
2.256443861201819168e+00
2.311383037812433372e+00
2.311383037812433372e+00
2.341758964812158617e+00
2.315320657979064389e+00
2.315320657979064389e+00
2.290757408368175430e+00
2.333696218756676100e+00
2.333696218756676100e+00
2.298445142979216982e+00
2.298445142979216982e+00
2.213880062257759462e+00
2.180691549424726094e+00
2.180691549424726094e+00
2.112439466536454535e+00
2.112439466536454535e+00
2.229630542924283532e+00
2.359196996978667915e+00
2.359196996978667915e+00
2.293007477034821662e+00
2.293007477034821662e+00
2.329383587145603673e+00
2.178816492202520827e+00
2.178816492202520827e+00
2.219317728202154782e+00
2.308570451979125249e+00
2.308570451979125249e+00
2.278007019257179522e+00
2.278007019257179522e+00
2.144502945036164565e+00
2.262819055757316900e+00
2.262819055757316900e+00
2.341196447645496725e+00
2.341196447645496725e+00
2.363697134311959935e+00
2.348134159367656792e+00
2.348134159367656792e+00
2.263381572923978347e+00
2.263381572923978347e+00
2.319258278145695407e+00
2.348696676534318240e+00
2.348696676534318240e+00
2.276506973479415219e+00
2.087876216925565576e+00
2.087876216925565576e+00
1.995998413037507468e+00
1.995998413037507468e+00
2.105689260536515395e+00
2.348509170812097757e+00
2.348509170812097757e+00
2.433261757255775315e+00
2.433261757255775315e+00
2.442637043366802097e+00
2.347196630756553937e+00
2.347196630756553937e+00
2.306132877590258534e+00
2.306132877590258534e+00
2.212755027924436124e+00
2.145252967925046494e+00
2.145252967925046494e+00
2.189879329813531950e+00
2.323195898312326424e+00
2.323195898312326424e+00
2.364447157200842309e+00
2.364447157200842309e+00
2.274444410534989469e+00
2.242005920590838475e+00
2.242005920590838475e+00
2.181629078035828950e+00
2.181629078035828950e+00
2.151628162480544670e+00
2.327508529923398850e+00
2.327508529923398850e+00
2.349821710867641578e+00
2.349821710867641578e+00
2.362947111423078006e+00
2.177503952146977007e+00
2.177503952146977007e+00
2.124252327036347587e+00
2.124252327036347587e+00
2.361072054200873183e+00
2.397260658589434712e+00
2.397260658589434712e+00
2.343446516312143402e+00
2.213692556535538980e+00
2.213692556535538980e+00
2.253068758201849597e+00
2.253068758201849597e+00
2.113939512314218838e+00
2.139440290536210654e+00
2.139440290536210654e+00
2.194004455702383449e+00
2.353009308145390222e+00
2.353009308145390222e+00
2.463637684255501004e+00
2.463637684255501004e+00
2.362197088534196077e+00
2.360134525589770327e+00
2.360134525589770327e+00
2.264881618701742649e+00
2.264881618701742649e+00
2.104001709036531054e+00
2.276319467757194737e+00
2.276319467757194737e+00
2.368009765923032361e+00
2.368009765923032361e+00
2.237130771813104602e+00
2.336883816034425188e+00
2.336883816034425188e+00
2.189129306924649576e+00
2.189129306924649576e+00
2.051312601092562637e+00
2.096501480147709540e+00
2.096501480147709540e+00
2.156690816980498582e+00
2.288319833979308715e+00
2.288319833979308715e+00
2.434574297311319135e+00
2.434574297311319135e+00
2.429136631366924259e+00
2.419573839533677440e+00
2.419573839533677440e+00
2.299007660145878429e+00
2.299007660145878429e+00
2.303320291756950855e+00
2.317195715201269657e+00
2.317195715201269657e+00
2.266381664479506952e+00
2.266381664479506952e+00
2.252881252479629115e+00
2.117877132480849411e+00
2.117877132480849411e+00
2.199442121646778769e+00
2.164753563035981099e+00
2.164753563035981099e+00
2.149378093813898438e+00
2.149378093813898438e+00
2.203942258980071234e+00
2.366697225867488541e+00
2.366697225867488541e+00
2.476388073366496911e+00
2.476388073366496911e+00
2.451824823755607952e+00
2.369509811700796664e+00
2.369509811700796664e+00
2.248381115146336207e+00
2.248381115146336207e+00
2.267131687368389326e+00
2.209942442091128445e+00
2.209942442091128445e+00
2.151815668202764709e+00
2.151815668202764709e+00
2.008936307870723859e+00
2.168691183202612560e+00
2.168691183202612560e+00
2.226630451368755370e+00
2.226630451368755370e+00
2.267694204535050773e+00
2.353946836756492633e+00
2.353946836756492633e+00
2.413011139255958781e+00
2.330508621478927012e+00
2.330508621478927012e+00
2.292257454145939732e+00
2.292257454145939732e+00
2.332196172978911797e+00
2.326383495590075512e+00
2.326383495590075512e+00
2.214442579424420909e+00
2.214442579424420909e+00
2.194379467146824858e+00
2.303695303201391820e+00
2.303695303201391820e+00
2.345509079256569152e+00
2.345509079256569152e+00
2.297882625812555535e+00
2.270319284646137969e+00
2.270319284646137969e+00
2.250443678090761956e+00
2.250443678090761956e+00
2.148440565202795582e+00
2.073813287759025847e+00
2.073813287759025847e+00
2.132690084536271069e+00
2.344571550645466296e+00
2.344571550645466296e+00
2.429136631366924259e+00
2.429136631366924259e+00
2.369884823145237629e+00
2.299195165868098911e+00
2.299195165868098911e+00
2.257943906979583026e+00
2.257943906979583026e+00
2.146190496536149350e+00
2.095563951536606684e+00
2.095563951536606684e+00
2.167753654591509704e+00
2.167753654591509704e+00
2.285507248146000592e+00
2.332571184423352761e+00
2.332571184423352761e+00
2.364072145756401344e+00
2.364072145756401344e+00
2.314008117923521013e+00
2.337071321756645670e+00
2.337071321756645670e+00
2.319258278145695407e+00
2.290007385479293500e+00
2.290007385479293500e+00
2.346821619312112972e+00
2.346821619312112972e+00
2.192504409924619146e+00
2.159128391369365740e+00
2.159128391369365740e+00
2.289444868312631609e+00
2.289444868312631609e+00
2.303882808923612302e+00
2.262444044312875935e+00
2.262444044312875935e+00
2.243880977813043742e+00
2.172066286202582130e+00
2.172066286202582130e+00
2.197567064424573946e+00
2.197567064424573946e+00
2.212192510757774677e+00
2.228130497146519229e+00
2.228130497146519229e+00
2.357134434034241721e+00
2.357134434034241721e+00
2.305382854701376161e+00
2.239005829035309869e+00
2.239005829035309869e+00
2.383010223700674501e+00
2.383010223700674501e+00
2.359196996978667915e+00
2.333696218756676100e+00
2.333696218756676100e+00
2.305195348979155678e+00
2.270319284646137969e+00
2.270319284646137969e+00
2.287757316812646824e+00
2.287757316812646824e+00
2.262819055757316900e+00
2.183129123813593253e+00
2.183129123813593253e+00
2.138877773369548763e+00
2.138877773369548763e+00
2.237505783257545566e+00
2.331821161534470832e+00
2.331821161534470832e+00
2.339508896145511940e+00
2.339508896145511940e+00
2.177503952146977007e+00
2.169066194647053525e+00
2.169066194647053525e+00
2.309507980590228104e+00
2.309507980590228104e+00
2.325258461256752618e+00
2.303695303201391820e+00
2.303695303201391820e+00
2.257943906979583026e+00
2.221755302591021497e+00
2.221755302591021497e+00
2.298820154423657947e+00
2.298820154423657947e+00
2.295070039979247412e+00
2.310633014923550999e+00
2.310633014923550999e+00
2.130815027314065802e+00
2.130815027314065802e+00
2.067438093203528116e+00
2.018311593981750196e+00
2.018311593981750196e+00
2.312883083590197675e+00
2.312883083590197675e+00
2.460450086977751916e+00
2.494951139866329104e+00
2.494951139866329104e+00
2.382447706534013054e+00
2.382447706534013054e+00
2.327321024201178368e+00
2.297132602923673161e+00
2.297132602923673161e+00
2.276131962034974254e+00
2.244068483535264225e+00
2.244068483535264225e+00
2.226442945646534444e+00
2.226442945646534444e+00
2.252693746757408633e+00
2.235818231757560781e+00
2.235818231757560781e+00
2.200754661702322146e+00
2.200754661702322146e+00
2.204692281868953607e+00
2.239193334757530351e+00
2.239193334757530351e+00
2.261319009979552597e+00
2.261319009979552597e+00
2.305382854701376161e+00
2.363134617145298488e+00
2.363134617145298488e+00
2.377385052034058699e+00
2.332571184423352761e+00
2.332571184423352761e+00
2.294507522812585520e+00
2.294507522812585520e+00
2.227755485702078264e+00
2.181066560869167059e+00
2.181066560869167059e+00
2.176566423535874595e+00
2.176566423535874595e+00
2.075688344981231115e+00
2.114689535203100768e+00
2.114689535203100768e+00
2.276881984923856628e+00
2.276881984923856628e+00
2.365197180089724238e+00
2.412261116367076408e+00
2.412261116367076408e+00
2.393698049867244659e+00
2.393698049867244659e+00
2.415636219367045978e+00
2.284194708090456771e+00
2.284194708090456771e+00
2.176191412091433186e+00
2.229818048646504014e+00
2.229818048646504014e+00
2.101001617481002448e+00
2.101001617481002448e+00
2.167941160313730187e+00
2.177878963591417971e+00
2.177878963591417971e+00
2.283632190923795324e+00
2.283632190923795324e+00
2.312883083590197675e+00
2.281382122257148648e+00
2.281382122257148648e+00
2.276881984923856628e+00
2.276881984923856628e+00
2.278194524979400004e+00
2.310820520645771925e+00
2.310820520645771925e+00
2.226255439924313961e+00
2.226255439924313961e+00
2.308757957701345731e+00
2.375697500534073914e+00
2.375697500534073914e+00
2.217630176702169997e+00
2.149190588091677956e+00
2.149190588091677956e+00
2.153128208258308529e+00
2.153128208258308529e+00
2.349259193700979687e+00
2.416948759422589799e+00
2.416948759422589799e+00
2.294695028534806447e+00
2.270506790368358452e+00
2.210504959257789892e+00
2.210504959257789892e+00
2.247443586535233351e+00
2.247443586535233351e+00
2.299757683034760802e+00
2.252318735312967224e+00
2.252318735312967224e+00
2.245568529313028083e+00
2.358634479812006024e+00
2.358634479812006024e+00
2.320758323923459709e+00
2.320758323923459709e+00
2.231130588702047834e+00
2.251006195257423848e+00
2.251006195257423848e+00
2.242005920590838475e+00
2.242005920590838475e+00
2.222692831202123909e+00
2.217067659535508550e+00
2.217067659535508550e+00
2.231318094424268317e+00
2.231318094424268317e+00
2.245568529313028083e+00
2.231505600146489243e+00
2.231505600146489243e+00
2.260193975646229259e+00
2.260193975646229259e+00
2.311008026367992407e+00
2.357321939756462204e+00
2.357321939756462204e+00
2.357884456923124095e+00
2.335571275978881367e+00
2.335571275978881367e+00
2.260006469924008776e+00
2.260006469924008776e+00
2.231130588702047834e+00
2.232818140202032620e+00
2.232818140202032620e+00
2.238068300424207457e+00
2.238068300424207457e+00
2.254568803979613900e+00
2.196817041535691573e+00
2.196817041535691573e+00
2.225505417035432032e+00
2.225505417035432032e+00
2.295257545701467894e+00
2.193629444257942485e+00
2.193629444257942485e+00
2.223817865535447247e+00
2.305570360423596643e+00
2.305570360423596643e+00
2.269569261757255596e+00
2.269569261757255596e+00
2.355071871089815971e+00
2.350009216589862060e+00
2.350009216589862060e+00
2.359009491256446989e+00
2.343259010589922919e+00
2.343259010589922919e+00
2.260381481368449741e+00
2.230380565813165905e+00
2.230380565813165905e+00
2.206567339091158875e+00
2.206567339091158875e+00
2.125752372814111890e+00
2.226255439924313961e+00
2.226255439924313961e+00
2.208442396313364142e+00
2.208442396313364142e+00
2.133627613147373925e+00
2.220442762535478121e+00
2.220442762535478121e+00
2.341008941923276243e+00
2.341008941923276243e+00
2.383572740867336393e+00
2.419948850978118404e+00
2.419948850978118404e+00
2.379822626422925413e+00
2.277444502090518075e+00
2.277444502090518075e+00
2.185191686758019003e+00
2.185191686758019003e+00
2.209379924924466998e+00
2.281944639423810539e+00
2.281944639423810539e+00
2.307070406201360946e+00
2.307070406201360946e+00
2.287382305368205859e+00
2.274069399090548504e+00
2.274069399090548504e+00
2.194754478591265823e+00
2.194754478591265823e+00
2.157440839869380955e+00
2.162503494369335311e+00
2.162503494369335311e+00
2.191941892757957699e+00
2.220442762535478121e+00
2.220442762535478121e+00
2.381510177922910199e+00
2.381510177922910199e+00
2.476200567644276429e+00
2.366134708700827094e+00
2.366134708700827094e+00
2.270131778923917043e+00
2.270131778923917043e+00
2.221192785424360050e+00
2.238443311868648422e+00
2.238443311868648422e+00
2.226442945646534444e+00
2.226442945646534444e+00
2.213692556535538980e+00
2.196817041535691573e+00
2.196817041535691573e+00
2.230943082979827352e+00
2.221942808313242423e+00
2.221942808313242423e+00
2.261506515701773079e+00
2.261506515701773079e+00
2.233380657368694511e+00
2.333321207312235135e+00
2.333321207312235135e+00
2.417511276589251690e+00
2.417511276589251690e+00
2.346259102145451525e+00
2.310258003479110034e+00
2.310258003479110034e+00
2.240318369090853690e+00
2.240318369090853690e+00
2.178441480758079862e+00
2.186879238258003344e+00
2.186879238258003344e+00
2.296195074312570750e+00
2.321883358256782603e+00
2.321883358256782603e+00
2.244255989257484707e+00
2.244255989257484707e+00
2.215567613757744247e+00
2.181066560869167059e+00
2.181066560869167059e+00
2.272381847590563719e+00
2.265256630146183614e+00
2.265256630146183614e+00
2.287007293923764895e+00
2.287007293923764895e+00
2.338758873256630455e+00
2.359196996978667915e+00
2.359196996978667915e+00
2.286069765312662039e+00
2.286069765312662039e+00
2.191941892757957699e+00
2.168503677480392078e+00
2.168503677480392078e+00
2.231130588702047834e+00
2.231130588702047834e+00
2.275381939146092325e+00
2.278007019257179522e+00
2.278007019257179522e+00
2.213692556535538980e+00
2.205254799035615054e+00
2.205254799035615054e+00
2.235068208868678852e+00
2.235068208868678852e+00
2.276506973479415219e+00
2.315883175145725836e+00
2.315883175145725836e+00
2.343259010589922919e+00
2.343259010589922919e+00
2.341571459089938134e+00
2.292444959868159771e+00
2.292444959868159771e+00
2.257193884090700653e+00
2.257193884090700653e+00
2.277819513534959039e+00
2.313445600756859122e+00
2.313445600756859122e+00
2.261694021423993561e+00
2.247818597979674760e+00
2.247818597979674760e+00
2.198317087313455875e+00
2.198317087313455875e+00
2.195129490035706787e+00
2.222317819757682944e+00
2.222317819757682944e+00
2.239568346201971760e+00
2.239568346201971760e+00
2.240693380535294654e+00
2.281757133701590057e+00
2.281757133701590057e+00
2.370634846034120002e+00
2.370634846034120002e+00
2.350759239478743989e+00
2.309882992034669069e+00
2.309882992034669069e+00
2.284944730979339145e+00
2.249131138035218136e+00
2.249131138035218136e+00
2.277069490646077110e+00
2.277069490646077110e+00
2.286819788201544412e+00
2.238068300424207457e+00
2.238068300424207457e+00
2.249131138035218136e+00
2.249131138035218136e+00
2.219692739646595747e+00
2.254756309701834383e+00
2.254756309701834383e+00
2.255506332590716312e+00
2.255506332590716312e+00
2.191379375591296252e+00
2.275381939146092325e+00
2.275381939146092325e+00
2.339508896145511940e+00
2.314383129367961978e+00
2.314383129367961978e+00
2.251381206701864812e+00
2.251381206701864812e+00
2.208817407757805107e+00
2.270319284646137969e+00
2.270319284646137969e+00
2.264694112979522167e+00
2.264694112979522167e+00
2.227942991424298746e+00
2.311570543534653854e+00
2.311570543534653854e+00
2.264881618701742649e+00
2.264881618701742649e+00
