2.222880336924344391e+00
2.222880336924344391e+00
2.213880062257759462e+00
2.213880062257759462e+00
2.213880062257759462e+00
2.213880062257759462e+00
2.223817865535447247e+00
2.223817865535447247e+00
2.223817865535447247e+00
2.220442762535478121e+00
2.220442762535478121e+00
2.220442762535478121e+00
2.220442762535478121e+00
2.217067659535508550e+00
2.217067659535508550e+00
2.217067659535508550e+00
2.196629535813471090e+00
2.196629535813471090e+00
2.196629535813471090e+00
2.218942716757713818e+00
2.218942716757713818e+00
2.218942716757713818e+00
2.218942716757713818e+00
2.262069032868434526e+00
2.262069032868434526e+00
2.262069032868434526e+00
2.277069490646077110e+00
2.277069490646077110e+00
2.277069490646077110e+00
2.293569994201483109e+00
2.293569994201483109e+00
2.293569994201483109e+00
2.293569994201483109e+00
2.313820612201300086e+00
2.313820612201300086e+00
2.313820612201300086e+00
2.295632557145908859e+00
2.295632557145908859e+00
2.295632557145908859e+00
2.295632557145908859e+00
2.270319284646137969e+00
2.270319284646137969e+00
2.270319284646137969e+00
2.263381572923978347e+00
2.263381572923978347e+00
2.263381572923978347e+00
2.247068575090792386e+00
2.247068575090792386e+00
2.247068575090792386e+00
2.247068575090792386e+00
2.240318369090853690e+00
2.240318369090853690e+00
2.240318369090853690e+00
2.222130314035462462e+00
2.222130314035462462e+00
2.222130314035462462e+00
2.222130314035462462e+00
2.226817957090975852e+00
2.226817957090975852e+00
2.226817957090975852e+00
2.228505508590960638e+00
2.228505508590960638e+00
2.228505508590960638e+00
2.218380199591051927e+00
2.218380199591051927e+00
2.218380199591051927e+00
2.218380199591051927e+00
2.246693563646351421e+00
2.246693563646351421e+00
2.246693563646351421e+00
2.275194433423871843e+00
2.275194433423871843e+00
2.275194433423871843e+00
2.275194433423871843e+00
2.281382122257148648e+00
2.281382122257148648e+00
2.281382122257148648e+00
2.297320108645893644e+00
2.297320108645893644e+00
2.297320108645893644e+00
2.297320108645893644e+00
2.295070039979247412e+00
2.295070039979247412e+00
2.295070039979247412e+00
2.266381664479506952e+00
2.266381664479506952e+00
2.266381664479506952e+00
2.236380748924222672e+00
2.236380748924222672e+00
2.236380748924222672e+00
2.235068208868678852e+00
2.235068208868678852e+00
2.235068208868678852e+00
2.239943357646412725e+00
2.239943357646412725e+00
2.239943357646412725e+00
2.231880611590930208e+00
2.231880611590930208e+00
2.231880611590930208e+00
2.231880611590930208e+00
2.228318002868740155e+00
2.228318002868740155e+00
2.228318002868740155e+00
2.208442396313364142e+00
2.208442396313364142e+00
2.208442396313364142e+00
2.208442396313364142e+00
2.203754753257850751e+00
2.203754753257850751e+00
2.203754753257850751e+00
2.206942350535599839e+00
2.206942350535599839e+00
2.206942350535599839e+00
2.217255165257729033e+00
2.217255165257729033e+00
2.217255165257729033e+00
2.217255165257729033e+00
2.256256355479598685e+00
2.256256355479598685e+00
2.256256355479598685e+00
2.283444685201574842e+00
2.283444685201574842e+00
2.283444685201574842e+00
2.311945554979094819e+00
2.311945554979094819e+00
2.311945554979094819e+00
2.311945554979094819e+00
2.298820154423657947e+00
2.298820154423657947e+00
2.298820154423657947e+00
2.252131229590746742e+00
2.252131229590746742e+00
2.252131229590746742e+00
2.252131229590746742e+00
2.267319193090609808e+00
2.267319193090609808e+00
2.267319193090609808e+00
2.249693655201880027e+00
2.249693655201880027e+00
2.249693655201880027e+00
2.249131138035218136e+00
2.249131138035218136e+00
2.249131138035218136e+00
2.249131138035218136e+00
2.243693472090823260e+00
2.243693472090823260e+00
2.243693472090823260e+00
2.234505691702016961e+00
2.234505691702016961e+00
2.234505691702016961e+00
2.223442854091006282e+00
2.223442854091006282e+00
2.223442854091006282e+00
2.223442854091006282e+00
2.200567155980101663e+00
2.200567155980101663e+00
2.200567155980101663e+00
2.216880153813287624e+00
2.216880153813287624e+00
2.216880153813287624e+00
2.216880153813287624e+00
2.258506424146244473e+00
2.258506424146244473e+00
2.258506424146244473e+00
2.268819238868374111e+00
2.268819238868374111e+00
2.268819238868374111e+00
2.285694753868221074e+00
2.285694753868221074e+00
2.285694753868221074e+00
2.285694753868221074e+00
2.298445142979216982e+00
2.298445142979216982e+00
2.298445142979216982e+00
2.287007293923764895e+00
2.287007293923764895e+00
2.287007293923764895e+00
2.287007293923764895e+00
2.255693838312936794e+00
2.255693838312936794e+00
2.255693838312936794e+00
2.256443861201819168e+00
2.256443861201819168e+00
2.256443861201819168e+00
2.256443861201819168e+00
2.243880977813043742e+00
2.243880977813043742e+00
2.243880977813043742e+00
2.251006195257423848e+00
2.251006195257423848e+00
2.251006195257423848e+00
2.238255806146427940e+00
2.238255806146427940e+00
2.238255806146427940e+00
2.238255806146427940e+00
2.232255623035371173e+00
2.232255623035371173e+00
2.232255623035371173e+00
2.231693105868709726e+00
2.231693105868709726e+00
2.231693105868709726e+00
2.231693105868709726e+00
2.197942075869014911e+00
2.197942075869014911e+00
2.197942075869014911e+00
2.221192785424360050e+00
2.221192785424360050e+00
2.221192785424360050e+00
2.254943815424054865e+00
2.254943815424054865e+00
2.254943815424054865e+00
2.254943815424054865e+00
2.268631733146153184e+00
2.268631733146153184e+00
2.268631733146153184e+00
2.286444776757103448e+00
2.286444776757103448e+00
2.286444776757103448e+00
2.286444776757103448e+00
2.287007293923764895e+00
2.287007293923764895e+00
2.287007293923764895e+00
2.257756401257362544e+00
2.257756401257362544e+00
2.257756401257362544e+00
2.253068758201849597e+00
2.253068758201849597e+00
2.253068758201849597e+00
2.253068758201849597e+00
2.240505874813074172e+00
2.240505874813074172e+00
2.240505874813074172e+00
2.235068208868678852e+00
2.235068208868678852e+00
2.235068208868678852e+00
2.235068208868678852e+00
2.241443403424177028e+00
2.241443403424177028e+00
2.241443403424177028e+00
2.238630817590868904e+00
2.238630817590868904e+00
2.238630817590868904e+00
2.247443586535233351e+00
2.247443586535233351e+00
2.247443586535233351e+00
2.247443586535233351e+00
2.238443311868648422e+00
2.238443311868648422e+00
2.238443311868648422e+00
2.216505142368846659e+00
2.216505142368846659e+00
2.216505142368846659e+00
2.216505142368846659e+00
2.242005920590838475e+00
2.242005920590838475e+00
2.242005920590838475e+00
2.260756492812891150e+00
2.260756492812891150e+00
2.260756492812891150e+00
2.277819513534959039e+00
2.277819513534959039e+00
2.277819513534959039e+00
2.277819513534959039e+00
2.291507431257057803e+00
2.291507431257057803e+00
2.291507431257057803e+00
2.280444593646046680e+00
2.280444593646046680e+00
2.280444593646046680e+00
2.280444593646046680e+00
2.263006561479537382e+00
2.263006561479537382e+00
2.263006561479537382e+00
2.263381572923978347e+00
2.263381572923978347e+00
2.263381572923978347e+00
2.254756309701834383e+00
2.254756309701834383e+00
2.254756309701834383e+00
2.254756309701834383e+00
2.244443494979705633e+00
2.244443494979705633e+00
2.244443494979705633e+00
2.237318277535325084e+00
2.237318277535325084e+00
2.237318277535325084e+00
2.237318277535325084e+00
2.219505233924375265e+00
2.219505233924375265e+00
2.219505233924375265e+00
2.218567705313272853e+00
2.218567705313272853e+00
2.218567705313272853e+00
2.217255165257729033e+00
2.217255165257729033e+00
2.217255165257729033e+00
2.217255165257729033e+00
2.227567979979857782e+00
2.227567979979857782e+00
2.227567979979857782e+00
2.263381572923978347e+00
2.263381572923978347e+00
2.263381572923978347e+00
2.263381572923978347e+00
2.278757042146061895e+00
2.278757042146061895e+00
2.278757042146061895e+00
2.281757133701590057e+00
2.281757133701590057e+00
2.281757133701590057e+00
2.281757133701590057e+00
2.287944822534867306e+00
2.287944822534867306e+00
2.287944822534867306e+00
2.279694570757164307e+00
2.279694570757164307e+00
2.279694570757164307e+00
2.252693746757408633e+00
2.252693746757408633e+00
2.252693746757408633e+00
2.252693746757408633e+00
2.251193700979644330e+00
2.251193700979644330e+00
2.251193700979644330e+00
2.242005920590838475e+00
2.242005920590838475e+00
2.242005920590838475e+00
2.242005920590838475e+00
2.243318460646382295e+00
2.243318460646382295e+00
2.243318460646382295e+00
2.238630817590868904e+00
2.238630817590868904e+00
2.238630817590868904e+00
2.238630817590868904e+00
2.220442762535478121e+00
2.220442762535478121e+00
2.220442762535478121e+00
2.233568163090914993e+00
2.233568163090914993e+00
2.233568163090914993e+00
2.226067934202093479e+00
2.226067934202093479e+00
2.226067934202093479e+00
2.226067934202093479e+00
2.213317545091097571e+00
2.213317545091097571e+00
2.213317545091097571e+00
2.254943815424054865e+00
2.254943815424054865e+00
2.254943815424054865e+00
2.254943815424054865e+00
2.275194433423871843e+00
2.275194433423871843e+00
2.275194433423871843e+00
2.271631824701681346e+00
2.271631824701681346e+00
2.271631824701681346e+00
2.285319742423780109e+00
2.285319742423780109e+00
2.285319742423780109e+00
2.285319742423780109e+00
2.272006836146122755e+00
2.272006836146122755e+00
2.272006836146122755e+00
2.239943357646412725e+00
2.239943357646412725e+00
2.239943357646412725e+00
2.239943357646412725e+00
2.242193426313058957e+00
2.242193426313058957e+00
2.242193426313058957e+00
2.238443311868648422e+00
2.238443311868648422e+00
2.238443311868648422e+00
2.238443311868648422e+00
2.242943449201941331e+00
2.242943449201941331e+00
2.242943449201941331e+00
2.233005645924253102e+00
2.233005645924253102e+00
2.233005645924253102e+00
2.228318002868740155e+00
2.228318002868740155e+00
2.228318002868740155e+00
2.228318002868740155e+00
2.233568163090914993e+00
2.233568163090914993e+00
2.233568163090914993e+00
2.206567339091158875e+00
2.206567339091158875e+00
2.206567339091158875e+00
2.206567339091158875e+00
2.219130222479934300e+00
2.219130222479934300e+00
2.219130222479934300e+00
2.255131321146275347e+00
2.255131321146275347e+00
2.255131321146275347e+00
2.266381664479506952e+00
2.266381664479506952e+00
2.266381664479506952e+00
2.266381664479506952e+00
2.289819879757073018e+00
2.289819879757073018e+00
2.289819879757073018e+00
2.301070223090304623e+00
2.301070223090304623e+00
2.301070223090304623e+00
2.301070223090304623e+00
2.279694570757164307e+00
2.279694570757164307e+00
2.279694570757164307e+00
2.261881527146214044e+00
2.261881527146214044e+00
2.261881527146214044e+00
2.264506607257301685e+00
2.264506607257301685e+00
2.264506607257301685e+00
2.264506607257301685e+00
2.256256355479598685e+00
2.256256355479598685e+00
2.256256355479598685e+00
2.245193517868587563e+00
2.245193517868587563e+00
2.245193517868587563e+00
2.226067934202093479e+00
2.226067934202093479e+00
2.226067934202093479e+00
2.226067934202093479e+00
2.225317911313211550e+00
2.225317911313211550e+00
2.225317911313211550e+00
2.219505233924375265e+00
2.219505233924375265e+00
2.219505233924375265e+00
2.219505233924375265e+00
2.220817773979919085e+00
2.220817773979919085e+00
2.220817773979919085e+00
2.242380932035279439e+00
2.242380932035279439e+00
2.242380932035279439e+00
2.249693655201880027e+00
2.249693655201880027e+00
2.249693655201880027e+00
2.249693655201880027e+00
2.251756218146305777e+00
2.251756218146305777e+00
2.251756218146305777e+00
2.285882259590441556e+00
2.285882259590441556e+00
2.285882259590441556e+00
2.285882259590441556e+00
2.287757316812646824e+00
2.287757316812646824e+00
2.287757316812646824e+00
2.260756492812891150e+00
2.260756492812891150e+00
2.260756492812891150e+00
2.242380932035279439e+00
2.242380932035279439e+00
2.242380932035279439e+00
2.242380932035279439e+00
2.237505783257545566e+00
2.237505783257545566e+00
2.237505783257545566e+00
2.249881160924100509e+00
2.249881160924100509e+00
2.249881160924100509e+00
2.249881160924100509e+00
2.248193609424115724e+00
2.248193609424115724e+00
2.248193609424115724e+00
2.227942991424298746e+00
2.227942991424298746e+00
2.227942991424298746e+00
2.227942991424298746e+00
2.238068300424207457e+00
2.238068300424207457e+00
2.238068300424207457e+00
2.222130314035462462e+00
2.222130314035462462e+00
2.222130314035462462e+00
2.219692739646595747e+00
2.219692739646595747e+00
2.219692739646595747e+00
2.219692739646595747e+00
2.249131138035218136e+00
2.249131138035218136e+00
2.249131138035218136e+00
2.265069124423963132e+00
2.265069124423963132e+00
2.265069124423963132e+00
2.265069124423963132e+00
2.287382305368205859e+00
2.287382305368205859e+00
2.287382305368205859e+00
2.307632923368022837e+00
2.307632923368022837e+00
2.307632923368022837e+00
2.299382671590319838e+00
2.299382671590319838e+00
2.299382671590319838e+00
2.299382671590319838e+00
2.267881710257271255e+00
2.267881710257271255e+00
2.267881710257271255e+00
2.257943906979583026e+00
2.257943906979583026e+00
2.257943906979583026e+00
2.257943906979583026e+00
2.228693014313181120e+00
2.228693014313181120e+00
2.228693014313181120e+00
2.240130863368633207e+00
2.240130863368633207e+00
2.240130863368633207e+00
2.240318369090853690e+00
2.240318369090853690e+00
2.240318369090853690e+00
2.240318369090853690e+00
2.230755577257606870e+00
2.230755577257606870e+00
2.230755577257606870e+00
2.213692556535538980e+00
2.213692556535538980e+00
2.213692556535538980e+00
2.195692007202368234e+00
2.195692007202368234e+00
2.195692007202368234e+00
2.195692007202368234e+00
2.209192419202246516e+00
2.209192419202246516e+00
2.209192419202246516e+00
2.239193334757530351e+00
2.239193334757530351e+00
2.239193334757530351e+00
2.239193334757530351e+00
2.273319376201666131e+00
2.273319376201666131e+00
2.273319376201666131e+00
2.294882534257026929e+00
2.294882534257026929e+00
2.294882534257026929e+00
2.294882534257026929e+00
2.305007843256935196e+00
2.305007843256935196e+00
2.305007843256935196e+00
2.280069582201605716e+00
2.280069582201605716e+00
2.280069582201605716e+00
2.253068758201849597e+00
2.253068758201849597e+00
2.253068758201849597e+00
2.253068758201849597e+00
2.239568346201971760e+00
2.239568346201971760e+00
2.239568346201971760e+00
2.230380565813165905e+00
2.230380565813165905e+00
2.230380565813165905e+00
2.230380565813165905e+00
2.231318094424268317e+00
2.231318094424268317e+00
2.231318094424268317e+00
2.239005829035309869e+00
2.239005829035309869e+00
2.239005829035309869e+00
2.239005829035309869e+00
2.245193517868587563e+00
2.245193517868587563e+00
2.245193517868587563e+00
2.245381023590808045e+00
2.245381023590808045e+00
2.245381023590808045e+00
2.224567888424329176e+00
2.224567888424329176e+00
2.224567888424329176e+00
2.224567888424329176e+00
2.247631092257453833e+00
2.247631092257453833e+00
2.247631092257453833e+00
2.257943906979583026e+00
2.257943906979583026e+00
2.257943906979583026e+00
2.257943906979583026e+00
2.265444135868404540e+00
2.265444135868404540e+00
2.265444135868404540e+00
2.281944639423810539e+00
2.281944639423810539e+00
2.281944639423810539e+00
2.287007293923764895e+00
2.287007293923764895e+00
2.287007293923764895e+00
2.287007293923764895e+00
2.282132145146031021e+00
2.282132145146031021e+00
2.282132145146031021e+00
2.264694112979522167e+00
2.264694112979522167e+00
2.264694112979522167e+00
2.264694112979522167e+00
2.248193609424115724e+00
2.248193609424115724e+00
2.248193609424115724e+00
2.242380932035279439e+00
2.242380932035279439e+00
2.242380932035279439e+00
2.220067751091036712e+00
2.220067751091036712e+00
2.220067751091036712e+00
2.220067751091036712e+00
2.219130222479934300e+00
2.219130222479934300e+00
2.219130222479934300e+00
2.232818140202032620e+00
2.232818140202032620e+00
2.232818140202032620e+00
2.232818140202032620e+00
2.207317361980041248e+00
2.207317361980041248e+00
2.207317361980041248e+00
2.209942442091128445e+00
2.209942442091128445e+00
2.209942442091128445e+00
2.209942442091128445e+00
2.271069307535019899e+00
2.271069307535019899e+00
2.271069307535019899e+00
2.272569353312784202e+00
2.272569353312784202e+00
2.272569353312784202e+00
2.250631183812982439e+00
2.250631183812982439e+00
2.250631183812982439e+00
2.250631183812982439e+00
2.280632099368266719e+00
2.280632099368266719e+00
2.280632099368266719e+00
2.288132328257088233e+00
2.288132328257088233e+00
2.288132328257088233e+00
2.288132328257088233e+00
2.264319101535081202e+00
2.264319101535081202e+00
2.264319101535081202e+00
2.249693655201880027e+00
2.249693655201880027e+00
2.249693655201880027e+00
2.237880794701986531e+00
2.237880794701986531e+00
2.237880794701986531e+00
2.237880794701986531e+00
2.241818414868617992e+00
2.241818414868617992e+00
2.241818414868617992e+00
2.239943357646412725e+00
2.239943357646412725e+00
2.239943357646412725e+00
2.239943357646412725e+00
2.221380291146580532e+00
2.221380291146580532e+00
2.221380291146580532e+00
2.222317819757682944e+00
2.222317819757682944e+00
2.222317819757682944e+00
2.208254890591143660e+00
2.208254890591143660e+00
2.208254890591143660e+00
2.208254890591143660e+00
2.228130497146519229e+00
2.228130497146519229e+00
2.228130497146519229e+00
2.277256996368297592e+00
2.277256996368297592e+00
2.277256996368297592e+00
2.277256996368297592e+00
2.275006927701650916e+00
2.275006927701650916e+00
2.275006927701650916e+00
2.281569627979369130e+00
2.281569627979369130e+00
2.281569627979369130e+00
2.281569627979369130e+00
2.290569902645954947e+00
2.290569902645954947e+00
2.290569902645954947e+00
2.261694021423993561e+00
2.261694021423993561e+00
2.261694021423993561e+00
2.236568254646443155e+00
2.236568254646443155e+00
2.236568254646443155e+00
2.236568254646443155e+00
2.248943632312997654e+00
2.248943632312997654e+00
2.248943632312997654e+00
2.223442854091006282e+00
2.223442854091006282e+00
2.223442854091006282e+00
2.225880428479872997e+00
2.225880428479872997e+00
2.225880428479872997e+00
2.225880428479872997e+00
2.238255806146427940e+00
2.238255806146427940e+00
2.238255806146427940e+00
2.250631183812982439e+00
2.250631183812982439e+00
2.250631183812982439e+00
2.250631183812982439e+00
2.228505508590960638e+00
2.228505508590960638e+00
2.228505508590960638e+00
2.205067293313394572e+00
2.205067293313394572e+00
2.205067293313394572e+00
2.205067293313394572e+00
2.224192876979888212e+00
2.224192876979888212e+00
2.224192876979888212e+00
2.267506698812830290e+00
2.267506698812830290e+00
2.267506698812830290e+00
2.288694845423749680e+00
2.288694845423749680e+00
2.288694845423749680e+00
2.288694845423749680e+00
2.293007477034821662e+00
2.293007477034821662e+00
2.293007477034821662e+00
2.324320932645649762e+00
2.324320932645649762e+00
2.324320932645649762e+00
2.324320932645649762e+00
2.292632465590380253e+00
2.292632465590380253e+00
2.292632465590380253e+00
2.259818964201788294e+00
2.259818964201788294e+00
2.259818964201788294e+00
2.242755943479720404e+00
2.242755943479720404e+00
2.242755943479720404e+00
2.242755943479720404e+00
2.236943266090884119e+00
2.236943266090884119e+00
2.236943266090884119e+00
2.237505783257545566e+00
2.237505783257545566e+00
2.237505783257545566e+00
2.237505783257545566e+00
2.197754570146794428e+00
2.197754570146794428e+00
2.197754570146794428e+00
2.190066835535752432e+00
2.190066835535752432e+00
2.190066835535752432e+00
2.190066835535752432e+00
2.194566972869045340e+00
2.194566972869045340e+00
2.194566972869045340e+00
2.185566698202459968e+00
2.185566698202459968e+00
2.185566698202459968e+00
2.232068117313150690e+00
2.232068117313150690e+00
2.232068117313150690e+00
2.232068117313150690e+00
2.287944822534867306e+00
2.287944822534867306e+00
2.287944822534867306e+00
2.313070589312418157e+00
2.313070589312418157e+00
2.313070589312418157e+00
2.313070589312418157e+00
2.315508163701284872e+00
2.315508163701284872e+00
2.315508163701284872e+00
2.286069765312662039e+00
2.286069765312662039e+00
2.286069765312662039e+00
2.256631366924039650e+00
2.256631366924039650e+00
2.256631366924039650e+00
2.256631366924039650e+00
2.239943357646412725e+00
2.239943357646412725e+00
2.239943357646412725e+00
2.210317453535568966e+00
2.210317453535568966e+00
2.210317453535568966e+00
2.210317453535568966e+00
2.218192693868831444e+00
2.218192693868831444e+00
2.218192693868831444e+00
2.247068575090792386e+00
2.247068575090792386e+00
2.247068575090792386e+00
2.240880886257515137e+00
2.240880886257515137e+00
2.240880886257515137e+00
2.240880886257515137e+00
2.245943540757469048e+00
2.245943540757469048e+00
2.245943540757469048e+00
2.247068575090792386e+00
2.247068575090792386e+00
2.247068575090792386e+00
2.247068575090792386e+00
2.224755394146549659e+00
2.224755394146549659e+00
2.224755394146549659e+00
2.235255714590899334e+00
2.235255714590899334e+00
2.235255714590899334e+00
2.251943723868526259e+00
2.251943723868526259e+00
2.251943723868526259e+00
2.251943723868526259e+00
2.284944730979339145e+00
2.284944730979339145e+00
2.284944730979339145e+00
2.311758049256874337e+00
2.311758049256874337e+00
2.311758049256874337e+00
2.311758049256874337e+00
2.304632831812494231e+00
2.304632831812494231e+00
2.304632831812494231e+00
2.281569627979369130e+00
2.281569627979369130e+00
2.281569627979369130e+00
2.268256721701712220e+00
2.268256721701712220e+00
2.268256721701712220e+00
2.268256721701712220e+00
2.230005554368724940e+00
2.230005554368724940e+00
2.230005554368724940e+00
2.220255256813257638e+00
2.220255256813257638e+00
2.220255256813257638e+00
2.220255256813257638e+00
2.207317361980041248e+00
2.207317361980041248e+00
2.207317361980041248e+00
2.235255714590899334e+00
2.235255714590899334e+00
2.235255714590899334e+00
2.224755394146549659e+00
2.224755394146549659e+00
2.224755394146549659e+00
2.224755394146549659e+00
2.215192602313302839e+00
2.215192602313302839e+00
2.215192602313302839e+00
2.231505600146489243e+00
2.231505600146489243e+00
2.231505600146489243e+00
2.231505600146489243e+00
2.278757042146061895e+00
2.278757042146061895e+00
2.278757042146061895e+00
2.277444502090518075e+00
2.277444502090518075e+00
2.277444502090518075e+00
2.277444502090518075e+00
2.300695211645863214e+00
2.300695211645863214e+00
2.300695211645863214e+00
2.319070772423474924e+00
2.319070772423474924e+00
2.319070772423474924e+00
2.272756859035004684e+00
2.272756859035004684e+00
2.272756859035004684e+00
2.272756859035004684e+00
2.246881069368571904e+00
2.246881069368571904e+00
2.246881069368571904e+00
2.230943082979827352e+00
2.230943082979827352e+00
2.230943082979827352e+00
2.230943082979827352e+00
2.217067659535508550e+00
2.217067659535508550e+00
2.217067659535508550e+00
2.208442396313364142e+00
2.208442396313364142e+00
2.208442396313364142e+00
2.207129856257820322e+00
2.207129856257820322e+00
2.207129856257820322e+00
2.207129856257820322e+00
2.235818231757560781e+00
2.235818231757560781e+00
2.235818231757560781e+00
2.246318552201910457e+00
2.246318552201910457e+00
2.246318552201910457e+00
2.246318552201910457e+00
2.219692739646595747e+00
2.219692739646595747e+00
2.219692739646595747e+00
2.262069032868434526e+00
2.262069032868434526e+00
2.262069032868434526e+00
2.262069032868434526e+00
2.297507614368114126e+00
2.297507614368114126e+00
2.297507614368114126e+00
2.291319925534837321e+00
2.291319925534837321e+00
2.291319925534837321e+00
2.299007660145878429e+00
2.299007660145878429e+00
2.299007660145878429e+00
2.299007660145878429e+00
2.319633289590136371e+00
2.319633289590136371e+00
2.319633289590136371e+00
2.271819330423901828e+00
2.271819330423901828e+00
2.271819330423901828e+00
2.271819330423901828e+00
2.220817773979919085e+00
2.220817773979919085e+00
2.220817773979919085e+00
2.187441755424664791e+00
2.187441755424664791e+00
2.187441755424664791e+00
2.202254707480086449e+00
2.202254707480086449e+00
2.202254707480086449e+00
2.202254707480086449e+00
2.245943540757469048e+00
2.245943540757469048e+00
2.245943540757469048e+00
2.216317636646626177e+00
2.216317636646626177e+00
2.216317636646626177e+00
2.216317636646626177e+00
2.223067842646564873e+00
2.223067842646564873e+00
2.223067842646564873e+00
2.198504593035676358e+00
2.198504593035676358e+00
2.198504593035676358e+00
2.210504959257789892e+00
2.210504959257789892e+00
2.210504959257789892e+00
2.210504959257789892e+00
2.270506790368358452e+00
2.270506790368358452e+00
2.270506790368358452e+00
2.269194250312814631e+00
2.269194250312814631e+00
2.269194250312814631e+00
2.269194250312814631e+00
2.289819879757073018e+00
2.289819879757073018e+00
2.289819879757073018e+00
2.310820520645771925e+00
2.310820520645771925e+00
2.310820520645771925e+00
2.275944456312753772e+00
2.275944456312753772e+00
2.275944456312753772e+00
2.275944456312753772e+00
2.241818414868617992e+00
2.241818414868617992e+00
2.241818414868617992e+00
2.219692739646595747e+00
2.219692739646595747e+00
2.219692739646595747e+00
2.219692739646595747e+00
2.224942899868770141e+00
2.224942899868770141e+00
2.224942899868770141e+00
2.237130771813104602e+00
2.237130771813104602e+00
2.237130771813104602e+00
2.230943082979827352e+00
2.230943082979827352e+00
2.230943082979827352e+00
2.230943082979827352e+00
2.245193517868587563e+00
2.245193517868587563e+00
2.245193517868587563e+00
2.261319009979552597e+00
2.261319009979552597e+00
2.261319009979552597e+00
2.261319009979552597e+00
2.249693655201880027e+00
2.249693655201880027e+00
2.249693655201880027e+00
2.217442670979949515e+00
2.217442670979949515e+00
2.217442670979949515e+00
2.251943723868526259e+00
2.251943723868526259e+00
2.251943723868526259e+00
2.251943723868526259e+00
2.265069124423963132e+00
2.265069124423963132e+00
2.265069124423963132e+00
2.290944914090395912e+00
2.290944914090395912e+00
2.290944914090395912e+00
2.290944914090395912e+00
2.305570360423596643e+00
2.305570360423596643e+00
2.305570360423596643e+00
2.290944914090395912e+00
2.290944914090395912e+00
2.290944914090395912e+00
2.290944914090395912e+00
2.248756126590777171e+00
2.248756126590777171e+00
2.248756126590777171e+00
2.248381115146336207e+00
2.248381115146336207e+00
2.248381115146336207e+00
2.264131595812860720e+00
2.264131595812860720e+00
2.264131595812860720e+00
2.264131595812860720e+00
2.252131229590746742e+00
2.252131229590746742e+00
2.252131229590746742e+00
2.207504867702261730e+00
2.207504867702261730e+00
2.207504867702261730e+00
2.207504867702261730e+00
2.204692281868953607e+00
2.204692281868953607e+00
2.204692281868953607e+00
2.200754661702322146e+00
2.200754661702322146e+00
2.200754661702322146e+00
2.200754661702322146e+00
2.185379192480239485e+00
2.185379192480239485e+00
2.185379192480239485e+00
2.194191961424603932e+00
2.194191961424603932e+00
2.194191961424603932e+00
2.236193243202001746e+00
2.236193243202001746e+00
2.236193243202001746e+00
2.236193243202001746e+00
2.274444410534989469e+00
2.274444410534989469e+00
2.274444410534989469e+00
2.314945646534623425e+00
2.314945646534623425e+00
2.314945646534623425e+00
2.314945646534623425e+00
2.312320566423536228e+00
2.312320566423536228e+00
2.312320566423536228e+00
2.283257179479354360e+00
2.283257179479354360e+00
2.283257179479354360e+00
2.284194708090456771e+00
2.284194708090456771e+00
2.284194708090456771e+00
2.284194708090456771e+00
2.239755851924192243e+00
2.239755851924192243e+00
2.239755851924192243e+00
2.242380932035279439e+00
2.242380932035279439e+00
2.242380932035279439e+00
2.242380932035279439e+00
2.245568529313028083e+00
2.245568529313028083e+00
2.245568529313028083e+00
2.227567979979857782e+00
2.227567979979857782e+00
2.227567979979857782e+00
2.252506241035188150e+00
2.252506241035188150e+00
2.252506241035188150e+00
2.252506241035188150e+00
2.239193334757530351e+00
2.239193334757530351e+00
2.239193334757530351e+00
2.223630359813226764e+00
2.223630359813226764e+00
2.223630359813226764e+00
2.223630359813226764e+00
2.244818506424146598e+00
2.244818506424146598e+00
2.244818506424146598e+00
2.283444685201574842e+00
2.283444685201574842e+00
2.283444685201574842e+00
2.292069948423719250e+00
2.292069948423719250e+00
2.292069948423719250e+00
2.292069948423719250e+00
2.316820703756828248e+00
2.316820703756828248e+00
2.316820703756828248e+00
2.293757499923703591e+00
2.293757499923703591e+00
2.293757499923703591e+00
2.293757499923703591e+00
2.266569170201727434e+00
2.266569170201727434e+00
2.266569170201727434e+00
2.218942716757713818e+00
2.218942716757713818e+00
2.218942716757713818e+00
2.218942716757713818e+00
2.191379375591296252e+00
2.191379375591296252e+00
2.191379375591296252e+00
2.185754203924680450e+00
2.185754203924680450e+00
2.185754203924680450e+00
2.196629535813471090e+00
2.196629535813471090e+00
2.196629535813471090e+00
2.196629535813471090e+00
2.215942625202185212e+00
2.215942625202185212e+00
2.215942625202185212e+00
2.231880611590930208e+00
2.231880611590930208e+00
2.231880611590930208e+00
2.231880611590930208e+00
2.223630359813226764e+00
2.223630359813226764e+00
2.223630359813226764e+00
2.226255439924313961e+00
2.226255439924313961e+00
2.226255439924313961e+00
2.246693563646351421e+00
2.246693563646351421e+00
2.246693563646351421e+00
2.246693563646351421e+00
2.285132236701559627e+00
2.285132236701559627e+00
2.285132236701559627e+00
2.283632190923795324e+00
2.283632190923795324e+00
2.283632190923795324e+00
2.283632190923795324e+00
2.331258644367808941e+00
2.331258644367808941e+00
2.331258644367808941e+00
2.295257545701467894e+00
2.295257545701467894e+00
2.295257545701467894e+00
2.295257545701467894e+00
2.228880520035401602e+00
2.228880520035401602e+00
2.228880520035401602e+00
2.246693563646351421e+00
2.246693563646351421e+00
2.246693563646351421e+00
2.207129856257820322e+00
2.207129856257820322e+00
2.207129856257820322e+00
2.207129856257820322e+00
2.239568346201971760e+00
2.239568346201971760e+00
2.239568346201971760e+00
2.235818231757560781e+00
2.235818231757560781e+00
2.235818231757560781e+00
2.235818231757560781e+00
2.234693197424237443e+00
2.234693197424237443e+00
2.234693197424237443e+00
2.241630909146397510e+00
2.241630909146397510e+00
2.241630909146397510e+00
2.228318002868740155e+00
2.228318002868740155e+00
2.228318002868740155e+00
2.228318002868740155e+00
2.255506332590716312e+00
2.255506332590716312e+00
2.255506332590716312e+00
2.300132694479201767e+00
2.300132694479201767e+00
2.300132694479201767e+00
2.300132694479201767e+00
2.294507522812585520e+00
2.294507522812585520e+00
2.294507522812585520e+00
2.286632282479323930e+00
2.286632282479323930e+00
2.286632282479323930e+00
2.286632282479323930e+00
2.296757591479232197e+00
2.296757591479232197e+00
2.296757591479232197e+00
2.269944273201696561e+00
2.269944273201696561e+00
2.269944273201696561e+00
2.246693563646351421e+00
2.246693563646351421e+00
2.246693563646351421e+00
2.246693563646351421e+00
2.269194250312814631e+00
2.269194250312814631e+00
2.269194250312814631e+00
2.226067934202093479e+00
2.226067934202093479e+00
2.226067934202093479e+00
2.226067934202093479e+00
2.197192052980132537e+00
2.197192052980132537e+00
2.197192052980132537e+00
2.200567155980101663e+00
2.200567155980101663e+00
2.200567155980101663e+00
2.204129764702292160e+00
2.204129764702292160e+00
2.204129764702292160e+00
2.204129764702292160e+00
2.208254890591143660e+00
2.208254890591143660e+00
2.208254890591143660e+00
2.190254341257972914e+00
2.190254341257972914e+00
2.190254341257972914e+00
2.190254341257972914e+00
2.215192602313302839e+00
2.215192602313302839e+00
2.215192602313302839e+00
2.256256355479598685e+00
2.256256355479598685e+00
2.256256355479598685e+00
2.289444868312631609e+00
2.289444868312631609e+00
2.289444868312631609e+00
2.289444868312631609e+00
2.307257911923581428e+00
2.307257911923581428e+00
2.307257911923581428e+00
2.310445509201330516e+00
2.310445509201330516e+00
2.310445509201330516e+00
2.310445509201330516e+00
2.289819879757073018e+00
2.289819879757073018e+00
2.289819879757073018e+00
2.255693838312936794e+00
2.255693838312936794e+00
2.255693838312936794e+00
2.255693838312936794e+00
2.233380657368694511e+00
2.233380657368694511e+00
2.233380657368694511e+00
2.230380565813165905e+00
2.230380565813165905e+00
2.230380565813165905e+00
2.236755760368663637e+00
2.236755760368663637e+00
2.236755760368663637e+00
2.236755760368663637e+00
2.235818231757560781e+00
2.235818231757560781e+00
2.235818231757560781e+00
2.233755668813135031e+00
2.233755668813135031e+00
2.233755668813135031e+00
2.208067384868923178e+00
2.208067384868923178e+00
2.208067384868923178e+00
2.208067384868923178e+00
2.228693014313181120e+00
2.228693014313181120e+00
2.228693014313181120e+00
2.301820245979186552e+00
2.301820245979186552e+00
2.301820245979186552e+00
2.301820245979186552e+00
2.314945646534623425e+00
2.314945646534623425e+00
2.314945646534623425e+00
2.297320108645893644e+00
2.297320108645893644e+00
2.297320108645893644e+00
2.297320108645893644e+00
2.292444959868159771e+00
2.292444959868159771e+00
2.292444959868159771e+00
2.257756401257362544e+00
2.257756401257362544e+00
2.257756401257362544e+00
2.221005279702139568e+00
2.221005279702139568e+00
2.221005279702139568e+00
2.221005279702139568e+00
2.215567613757744247e+00
2.215567613757744247e+00
2.215567613757744247e+00
2.211254982146671821e+00
2.211254982146671821e+00
2.211254982146671821e+00
2.211254982146671821e+00
2.214630085146641392e+00
2.214630085146641392e+00
2.214630085146641392e+00
2.224942899868770141e+00
2.224942899868770141e+00
2.224942899868770141e+00
2.215192602313302839e+00
2.215192602313302839e+00
2.215192602313302839e+00
2.215192602313302839e+00
2.247818597979674760e+00
2.247818597979674760e+00
2.247818597979674760e+00
2.243505966368602778e+00
2.243505966368602778e+00
2.243505966368602778e+00
2.243505966368602778e+00
2.250068666646320992e+00
2.250068666646320992e+00
2.250068666646320992e+00
2.292069948423719250e+00
2.292069948423719250e+00
2.292069948423719250e+00
2.269381756035035114e+00
2.269381756035035114e+00
2.269381756035035114e+00
2.269381756035035114e+00
2.283069673757133433e+00
2.283069673757133433e+00
2.283069673757133433e+00
2.236380748924222672e+00
2.236380748924222672e+00
2.236380748924222672e+00
2.236380748924222672e+00
2.219317728202154782e+00
2.219317728202154782e+00
2.219317728202154782e+00
2.231505600146489243e+00
2.231505600146489243e+00
2.231505600146489243e+00
2.231505600146489243e+00
2.216505142368846659e+00
2.216505142368846659e+00
2.216505142368846659e+00
2.225692922757652514e+00
2.225692922757652514e+00
2.225692922757652514e+00
2.269756767479476078e+00
2.269756767479476078e+00
2.269756767479476078e+00
2.269756767479476078e+00
2.236755760368663637e+00
2.236755760368663637e+00
2.236755760368663637e+00
2.214630085146641392e+00
2.214630085146641392e+00
2.214630085146641392e+00
2.255131321146275347e+00
2.255131321146275347e+00
2.255131321146275347e+00
2.255131321146275347e+00
2.262819055757316900e+00
2.262819055757316900e+00
2.262819055757316900e+00
2.268444227423932702e+00
2.268444227423932702e+00
2.268444227423932702e+00
2.268444227423932702e+00
2.291882442701498768e+00
2.291882442701498768e+00
2.291882442701498768e+00
2.320195806756797818e+00
2.320195806756797818e+00
2.320195806756797818e+00
2.322820886867885459e+00
2.322820886867885459e+00
2.322820886867885459e+00
2.322820886867885459e+00
2.280632099368266719e+00
2.280632099368266719e+00
2.280632099368266719e+00
2.257568895535142062e+00
2.257568895535142062e+00
2.257568895535142062e+00
2.257568895535142062e+00
2.210692464980010374e+00
2.210692464980010374e+00
2.210692464980010374e+00
2.204129764702292160e+00
2.204129764702292160e+00
2.204129764702292160e+00
2.227192968535416817e+00
2.227192968535416817e+00
2.227192968535416817e+00
2.227192968535416817e+00
2.200942167424543072e+00
2.200942167424543072e+00
2.200942167424543072e+00
2.224942899868770141e+00
2.224942899868770141e+00
2.224942899868770141e+00
2.224942899868770141e+00
2.255881344035157721e+00
2.255881344035157721e+00
2.255881344035157721e+00
2.219130222479934300e+00
2.219130222479934300e+00
2.219130222479934300e+00
2.201317178868984037e+00
2.201317178868984037e+00
2.201317178868984037e+00
2.201317178868984037e+00
2.239755851924192243e+00
2.239755851924192243e+00
2.239755851924192243e+00
2.268069215979491737e+00
2.268069215979491737e+00
2.268069215979491737e+00
2.268069215979491737e+00
2.299007660145878429e+00
2.299007660145878429e+00
2.299007660145878429e+00
2.314383129367961978e+00
2.314383129367961978e+00
2.314383129367961978e+00
2.314383129367961978e+00
2.272194341868343237e+00
2.272194341868343237e+00
2.272194341868343237e+00
2.260381481368449741e+00
2.260381481368449741e+00
2.260381481368449741e+00
2.285694753868221074e+00
2.285694753868221074e+00
2.285694753868221074e+00
2.285694753868221074e+00
2.272381847590563719e+00
2.272381847590563719e+00
2.272381847590563719e+00
2.259256447035126847e+00
2.259256447035126847e+00
2.259256447035126847e+00
2.259256447035126847e+00
2.239005829035309869e+00
2.239005829035309869e+00
2.239005829035309869e+00
2.207879879146702695e+00
2.207879879146702695e+00
2.207879879146702695e+00
2.203192236091189304e+00
2.203192236091189304e+00
2.203192236091189304e+00
2.203192236091189304e+00
2.181629078035828950e+00
2.181629078035828950e+00
2.181629078035828950e+00
2.206379833368938392e+00
2.206379833368938392e+00
2.206379833368938392e+00
2.206379833368938392e+00
2.298445142979216982e+00
2.298445142979216982e+00
2.298445142979216982e+00
2.316258186590166801e+00
2.316258186590166801e+00
2.316258186590166801e+00
2.287569811090426342e+00
2.287569811090426342e+00
2.287569811090426342e+00
2.287569811090426342e+00
2.310445509201330516e+00
2.310445509201330516e+00
2.310445509201330516e+00
2.272569353312784202e+00
2.272569353312784202e+00
2.272569353312784202e+00
2.272569353312784202e+00
2.223817865535447247e+00
2.223817865535447247e+00
2.223817865535447247e+00
2.233755668813135031e+00
2.233755668813135031e+00
2.233755668813135031e+00
2.235068208868678852e+00
2.235068208868678852e+00
2.235068208868678852e+00
2.235068208868678852e+00
2.221942808313242423e+00
2.221942808313242423e+00
2.221942808313242423e+00
2.228693014313181120e+00
2.228693014313181120e+00
2.228693014313181120e+00
2.228693014313181120e+00
2.217442670979949515e+00
2.217442670979949515e+00
2.217442670979949515e+00
2.240693380535294654e+00
2.240693380535294654e+00
2.240693380535294654e+00
2.240693380535294654e+00
2.213317545091097571e+00
2.213317545091097571e+00
2.213317545091097571e+00
2.253631275368511044e+00
2.253631275368511044e+00
2.253631275368511044e+00
2.257006378368480615e+00
2.257006378368480615e+00
2.257006378368480615e+00
2.257006378368480615e+00
2.267881710257271255e+00
2.267881710257271255e+00
2.267881710257271255e+00
2.298820154423657947e+00
2.298820154423657947e+00
2.298820154423657947e+00
2.298820154423657947e+00
2.287007293923764895e+00
2.287007293923764895e+00
2.287007293923764895e+00
2.246881069368571904e+00
2.246881069368571904e+00
2.246881069368571904e+00
2.208629902035584625e+00
2.208629902035584625e+00
2.208629902035584625e+00
2.208629902035584625e+00
2.217255165257729033e+00
2.217255165257729033e+00
2.217255165257729033e+00
2.274444410534989469e+00
2.274444410534989469e+00
2.274444410534989469e+00
2.274444410534989469e+00
2.270881801812799416e+00
2.270881801812799416e+00
2.269756767479476078e+00
2.269756767479476078e+00
2.269756767479476078e+00
2.231880611590930208e+00
2.231880611590930208e+00
2.231880611590930208e+00
2.238068300424207457e+00
2.238068300424207457e+00
2.238068300424207457e+00
2.238068300424207457e+00
2.209379924924466998e+00
2.209379924924466998e+00
2.209379924924466998e+00
2.259631458479567812e+00
2.259631458479567812e+00
2.259631458479567812e+00
2.259631458479567812e+00
2.288882351145970162e+00
2.288882351145970162e+00
2.288882351145970162e+00
2.301632740256966070e+00
2.301632740256966070e+00
2.301632740256966070e+00
2.301820245979186552e+00
2.301820245979186552e+00
2.301820245979186552e+00
2.301820245979186552e+00
2.286444776757103448e+00
2.286444776757103448e+00
2.286444776757103448e+00
2.261131504257332114e+00
2.261131504257332114e+00
2.261131504257332114e+00
2.261131504257332114e+00
2.230943082979827352e+00
2.230943082979827352e+00
2.230943082979827352e+00
2.214255073702200427e+00
2.214255073702200427e+00
2.214255073702200427e+00
2.198692098757896396e+00
2.198692098757896396e+00
2.198692098757896396e+00
2.198692098757896396e+00
2.214817590868861874e+00
2.214817590868861874e+00
2.214817590868861874e+00
2.234505691702016961e+00
2.234505691702016961e+00
2.234505691702016961e+00
2.234505691702016961e+00
2.257193884090700653e+00
2.257193884090700653e+00
2.257193884090700653e+00
2.250068666646320992e+00
2.250068666646320992e+00
2.250068666646320992e+00
2.250068666646320992e+00
2.205067293313394572e+00
2.205067293313394572e+00
2.205067293313394572e+00
2.245006012146367080e+00
2.245006012146367080e+00
2.245006012146367080e+00
2.272569353312784202e+00
2.272569353312784202e+00
2.272569353312784202e+00
2.272569353312784202e+00
2.292819971312600735e+00
2.292819971312600735e+00
2.292819971312600735e+00
2.301257728812525105e+00
2.301257728812525105e+00
2.301257728812525105e+00
2.301257728812525105e+00
2.287757316812646824e+00
2.287757316812646824e+00
2.287757316812646824e+00
2.260193975646229259e+00
2.260193975646229259e+00
2.260193975646229259e+00
2.257193884090700653e+00
2.257193884090700653e+00
2.257193884090700653e+00
2.257193884090700653e+00
2.249506149479659545e+00
2.249506149479659545e+00
2.249506149479659545e+00
2.261881527146214044e+00
2.261881527146214044e+00
2.261881527146214044e+00
2.261881527146214044e+00
2.263756584368419311e+00
2.263756584368419311e+00
2.263756584368419311e+00
2.204692281868953607e+00
2.204692281868953607e+00
2.204692281868953607e+00
2.194379467146824858e+00
2.194379467146824858e+00
2.194379467146824858e+00
2.194379467146824858e+00
2.191754387035737217e+00
2.191754387035737217e+00
2.191754387035737217e+00
2.245381023590808045e+00
2.245381023590808045e+00
2.245381023590808045e+00
2.274069399090548504e+00
2.274069399090548504e+00
2.274069399090548504e+00
2.274069399090548504e+00
2.278007019257179522e+00
2.278007019257179522e+00
2.269006744590594149e+00
2.269006744590594149e+00
2.269006744590594149e+00
2.269006744590594149e+00
2.306882900479140464e+00
2.306882900479140464e+00
2.306882900479140464e+00
2.253256263924070080e+00
2.253256263924070080e+00
2.253256263924070080e+00
2.218380199591051927e+00
2.218380199591051927e+00
2.218380199591051927e+00
2.218380199591051927e+00
2.230193060090945423e+00
2.230193060090945423e+00
2.230193060090945423e+00
2.239380840479750834e+00
2.239380840479750834e+00
2.239380840479750834e+00
2.246506057924130939e+00
2.246506057924130939e+00
2.246506057924130939e+00
2.246506057924130939e+00
2.256631366924039650e+00
2.256631366924039650e+00
2.256631366924039650e+00
2.318320749534592551e+00
2.318320749534592551e+00
2.318320749534592551e+00
2.228880520035401602e+00
2.228880520035401602e+00
2.228880520035401602e+00
2.228880520035401602e+00
2.222692831202123909e+00
2.222692831202123909e+00
2.222692831202123909e+00
2.241255897701956545e+00
2.241255897701956545e+00
2.241255897701956545e+00
2.241255897701956545e+00
2.263006561479537382e+00
2.263006561479537382e+00
2.263006561479537382e+00
2.258881435590685438e+00
2.258881435590685438e+00
2.258881435590685438e+00
2.278757042146061895e+00
2.278757042146061895e+00
2.278757042146061895e+00
2.278757042146061895e+00
2.316070680867946319e+00
2.316070680867946319e+00
2.316070680867946319e+00
2.273131870479445649e+00
2.273131870479445649e+00
2.273131870479445649e+00
2.210692464980010374e+00
2.210692464980010374e+00
2.210692464980010374e+00
2.210692464980010374e+00
2.196817041535691573e+00
2.196817041535691573e+00
2.196817041535691573e+00
2.175628894924771739e+00
2.175628894924771739e+00
2.175628894924771739e+00
2.175628894924771739e+00
2.229255531479842567e+00
2.229255531479842567e+00
2.229255531479842567e+00
2.248193609424115724e+00
2.248193609424115724e+00
2.248193609424115724e+00
2.248193609424115724e+00
2.263381572923978347e+00
2.263381572923978347e+00
2.263381572923978347e+00
2.254006286812952009e+00
2.254006286812952009e+00
2.254006286812952009e+00
2.250443678090761956e+00
2.250443678090761956e+00
2.250443678090761956e+00
2.250443678090761956e+00
2.300695211645863214e+00
2.300695211645863214e+00
2.300695211645863214e+00
2.291132419812616394e+00
2.291132419812616394e+00
2.291132419812616394e+00
2.291132419812616394e+00
2.260568987090670667e+00
2.260568987090670667e+00
2.260568987090670667e+00
2.249506149479659545e+00
2.249506149479659545e+00
2.249506149479659545e+00
2.257756401257362544e+00
2.257756401257362544e+00
2.257756401257362544e+00
2.257756401257362544e+00
2.253631275368511044e+00
2.253631275368511044e+00
2.253631275368511044e+00
2.221942808313242423e+00
2.221942808313242423e+00
2.221942808313242423e+00
2.221942808313242423e+00
2.227192968535416817e+00
2.227192968535416817e+00
2.227192968535416817e+00
2.236943266090884119e+00
2.236943266090884119e+00
2.236943266090884119e+00
2.236943266090884119e+00
2.259818964201788294e+00
2.259818964201788294e+00
2.259818964201788294e+00
2.237318277535325084e+00
2.237318277535325084e+00
2.237318277535325084e+00
2.239943357646412725e+00
2.239943357646412725e+00
2.239943357646412725e+00
2.239943357646412725e+00
2.245381023590808045e+00
2.245381023590808045e+00
2.245381023590808045e+00
2.221005279702139568e+00
2.221005279702139568e+00
2.221005279702139568e+00
2.221005279702139568e+00
2.170566240424817828e+00
2.170566240424817828e+00
2.170566240424817828e+00
2.248381115146336207e+00
2.248381115146336207e+00
2.248381115146336207e+00
2.276694479201635701e+00
2.276694479201635701e+00
2.276694479201635701e+00
2.276694479201635701e+00
2.268819238868374111e+00
2.268819238868374111e+00
2.268819238868374111e+00
2.331071138645588459e+00
2.331071138645588459e+00
2.331071138645588459e+00
2.331071138645588459e+00
2.333696218756676100e+00
2.333696218756676100e+00
2.333696218756676100e+00
2.317008209479048730e+00
2.317008209479048730e+00
2.317008209479048730e+00
2.317008209479048730e+00
2.297507614368114126e+00
2.297507614368114126e+00
2.297507614368114126e+00
2.250443678090761956e+00
2.250443678090761956e+00
2.250443678090761956e+00
2.216317636646626177e+00
2.216317636646626177e+00
2.216317636646626177e+00
2.216317636646626177e+00
2.221192785424360050e+00
2.221192785424360050e+00
2.221192785424360050e+00
2.226067934202093479e+00
2.226067934202093479e+00
2.226067934202093479e+00
2.239193334757530351e+00
2.239193334757530351e+00
2.239193334757530351e+00
2.239193334757530351e+00
2.208817407757805107e+00
2.208817407757805107e+00
2.208817407757805107e+00
2.175441389202551257e+00
2.175441389202551257e+00
2.175441389202551257e+00
2.175441389202551257e+00
2.262444044312875935e+00
2.262444044312875935e+00
2.262444044312875935e+00
2.369134800256355700e+00
2.369134800256355700e+00
2.369134800256355700e+00
2.369134800256355700e+00
2.332383678701132279e+00
2.332383678701132279e+00
2.332383678701132279e+00
2.224380382702108694e+00
2.224380382702108694e+00
2.224380382702108694e+00
2.225880428479872997e+00
2.225880428479872997e+00
2.225880428479872997e+00
2.225880428479872997e+00
2.231318094424268317e+00
2.231318094424268317e+00
2.231318094424268317e+00
2.240693380535294654e+00
2.240693380535294654e+00
2.240693380535294654e+00
2.240693380535294654e+00
2.228880520035401602e+00
2.228880520035401602e+00
2.228880520035401602e+00
2.289257362590411127e+00
2.289257362590411127e+00
2.289257362590411127e+00
2.284757225257118218e+00
2.284757225257118218e+00
2.284757225257118218e+00
2.284757225257118218e+00
2.281944639423810539e+00
2.281944639423810539e+00
2.281944639423810539e+00
2.241068391979735619e+00
2.241068391979735619e+00
2.241068391979735619e+00
2.241068391979735619e+00
2.219692739646595747e+00
2.219692739646595747e+00
2.219692739646595747e+00
2.239005829035309869e+00
2.239005829035309869e+00
2.239005829035309869e+00
2.239005829035309869e+00
2.266569170201727434e+00
2.266569170201727434e+00
2.266569170201727434e+00
2.295257545701467894e+00
2.295257545701467894e+00
2.295257545701467894e+00
2.292444959868159771e+00
2.292444959868159771e+00
2.292444959868159771e+00
2.292444959868159771e+00
2.298257637256996500e+00
2.298257637256996500e+00
2.298257637256996500e+00
2.256631366924039650e+00
2.256631366924039650e+00
2.256631366924039650e+00
2.256631366924039650e+00
2.230568071535386387e+00
2.230568071535386387e+00
2.230568071535386387e+00
2.236568254646443155e+00
2.236568254646443155e+00
2.236568254646443155e+00
2.241443403424177028e+00
2.241443403424177028e+00
2.241443403424177028e+00
2.241443403424177028e+00
2.209379924924466998e+00
2.209379924924466998e+00
2.209379924924466998e+00
2.204129764702292160e+00
2.204129764702292160e+00
2.204129764702292160e+00
2.157440839869380955e+00
2.157440839869380955e+00
2.157440839869380955e+00
2.157440839869380955e+00
2.162128482924894346e+00
2.162128482924894346e+00
2.162128482924894346e+00
2.217817682424390480e+00
2.217817682424390480e+00
2.217817682424390480e+00
2.217817682424390480e+00
2.285882259590441556e+00
2.285882259590441556e+00
2.285882259590441556e+00
2.299570177312540320e+00
2.299570177312540320e+00
2.299570177312540320e+00
2.299570177312540320e+00
2.329008575701162709e+00
2.329008575701162709e+00
2.329008575701162709e+00
2.337446333201086635e+00
2.337446333201086635e+00
2.337446333201086635e+00
2.299007660145878429e+00
2.299007660145878429e+00
2.299007660145878429e+00
2.299007660145878429e+00
2.272756859035004684e+00
2.272756859035004684e+00
2.272756859035004684e+00
2.253818781090731527e+00
2.253818781090731527e+00
2.253818781090731527e+00
2.253818781090731527e+00
2.282507156590471986e+00
2.282507156590471986e+00
2.282507156590471986e+00
2.252881252479629115e+00
2.252881252479629115e+00
2.252881252479629115e+00
2.222692831202123909e+00
2.222692831202123909e+00
2.222692831202123909e+00
2.222692831202123909e+00
2.204317270424512643e+00
2.204317270424512643e+00
2.204317270424512643e+00
2.134752647480697263e+00
2.134752647480697263e+00
2.134752647480697263e+00
2.134752647480697263e+00
2.230568071535386387e+00
2.230568071535386387e+00
2.230568071535386387e+00
2.257381389812921579e+00
2.257381389812921579e+00
2.257381389812921579e+00
2.304820337534714714e+00
2.304820337534714714e+00
2.304820337534714714e+00
2.304820337534714714e+00
2.342696493423261028e+00
2.342696493423261028e+00
2.342696493423261028e+00
2.385822809533982625e+00
2.385822809533982625e+00
2.385822809533982625e+00
2.385822809533982625e+00
2.355446882534256936e+00
2.355446882534256936e+00
2.355446882534256936e+00
2.271631824701681346e+00
2.271631824701681346e+00
2.271631824701681346e+00
2.228693014313181120e+00
2.228693014313181120e+00
2.228693014313181120e+00
2.228693014313181120e+00
2.162315988647114828e+00
2.162315988647114828e+00
2.162315988647114828e+00
2.157815851313821920e+00
2.157815851313821920e+00
2.157815851313821920e+00
2.157815851313821920e+00
2.149190588091677956e+00
2.149190588091677956e+00
2.149190588091677956e+00
2.205629810480056463e+00
2.205629810480056463e+00
2.205629810480056463e+00
2.205629810480056463e+00
2.206004821924497428e+00
2.206004821924497428e+00
2.206004821924497428e+00
2.187066743980223826e+00
2.187066743980223826e+00
2.187066743980223826e+00
2.286819788201544412e+00
2.286819788201544412e+00
2.286819788201544412e+00
2.286819788201544412e+00
2.265256630146183614e+00
2.265256630146183614e+00
2.265256630146183614e+00
2.284382213812677254e+00
2.284382213812677254e+00
2.284382213812677254e+00
2.284382213812677254e+00
2.308195440534684284e+00
2.308195440534684284e+00
2.308195440534684284e+00
2.301257728812525105e+00
2.301257728812525105e+00
2.301257728812525105e+00
2.246693563646351421e+00
2.246693563646351421e+00
2.246693563646351421e+00
2.246693563646351421e+00
2.258506424146244473e+00
2.258506424146244473e+00
2.258506424146244473e+00
2.265444135868404540e+00
2.265444135868404540e+00
2.265444135868404540e+00
2.265444135868404540e+00
2.240130863368633207e+00
2.240130863368633207e+00
2.240130863368633207e+00
2.257568895535142062e+00
2.257568895535142062e+00
2.257568895535142062e+00
2.287194799645985377e+00
2.287194799645985377e+00
2.287194799645985377e+00
2.287194799645985377e+00
2.290944914090395912e+00
2.290944914090395912e+00
2.290944914090395912e+00
2.234880703146458369e+00
2.234880703146458369e+00
2.234880703146458369e+00
2.234880703146458369e+00
2.169066194647053525e+00
2.169066194647053525e+00
2.169066194647053525e+00
2.265819147312845505e+00
2.265819147312845505e+00
2.265819147312845505e+00
2.265819147312845505e+00
2.255881344035157721e+00
2.255881344035157721e+00
2.255881344035157721e+00
2.276319467757194737e+00
2.276319467757194737e+00
2.276319467757194737e+00
2.271444318979460864e+00
2.271444318979460864e+00
2.271444318979460864e+00
2.271444318979460864e+00
2.264506607257301685e+00
2.264506607257301685e+00
2.264506607257301685e+00
2.254943815424054865e+00
2.254943815424054865e+00
2.254943815424054865e+00
2.254943815424054865e+00
2.262069032868434526e+00
2.262069032868434526e+00
2.262069032868434526e+00
2.263756584368419311e+00
2.263756584368419311e+00
2.263756584368419311e+00
2.280444593646046680e+00
2.280444593646046680e+00
2.280444593646046680e+00
2.280444593646046680e+00
2.292257454145939732e+00
2.292257454145939732e+00
2.292257454145939732e+00
2.251193700979644330e+00
2.251193700979644330e+00
2.251193700979644330e+00
2.251193700979644330e+00
2.275756950590533290e+00
2.275756950590533290e+00
2.275756950590533290e+00
2.233193151646474028e+00
2.233193151646474028e+00
2.233193151646474028e+00
2.199254615924558287e+00
2.199254615924558287e+00
2.199254615924558287e+00
2.199254615924558287e+00
2.195504501480147752e+00
2.195504501480147752e+00
2.195504501480147752e+00
2.264881618701742649e+00
2.264881618701742649e+00
2.264881618701742649e+00
2.264881618701742649e+00
2.325070955534531691e+00
2.325070955534531691e+00
2.325070955534531691e+00
2.341946470534379099e+00
2.341946470534379099e+00
2.341946470534379099e+00
2.341946470534379099e+00
2.311945554979094819e+00
2.311945554979094819e+00
2.311945554979094819e+00
2.257006378368480615e+00
2.257006378368480615e+00
2.257006378368480615e+00
2.270319284646137969e+00
2.270319284646137969e+00
2.270319284646137969e+00
2.270319284646137969e+00
2.191566881313516735e+00
2.191566881313516735e+00
2.191566881313516735e+00
2.153315713980529011e+00
2.153315713980529011e+00
2.153315713980529011e+00
2.153315713980529011e+00
2.169816217535935454e+00
2.169816217535935454e+00
2.169816217535935454e+00
2.257381389812921579e+00
2.257381389812921579e+00
2.257381389812921579e+00
2.284944730979339145e+00
2.284944730979339145e+00
2.284944730979339145e+00
2.284944730979339145e+00
2.289069856868190644e+00
2.289069856868190644e+00
2.289069856868190644e+00
2.266194158757286470e+00
2.266194158757286470e+00
2.266194158757286470e+00
2.266194158757286470e+00
2.284757225257118218e+00
2.284757225257118218e+00
2.284757225257118218e+00
2.291882442701498768e+00
2.291882442701498768e+00
2.291882442701498768e+00
2.291882442701498768e+00
2.229255531479842567e+00
2.229255531479842567e+00
2.229255531479842567e+00
2.311570543534653854e+00
2.311570543534653854e+00
2.311570543534653854e+00
2.315508163701284872e+00
2.315508163701284872e+00
2.315508163701284872e+00
2.315508163701284872e+00
2.297132602923673161e+00
2.297132602923673161e+00
2.297132602923673161e+00
2.275756950590533290e+00
2.275756950590533290e+00
2.275756950590533290e+00
2.275756950590533290e+00
2.199067110202337361e+00
2.199067110202337361e+00
2.199067110202337361e+00
2.227942991424298746e+00
2.227942991424298746e+00
2.227942991424298746e+00
2.257381389812921579e+00
2.257381389812921579e+00
2.257381389812921579e+00
2.257381389812921579e+00
2.259443952757347329e+00
2.259443952757347329e+00
2.142065370647297406e+00
2.142065370647297406e+00
2.116377086703085553e+00
2.207692373424482213e+00
2.207692373424482213e+00
2.204504776146733125e+00
2.204504776146733125e+00
2.290757408368175430e+00
2.295820062868129341e+00
2.295820062868129341e+00
2.344009033478804849e+00
2.344009033478804849e+00
2.343071504867702437e+00
2.314945646534623425e+00
2.314945646534623425e+00
2.299570177312540320e+00
2.320570818201239227e+00
2.320570818201239227e+00
2.237505783257545566e+00
2.237505783257545566e+00
2.195316995757927270e+00
2.197567064424573946e+00
2.197567064424573946e+00
2.167191137424848257e+00
2.167191137424848257e+00
2.124439832758568070e+00
2.150878139591662741e+00
2.150878139591662741e+00
2.275194433423871843e+00
2.275194433423871843e+00
2.335196264534440402e+00
2.329196081423383191e+00
2.329196081423383191e+00
2.337258827478866152e+00
2.337258827478866152e+00
2.319820795312356854e+00
2.313258095034638639e+00
2.313258095034638639e+00
2.324320932645649762e+00
2.246881069368571904e+00
2.246881069368571904e+00
2.205817316202276945e+00
2.205817316202276945e+00
2.304070314645832784e+00
2.325070955534531691e+00
2.325070955534531691e+00
2.219317728202154782e+00
2.219317728202154782e+00
2.255131321146275347e+00
2.276506973479415219e+00
2.276506973479415219e+00
2.236380748924222672e+00
2.236380748924222672e+00
2.217630176702169997e+00
2.228505508590960638e+00
2.228505508590960638e+00
2.237880794701986531e+00
2.237880794701986531e+00
2.209004913480026033e+00
2.204879787591174090e+00
2.204879787591174090e+00
2.203192236091189304e+00
2.224380382702108694e+00
2.224380382702108694e+00
2.271444318979460864e+00
2.271444318979460864e+00
2.279507065034943825e+00
2.215192602313302839e+00
2.215192602313302839e+00
2.219692739646595747e+00
2.219692739646595747e+00
2.272756859035004684e+00
2.294507522812585520e+00
2.294507522812585520e+00
2.370447340311899076e+00
2.370447340311899076e+00
2.355634388256477418e+00
2.346446607867672007e+00
2.346446607867672007e+00
2.304632831812494231e+00
2.304632831812494231e+00
2.140377819147312621e+00
2.157440839869380955e+00
2.157440839869380955e+00
2.219692739646595747e+00
2.235443220313119816e+00
2.235443220313119816e+00
2.256818872646260132e+00
2.256818872646260132e+00
2.224942899868770141e+00
2.235818231757560781e+00
2.241255897701956545e+00
2.241255897701956545e+00
2.263194067201757864e+00
2.312695577867977192e+00
2.312695577867977192e+00
2.343634022034363884e+00
2.343634022034363884e+00
2.288132328257088233e+00
2.317758232367931104e+00
2.317758232367931104e+00
2.278382030701620931e+00
2.278382030701620931e+00
2.181629078035828950e+00
2.196629535813471090e+00
2.196629535813471090e+00
2.186129215369121415e+00
2.186129215369121415e+00
2.200942167424543072e+00
2.281007110812707683e+00
2.281007110812707683e+00
2.281382122257148648e+00
2.281382122257148648e+00
2.224380382702108694e+00
2.236193243202001746e+00
2.236193243202001746e+00
2.263944090090640238e+00
2.263944090090640238e+00
2.281194616534928166e+00
2.332946195867793726e+00
2.332946195867793726e+00
2.362009582811975594e+00
2.328821069978942226e+00
2.328821069978942226e+00
2.265256630146183614e+00
2.265256630146183614e+00
2.157815851313821920e+00
2.061437910092470904e+00
2.061437910092470904e+00
2.160628437147130043e+00
2.160628437147130043e+00
2.289069856868190644e+00
2.289069856868190644e+00
2.299007660145878429e+00
2.233005645924253102e+00
2.233005645924253102e+00
2.211442487868892304e+00
2.281757133701590057e+00
2.281757133701590057e+00
2.325445966978973100e+00
2.325445966978973100e+00
2.302945280312509890e+00
2.317195715201269657e+00
2.317195715201269657e+00
2.305945371868038052e+00
2.301820245979186552e+00
2.301820245979186552e+00
2.271444318979460864e+00
2.268819238868374111e+00
2.268819238868374111e+00
2.209192419202246516e+00
2.209192419202246516e+00
2.181441572313608468e+00
2.277256996368297592e+00
2.328446058534500818e+00
2.328446058534500818e+00
2.269006744590594149e+00
2.269006744590594149e+00
2.209192419202246516e+00
2.219505233924375265e+00
2.219505233924375265e+00
2.162691000091555793e+00
2.162691000091555793e+00
2.200942167424543072e+00
2.296007568590349823e+00
2.296007568590349823e+00
2.320008301034577336e+00
2.320008301034577336e+00
2.302757774590289408e+00
2.262819055757316900e+00
2.262819055757316900e+00
2.300132694479201767e+00
2.304257820368053267e+00
2.304257820368053267e+00
2.248006103701895242e+00
2.248006103701895242e+00
2.184254158146916147e+00
2.210879970702230857e+00
2.210879970702230857e+00
2.157815851313821920e+00
2.157815851313821920e+00
2.305570360423596643e+00
2.327321024201178368e+00
2.327321024201178368e+00
2.319633289590136371e+00
2.319633289590136371e+00
2.378322580645161111e+00
2.333696218756676100e+00
2.333696218756676100e+00
2.193816949980162967e+00
2.122752281258583285e+00
2.122752281258583285e+00
2.196067018646809643e+00
2.196067018646809643e+00
2.272569353312784202e+00
2.184441663869136629e+00
2.184441663869136629e+00
2.209942442091128445e+00
2.209942442091128445e+00
2.311383037812433372e+00
2.290569902645954947e+00
2.290569902645954947e+00
2.215380108035523765e+00
2.215380108035523765e+00
2.332571184423352761e+00
2.335196264534440402e+00
2.335196264534440402e+00
2.270319284646137969e+00
2.268069215979491737e+00
2.268069215979491737e+00
2.251943723868526259e+00
2.251943723868526259e+00
2.258318918424023991e+00
2.323008392590105942e+00
2.323008392590105942e+00
2.252506241035188150e+00
2.252506241035188150e+00
2.186504226813562823e+00
2.174128849147007880e+00
2.174128849147007880e+00
2.229630542924283532e+00
2.207879879146702695e+00
2.207879879146702695e+00
2.160440931424909561e+00
2.160440931424909561e+00
2.186504226813562823e+00
2.191191869869075770e+00
2.191191869869075770e+00
2.254943815424054865e+00
2.254943815424054865e+00
2.374197454756310055e+00
2.411886104922635443e+00
2.411886104922635443e+00
2.331633655812249906e+00
2.331633655812249906e+00
2.321320841090121156e+00
2.321320841090121156e+00
2.321320841090121156e+00
2.255881344035157721e+00
2.276131962034974254e+00
2.276131962034974254e+00
2.270506790368358452e+00
2.270506790368358452e+00
2.307445417645802355e+00
2.219505233924375265e+00
2.219505233924375265e+00
2.135877681814020157e+00
2.135877681814020157e+00
2.188754295480208611e+00
2.185379192480239485e+00
2.185379192480239485e+00
2.175253883480330774e+00
2.175253883480330774e+00
2.271256813257240381e+00
2.360134525589770327e+00
2.360134525589770327e+00
2.348696676534318240e+00
2.311570543534653854e+00
2.311570543534653854e+00
2.235630726035340299e+00
2.235630726035340299e+00
2.211817499313333268e+00
2.193629444257942485e+00
2.193629444257942485e+00
2.280069582201605716e+00
2.280069582201605716e+00
2.227005462813196335e+00
2.227005462813196335e+00
2.193441938535722002e+00
2.291694936979278285e+00
2.291694936979278285e+00
2.329196081423383191e+00
2.329196081423383191e+00
2.191191869869075770e+00
2.246693563646351421e+00
2.246693563646351421e+00
2.270319284646137969e+00
2.270319284646137969e+00
2.269381756035035114e+00
2.345884090701010116e+00
2.345884090701010116e+00
2.289257362590411127e+00
2.274444410534989469e+00
2.274444410534989469e+00
2.156128299813837135e+00
2.156128299813837135e+00
2.116564592425305591e+00
2.194191961424603932e+00
2.194191961424603932e+00
2.231880611590930208e+00
2.231880611590930208e+00
2.270131778923917043e+00
2.393510544145024177e+00
2.393510544145024177e+00
2.394260567033906106e+00
2.379072603534043484e+00
2.379072603534043484e+00
2.330321115756706529e+00
2.330321115756706529e+00
2.292444959868159771e+00
2.225317911313211550e+00
2.225317911313211550e+00
2.110001892147587377e+00
2.110001892147587377e+00
2.124252327036347587e+00
2.227942991424298746e+00
2.227942991424298746e+00
2.299382671590319838e+00
2.299382671590319838e+00
2.243880977813043742e+00
2.241068391979735619e+00
2.241068391979735619e+00
2.288319833979308715e+00
2.284194708090456771e+00
2.284194708090456771e+00
2.246881069368571904e+00
2.246881069368571904e+00
2.316633198034607766e+00
2.329383587145603673e+00
2.329383587145603673e+00
2.324133426923429280e+00
2.324133426923429280e+00
2.322633381145664977e+00
2.221005279702139568e+00
2.221005279702139568e+00
2.071375713370158689e+00
2.071375713370158689e+00
2.153128208258308529e+00
2.206192327646717910e+00
2.206192327646717910e+00
2.298070131534776017e+00
2.298070131534776017e+00
2.345321573534348669e+00
2.386760338145085036e+00
2.386760338145085036e+00
2.271631824701681346e+00
2.260943998535111632e+00
2.260943998535111632e+00
2.259443952757347329e+00
2.259443952757347329e+00
2.224192876979888212e+00
2.191754387035737217e+00
2.191754387035737217e+00
2.265444135868404540e+00
2.265444135868404540e+00
2.245568529313028083e+00
2.283257179479354360e+00
2.283257179479354360e+00
2.347384136478774419e+00
2.347384136478774419e+00
2.313445600756859122e+00
2.265069124423963132e+00
2.265069124423963132e+00
2.233755668813135031e+00
2.145440473647266977e+00
2.145440473647266977e+00
2.059750358592486119e+00
2.134752647480697263e+00
2.134752647480697263e+00
2.217630176702169997e+00
2.217630176702169997e+00
2.331071138645588459e+00
2.415448713644825496e+00
2.415448713644825496e+00
2.403823358867152926e+00
2.403823358867152926e+00
2.346821619312112972e+00
2.303320291756950855e+00
2.303320291756950855e+00
2.227380474257637299e+00
2.227380474257637299e+00
2.237693288979766049e+00
2.288319833979308715e+00
2.288319833979308715e+00
2.299757683034760802e+00
2.233568163090914993e+00
2.233568163090914993e+00
2.128377452925199087e+00
2.128377452925199087e+00
2.162691000091555793e+00
2.287007293923764895e+00
2.287007293923764895e+00
2.309695486312448587e+00
2.309695486312448587e+00
2.286069765312662039e+00
2.391072969756157018e+00
2.391072969756157018e+00
2.345509079256569152e+00
2.345509079256569152e+00
2.163816034424878687e+00
2.150128116702780368e+00
2.150128116702780368e+00
2.269006744590594149e+00
2.269006744590594149e+00
2.348884182256538722e+00
2.324695944090090727e+00
2.324695944090090727e+00
2.209754936368907963e+00
2.196254524369030126e+00
2.199442121646778769e+00
2.199442121646778769e+00
2.231880611590930208e+00
2.273881893368328022e+00
2.273881893368328022e+00
2.262631550035096417e+00
2.262631550035096417e+00
2.241443403424177028e+00
2.257568895535142062e+00
2.257568895535142062e+00
2.323945921201208797e+00
2.323945921201208797e+00
2.388822901089510786e+00
2.328071047090059853e+00
2.328071047090059853e+00
2.369134800256355700e+00
2.369134800256355700e+00
2.311570543534653854e+00
2.215192602313302839e+00
2.215192602313302839e+00
2.109251869258705447e+00
2.051125095370342155e+00
2.051125095370342155e+00
2.146565507980590315e+00
2.263756584368419311e+00
2.263756584368419311e+00
2.340446424756614796e+00
2.340446424756614796e+00
2.331446150090029423e+00
2.363697134311959935e+00
2.363697134311959935e+00
2.306320383312479017e+00
2.306320383312479017e+00
2.275194433423871843e+00
2.234130680257575996e+00
2.234130680257575996e+00
2.195316995757927270e+00
2.270694296090578934e+00
2.270694296090578934e+00
2.237693288979766049e+00
2.237693288979766049e+00
2.147128025147251762e+00
2.256443861201819168e+00
2.256443861201819168e+00
2.312508072145756710e+00
2.312508072145756710e+00
2.344009033478804849e+00
2.316820703756828248e+00
2.316820703756828248e+00
2.248381115146336207e+00
2.248381115146336207e+00
2.214067567979979945e+00
2.267319193090609808e+00
2.267319193090609808e+00
2.306695394756919981e+00
2.306695394756919981e+00
2.306132877590258534e+00
2.264131595812860720e+00
2.264131595812860720e+00
2.277069490646077110e+00
2.375134983367412023e+00
2.375134983367412023e+00
2.358446974089785542e+00
2.358446974089785542e+00
2.300507705923642732e+00
2.180504043702505612e+00
2.180504043702505612e+00
2.059187841425824672e+00
2.059187841425824672e+00
2.021124179815057875e+00
2.109064363536484965e+00
2.109064363536484965e+00
2.254381298257393418e+00
2.254381298257393418e+00
2.366322214423047576e+00
2.437011871700186294e+00
2.437011871700186294e+00
2.297695120090334608e+00
2.274631916257209951e+00
2.274631916257209951e+00
2.400073244422742391e+00
2.400073244422742391e+00
2.356196905423139309e+00
2.271819330423901828e+00
2.271819330423901828e+00
2.214817590868861874e+00
2.214817590868861874e+00
2.193066927091281038e+00
2.200942167424543072e+00
2.200942167424543072e+00
2.234505691702016961e+00
2.141877864925076924e+00
2.141877864925076924e+00
2.164191045869319652e+00
2.164191045869319652e+00
2.214630085146641392e+00
2.368197271645252844e+00
2.368197271645252844e+00
2.455012421033357040e+00
2.455012421033357040e+00
2.411136082033753514e+00
2.341383953367717208e+00
2.341383953367717208e+00
2.318695760979033516e+00
2.318695760979033516e+00
2.246318552201910457e+00
2.296382580034791232e+00
2.296382580034791232e+00
2.196067018646809643e+00
2.169253700369274007e+00
2.169253700369274007e+00
2.223817865535447247e+00
2.223817865535447247e+00
2.208067384868923178e+00
2.336883816034425188e+00
2.336883816034425188e+00
2.265631641590625023e+00
2.265631641590625023e+00
2.278757042146061895e+00
2.186691732535783306e+00
2.186691732535783306e+00
2.138877773369548763e+00
2.138877773369548763e+00
2.290569902645954947e+00
2.365384685811944721e+00
2.411698599200414961e+00
2.339321390423291458e+00
2.339321390423291458e+00
2.228318002868740155e+00
2.228318002868740155e+00
2.274069399090548504e+00
2.338946378978850937e+00
2.162503494369335311e+00
2.162503494369335311e+00
2.108126834925382109e+00
2.108126834925382109e+00
2.217442670979949515e+00
2.299007660145878429e+00
2.299007660145878429e+00
2.342133976256599581e+00
2.342133976256599581e+00
2.318320749534592551e+00
2.233380657368694511e+00
2.233380657368694511e+00
2.181254066591387542e+00
2.234318185979796478e+00
2.234318185979796478e+00
2.343634022034363884e+00
2.343634022034363884e+00
2.314945646534623425e+00
2.232630634479812137e+00
2.232630634479812137e+00
2.233005645924253102e+00
2.233005645924253102e+00
2.259256447035126847e+00
2.264881618701742649e+00
2.264881618701742649e+00
2.337258827478866152e+00
2.327133518478957885e+00
2.327133518478957885e+00
2.352259285256507848e+00
2.352259285256507848e+00
2.360697042756431774e+00
2.337633838923307117e+00
2.337633838923307117e+00
2.264506607257301685e+00
2.264506607257301685e+00
2.189879329813531950e+00
2.238818323313089387e+00
2.238818323313089387e+00
2.205067293313394572e+00
2.205067293313394572e+00
2.213130039368877089e+00
2.198879604480116878e+00
2.198879604480116878e+00
2.188941801202429094e+00
2.188941801202429094e+00
2.179191503646961792e+00
2.322070863979003530e+00
2.322070863979003530e+00
2.342883999145481511e+00
2.236380748924222672e+00
2.236380748924222672e+00
2.309507980590228104e+00
2.309507980590228104e+00
2.266944181646168399e+00
2.225880428479872997e+00
2.225880428479872997e+00
2.253256263924070080e+00
2.253256263924070080e+00
2.289819879757073018e+00
2.254193792535172935e+00
2.254193792535172935e+00
2.245943540757469048e+00
2.245943540757469048e+00
2.200754661702322146e+00
2.186504226813562823e+00
2.186504226813562823e+00
2.192879421369060555e+00
2.192879421369060555e+00
2.347571642200994901e+00
2.247631092257453833e+00
2.247631092257453833e+00
2.287194799645985377e+00
2.379447614978484449e+00
2.379447614978484449e+00
2.319258278145695407e+00
2.319258278145695407e+00
2.222130314035462462e+00
2.137565233314004942e+00
2.137565233314004942e+00
2.089751274147770843e+00
2.089751274147770843e+00
2.079625965147862576e+00
2.226067934202093479e+00
2.226067934202093479e+00
2.319258278145695407e+00
2.319258278145695407e+00
2.337258827478866152e+00
2.249693655201880027e+00
2.249693655201880027e+00
2.302570268868068482e+00
2.302570268868068482e+00
2.255131321146275347e+00
2.275944456312753772e+00
2.275944456312753772e+00
2.311758049256874337e+00
2.324695944090090727e+00
2.324695944090090727e+00
2.254568803979613900e+00
2.254568803979613900e+00
2.263569078646198829e+00
2.117689626758628929e+00
2.117689626758628929e+00
2.028999420148319910e+00
2.028999420148319910e+00
2.176566423535874595e+00
2.260756492812891150e+00
2.260756492812891150e+00
2.232630634479812137e+00
2.356759422589800756e+00
2.356759422589800756e+00
2.340821436201055761e+00
2.340821436201055761e+00
2.372697408978545752e+00
2.341571459089938134e+00
2.341571459089938134e+00
2.233943174535355514e+00
2.233943174535355514e+00
2.219505233924375265e+00
2.197942075869014911e+00
2.197942075869014911e+00
2.173378826258125951e+00
2.173378826258125951e+00
2.115439558091983141e+00
2.194754478591265823e+00
2.194754478591265823e+00
2.342321481978820064e+00
2.342321481978820064e+00
2.263006561479537382e+00
2.239193334757530351e+00
2.239193334757530351e+00
2.299382671590319838e+00
2.338571367534409973e+00
2.338571367534409973e+00
2.230755577257606870e+00
2.254381298257393418e+00
2.239380840479750834e+00
2.239380840479750834e+00
2.263381572923978347e+00
2.206754844813379357e+00
2.206754844813379357e+00
2.079063447981200685e+00
2.079063447981200685e+00
2.210692464980010374e+00
2.397073152867214230e+00
2.397073152867214230e+00
2.379072603534043484e+00
2.379072603534043484e+00
2.345884090701010116e+00
2.358821985534226506e+00
2.358821985534226506e+00
2.279507065034943825e+00
2.156690816980498582e+00
2.156690816980498582e+00
2.204504776146733125e+00
2.204504776146733125e+00
2.205442304757835537e+00
2.077938413647877791e+00
2.077938413647877791e+00
2.256256355479598685e+00
2.256256355479598685e+00
2.399323221533860018e+00
2.269569261757255596e+00
2.269569261757255596e+00
2.255881344035157721e+00
2.255881344035157721e+00
2.334821253089998994e+00
2.297507614368114126e+00
2.297507614368114126e+00
2.317570726645710621e+00
2.218192693868831444e+00
2.218192693868831444e+00
2.094438917203283790e+00
2.094438917203283790e+00
2.194379467146824858e+00
2.246131046479689974e+00
2.246131046479689974e+00
2.224755394146549659e+00
2.224755394146549659e+00
2.243693472090823260e+00
2.242568437757499922e+00
2.242568437757499922e+00
2.259256447035126847e+00
2.259256447035126847e+00
2.388447889645069822e+00
2.413011139255958781e+00
2.413011139255958781e+00
2.200942167424543072e+00
2.259631458479567812e+00
2.259631458479567812e+00
2.328258552812280335e+00
2.328258552812280335e+00
2.221380291146580532e+00
2.125752372814111890e+00
2.125752372814111890e+00
2.048875026703695923e+00
2.048875026703695923e+00
2.047562486648152102e+00
2.141877864925076924e+00
2.141877864925076924e+00
2.200942167424543072e+00
2.200942167424543072e+00
2.244255989257484707e+00
2.311195532090212890e+00
2.311195532090212890e+00
2.228693014313181120e+00
2.228693014313181120e+00
2.348696676534318240e+00
2.443012054811243061e+00
2.443012054811243061e+00
2.410573564867091623e+00
2.387510361033966966e+00
2.387510361033966966e+00
2.301632740256966070e+00
2.301632740256966070e+00
2.245381023590808045e+00
2.136440198980682048e+00
2.136440198980682048e+00
2.094251411481063307e+00
2.094251411481063307e+00
2.125752372814111890e+00
2.236005737479781263e+00
2.236005737479781263e+00
2.224192876979888212e+00
2.224192876979888212e+00
2.281757133701590057e+00
2.308195440534684284e+00
2.308195440534684284e+00
2.311570543534653854e+00
2.271819330423901828e+00
2.271819330423901828e+00
2.326008484145634547e+00
2.326008484145634547e+00
2.290569902645954947e+00
2.271819330423901828e+00
2.271819330423901828e+00
2.275194433423871843e+00
2.275194433423871843e+00
2.311758049256874337e+00
2.211817499313333268e+00
2.211817499313333268e+00
2.317008209479048730e+00
2.279882076479384789e+00
2.279882076479384789e+00
2.129502487258521981e+00
2.129502487258521981e+00
1.991498275704214560e+00
2.201692190313425002e+00
2.201692190313425002e+00
2.405510910367137711e+00
2.405510910367137711e+00
2.377010040589617734e+00
2.322070863979003530e+00
2.322070863979003530e+00
2.260006469924008776e+00
2.260006469924008776e+00
2.230380565813165905e+00
2.291694936979278285e+00
2.291694936979278285e+00
2.177316446424756524e+00
2.213130039368877089e+00
2.213130039368877089e+00
2.119939695425275605e+00
2.119939695425275605e+00
2.221755302591021497e+00
2.314008117923521013e+00
2.314008117923521013e+00
2.255131321146275347e+00
2.255131321146275347e+00
2.308570451979125249e+00
2.308570451979125249e+00
2.244443494979705633e+00
2.170378734702597345e+00
2.170378734702597345e+00
2.257193884090700653e+00
2.257193884090700653e+00
2.339321390423291458e+00
2.517451826532791870e+00
2.517451826532791870e+00
2.308570451979125249e+00
2.308570451979125249e+00
2.206754844813379357e+00
1.938059144871364436e+00
1.938059144871364436e+00
2.032187017426068998e+00
2.032187017426068998e+00
2.313070589312418157e+00
2.391822992645039392e+00
2.391822992645039392e+00
2.381510177922910199e+00
2.409636036255989211e+00
2.409636036255989211e+00
2.289444868312631609e+00
2.237693288979766049e+00
2.237693288979766049e+00
2.130065004425183872e+00
2.130065004425183872e+00
2.079250953703421168e+00
2.180691549424726094e+00
2.180691549424726094e+00
2.360134525589770327e+00
2.360134525589770327e+00
2.417323770867030763e+00
2.369134800256355700e+00
2.369134800256355700e+00
2.221192785424360050e+00
2.167566148869289222e+00
2.167566148869289222e+00
2.361072054200873183e+00
2.361072054200873183e+00
2.287382305368205859e+00
2.197754570146794428e+00
2.197754570146794428e+00
2.196067018646809643e+00
2.196067018646809643e+00
2.064625507370219992e+00
2.087876216925565576e+00
2.087876216925565576e+00
2.383197729422894984e+00
2.383197729422894984e+00
2.775084688863795890e+00
2.518389355143894726e+00
2.518389355143894726e+00
2.257568895535142062e+00
2.257568895535142062e+00
2.143752922147282192e+00
2.145815485091708386e+00
2.145815485091708386e+00
2.090313791314432290e+00
2.090313791314432290e+00
2.062562944425794242e+00
2.142815393536179780e+00
2.142815393536179780e+00
2.424261482589190386e+00
2.385822809533982625e+00
2.385822809533982625e+00
2.271631824701681346e+00
2.271631824701681346e+00
2.043249855037080120e+00
2.134377636036255854e+00
2.134377636036255854e+00
2.456324961088900860e+00
2.456324961088900860e+00
2.392573015533921321e+00
2.290194891201513983e+00
2.290194891201513983e+00
2.200192144535660699e+00
2.200192144535660699e+00
2.425386516922513280e+00
2.403823358867152926e+00
2.403823358867152926e+00
2.159315897091586223e+00
2.238068300424207457e+00
2.238068300424207457e+00
2.277444502090518075e+00
2.277444502090518075e+00
2.197942075869014911e+00
2.071188207647938206e+00
2.071188207647938206e+00
2.074938322092349186e+00
2.213130039368877089e+00
2.233943174535355514e+00
2.213692556535538980e+00
2.213692556535538980e+00
2.329946104312265120e+00
2.329946104312265120e+00
2.465700247199926753e+00
2.248193609424115724e+00
2.248193609424115724e+00
2.306507889034699499e+00
2.306507889034699499e+00
2.228880520035401602e+00
2.007436262092959556e+00
2.007436262092959556e+00
2.084876125370036970e+00
2.084876125370036970e+00
2.290944914090395912e+00
2.408135990478225352e+00
2.408135990478225352e+00
2.481450727866450823e+00
2.481450727866450823e+00
2.306507889034699499e+00
2.116939603869747000e+00
2.116939603869747000e+00
1.932621478926969116e+00
2.208629902035584625e+00
2.208629902035584625e+00
2.372697408978545752e+00
2.372697408978545752e+00
2.640830591753899004e+00
2.578016174810022321e+00
2.578016174810022321e+00
2.080375988036744506e+00
2.080375988036744506e+00
2.122377269814142320e+00
2.308945463423566213e+00
2.308945463423566213e+00
2.253631275368511044e+00
2.253631275368511044e+00
2.204504776146733125e+00
2.219880245368816230e+00
2.219880245368816230e+00
2.179754020813623683e+00
2.102314157536546269e+00
2.122564775536362802e+00
2.122564775536362802e+00
2.319633289590136371e+00
2.485200842310861358e+00
2.485200842310861358e+00
2.432699240089114312e+00
2.432699240089114312e+00
2.284194708090456771e+00
2.076813379314554453e+00
2.076813379314554453e+00
2.110564409314249268e+00
2.268631733146153184e+00
2.268631733146153184e+00
2.241068391979735619e+00
2.398948210089419053e+00
2.398948210089419053e+00
2.474513016144291644e+00
2.474513016144291644e+00
2.310445509201330516e+00
2.278569536423841413e+00
2.278569536423841413e+00
2.266006653035065987e+00
2.150128116702780368e+00
2.150128116702780368e+00
2.241068391979735619e+00
2.241068391979735619e+00
2.161753471480452937e+00
1.945934385204626693e+00
1.945934385204626693e+00
1.966935026093325822e+00
1.966935026093325822e+00
2.447137180700094561e+00
2.593016632587664461e+00
2.593016632587664461e+00
2.423886471144749422e+00
2.423886471144749422e+00
2.239380840479750834e+00
2.000498550370799933e+00
2.000498550370799933e+00
2.071000701925717724e+00
2.119189672536393232e+00
2.119189672536393232e+00
2.144877956480605530e+00
2.144877956480605530e+00
2.313070589312418157e+00
2.303132786034730373e+00
2.303132786034730373e+00
2.270881801812799416e+00
2.270881801812799416e+00
2.268069215979491737e+00
2.424636494033631351e+00
2.424636494033631351e+00
2.464575212866603859e+00
2.464575212866603859e+00
2.306320383312479017e+00
2.229818048646504014e+00
2.229818048646504014e+00
2.281382122257148648e+00
2.248756126590777171e+00
2.248756126590777171e+00
2.140002807702871657e+00
2.140002807702871657e+00
2.176378917813653668e+00
2.206379833368938392e+00
2.206379833368938392e+00
2.215192602313302839e+00
2.215192602313302839e+00
2.316258186590166801e+00
2.412823633533738299e+00
2.412823633533738299e+00
2.382072695089572090e+00
2.382072695089572090e+00
2.405323404644917229e+00
2.366322214423047576e+00
2.366322214423047576e+00
2.246881069368571904e+00
2.366134708700827094e+00
2.366134708700827094e+00
2.301070223090304623e+00
2.301070223090304623e+00
2.145440473647266977e+00
2.052437635425885976e+00
2.052437635425885976e+00
2.103439191869869163e+00
2.103439191869869163e+00
2.189129306924649576e+00
2.495701162755211033e+00
2.495701162755211033e+00
2.401573290200506694e+00
2.208442396313364142e+00
2.208442396313364142e+00
2.172816309091464060e+00
2.172816309091464060e+00
2.121814752647480873e+00
2.191566881313516735e+00
2.191566881313516735e+00
2.330883632923367976e+00
2.330883632923367976e+00
2.275381939146092325e+00
2.260568987090670667e+00
2.260568987090670667e+00
2.375509994811853431e+00
2.375509994811853431e+00
2.335946287423322332e+00
2.407385967589342979e+00
2.407385967589342979e+00
2.335571275978881367e+00
2.335758781701101849e+00
2.335758781701101849e+00
2.274256904812768987e+00
2.274256904812768987e+00
1.987935666982024729e+00
1.862681844538712772e+00
1.862681844538712772e+00
1.975935300759910973e+00
1.975935300759910973e+00
2.333508713034455617e+00
2.356946928312021239e+00
2.356946928312021239e+00
2.462137638477736701e+00
2.462137638477736701e+00
2.515389263588366120e+00
2.397448164311655194e+00
2.397448164311655194e+00
2.401948301644947659e+00
2.401948301644947659e+00
2.229818048646504014e+00
1.961309854426709798e+00
1.961309854426709798e+00
1.942746787926877827e+00
2.024311777092806519e+00
2.181066560869167059e+00
2.552702902310250987e+00
2.552702902310250987e+00
2.704020020142216207e+00
2.704020020142216207e+00
2.376635029145176325e+00
2.219317728202154782e+00
2.219317728202154782e+00
2.182004089480269915e+00
2.262631550035096417e+00
2.262631550035096417e+00
2.185754203924680450e+00
2.185754203924680450e+00
2.183129123813593253e+00
2.037437177648243392e+00
2.037437177648243392e+00
2.230755577257606870e+00
2.230755577257606870e+00
2.195129490035706787e+00
2.376822534867396808e+00
2.376822534867396808e+00
2.507889034699545494e+00
2.372134891811884305e+00
2.372134891811884305e+00
2.116564592425305591e+00
2.116564592425305591e+00
2.151440656758324188e+00
2.268819238868374111e+00
2.268819238868374111e+00
2.287944822534867306e+00
2.287944822534867306e+00
2.099314065981017663e+00
2.251943723868526259e+00
2.251943723868526259e+00
2.362572099978637485e+00
2.362572099978637485e+00
2.348321665089877275e+00
2.119752189703054679e+00
2.119752189703054679e+00
2.306320383312479017e+00
2.527577135532700581e+00
2.527577135532700581e+00
2.534139835810419239e+00
2.534139835810419239e+00
2.127814935758537640e+00
2.159690908536027187e+00
2.159690908536027187e+00
2.176753929258095077e+00
2.176753929258095077e+00
2.239755851924192243e+00
2.257006378368480615e+00
2.257006378368480615e+00
2.367072237311929506e+00
2.367072237311929506e+00
2.437761894589068223e+00
2.193254432813501520e+00
2.193254432813501520e+00
2.254381298257393418e+00
2.254381298257393418e+00
2.331821161534470832e+00
2.388822901089510786e+00
2.388822901089510786e+00
2.191754387035737217e+00
2.181066560869167059e+00
2.181066560869167059e+00
2.000686056093020415e+00
2.000686056093020415e+00
1.980060426648762473e+00
2.126502395702994264e+00
2.126502395702994264e+00
2.455387432477798004e+00
2.455387432477798004e+00
2.474138004699850679e+00
2.125939878536332373e+00
2.125939878536332373e+00
2.245006012146367080e+00
2.245006012146367080e+00
2.325633472701193583e+00
2.577641163365581356e+00
2.577641163365581356e+00
2.404198370311593891e+00
2.294132511368144556e+00
2.294132511368144556e+00
2.225317911313211550e+00
2.225317911313211550e+00
2.101939146092104860e+00
2.148815576647236547e+00
2.148815576647236547e+00
2.228130497146519229e+00
2.228130497146519229e+00
2.185754203924680450e+00
2.205442304757835537e+00
2.205442304757835537e+00
2.455387432477798004e+00
2.455387432477798004e+00
2.438324411755729670e+00
2.236193243202001746e+00
2.236193243202001746e+00
2.206754844813379357e+00
2.339883907589953349e+00
2.339883907589953349e+00
2.209942442091128445e+00
2.209942442091128445e+00
2.026749351481673678e+00
2.073625782036805365e+00
2.073625782036805365e+00
2.307820429090243319e+00
2.307820429090243319e+00
2.367634754478591397e+00
2.341758964812158617e+00
2.341758964812158617e+00
2.302945280312509890e+00
2.302945280312509890e+00
2.221567796868801015e+00
2.083751091036713632e+00
2.083751091036713632e+00
2.254193792535172935e+00
2.245568529313028083e+00
2.245568529313028083e+00
2.325258461256752618e+00
2.325258461256752618e+00
2.347009125034333454e+00
2.375697500534073914e+00
2.375697500534073914e+00
2.386760338145085036e+00
2.386760338145085036e+00
2.542765099032563203e+00
2.330508621478927012e+00
2.330508621478927012e+00
2.330321115756706529e+00
2.330321115756706529e+00
2.194754478591265823e+00
2.075125827814569668e+00
2.075125827814569668e+00
2.064625507370219992e+00
2.063500473036897098e+00
2.063500473036897098e+00
2.137565233314004942e+00
2.241255897701956545e+00
2.241255897701956545e+00
2.085063631092257452e+00
2.085063631092257452e+00
2.225505417035432032e+00
2.368009765923032361e+00
2.368009765923032361e+00
2.401198278756065729e+00
2.424261482589190386e+00
2.424261482589190386e+00
2.161378460036011973e+00
2.161378460036011973e+00
2.221567796868801015e+00
2.296195074312570750e+00
2.296195074312570750e+00
2.173753837702566916e+00
2.173753837702566916e+00
2.211817499313333268e+00
2.351134250923184954e+00
2.351134250923184954e+00
2.518201849421674243e+00
2.518201849421674243e+00
2.478075624866481697e+00
2.327321024201178368e+00
2.327321024201178368e+00
2.202442213202307375e+00
2.202442213202307375e+00
2.323570909756767389e+00
2.104189214758751536e+00
2.104189214758751536e+00
2.074750816370128703e+00
2.194566972869045340e+00
2.194566972869045340e+00
2.168878688924833043e+00
2.168878688924833043e+00
2.346071596423230599e+00
2.327508529923398850e+00
2.327508529923398850e+00
2.240130863368633207e+00
2.240130863368633207e+00
2.212567522202215642e+00
2.153878231147190458e+00
2.153878231147190458e+00
2.084688619647816488e+00
2.084688619647816488e+00
2.232068117313150690e+00
2.202817224646748340e+00
2.202817224646748340e+00
2.403823358867152926e+00
2.403823358867152926e+00
2.508639057588427423e+00
2.530202215643787778e+00
2.530202215643787778e+00
2.317195715201269657e+00
2.103064180425428198e+00
2.103064180425428198e+00
2.000123538926358524e+00
2.000123538926358524e+00
2.241255897701956545e+00
2.368572283089693808e+00
2.368572283089693808e+00
2.134377636036255854e+00
2.134377636036255854e+00
2.089563768425550361e+00
2.282132145146031021e+00
2.282132145146031021e+00
2.347196630756553937e+00
2.347196630756553937e+00
2.508451551866206941e+00
2.555140476699118146e+00
2.555140476699118146e+00
2.340446424756614796e+00
2.340446424756614796e+00
2.236755760368663637e+00
2.278007019257179522e+00
2.278007019257179522e+00
2.131565050202948175e+00
1.898870448927274301e+00
1.898870448927274301e+00
1.979310403759880321e+00
1.979310403759880321e+00
2.388822901089510786e+00
2.560015625476852019e+00
2.560015625476852019e+00
2.478638142033143144e+00
2.478638142033143144e+00
2.105126743369853504e+00
2.110751915036469750e+00
2.110751915036469750e+00
2.182004089480269915e+00
2.235255714590899334e+00
2.291694936979278285e+00
2.291694936979278285e+00
2.324508438367870244e+00
2.324508438367870244e+00
2.380572649311807787e+00
2.428574114200262368e+00
2.428574114200262368e+00
2.236193243202001746e+00
2.236193243202001746e+00
2.206379833368938392e+00
2.125752372814111890e+00
2.125752372814111890e+00
2.148815576647236547e+00
2.148815576647236547e+00
2.371947386089663379e+00
2.397823175756096159e+00
2.397823175756096159e+00
2.288319833979308715e+00
2.288319833979308715e+00
2.237880794701986531e+00
2.251381206701864812e+00
2.251381206701864812e+00
2.216130130924405695e+00
2.216130130924405695e+00
2.221380291146580532e+00
2.300507705923642732e+00
2.300507705923642732e+00
2.237880794701986531e+00
2.216880153813287624e+00
2.216880153813287624e+00
2.228505508590960638e+00
2.228505508590960638e+00
2.220817773979919085e+00
2.138690267647328280e+00
2.138690267647328280e+00
2.075688344981231115e+00
2.075688344981231115e+00
2.354509353923154524e+00
2.401010773033844803e+00
2.401010773033844803e+00
2.331633655812249906e+00
2.327883541367839371e+00
2.327883541367839371e+00
2.249506149479659545e+00
2.249506149479659545e+00
2.131565050202948175e+00
2.191379375591296252e+00
2.191379375591296252e+00
2.214255073702200427e+00
2.214255073702200427e+00
2.267881710257271255e+00
2.520451918088320475e+00
2.520451918088320475e+00
2.363134617145298488e+00
2.363134617145298488e+00
2.140377819147312621e+00
2.250631183812982439e+00
2.336696310312204705e+00
2.336696310312204705e+00
1.996748435926389398e+00
1.996748435926389398e+00
2.152190679647205673e+00
2.321695852534562121e+00
2.321695852534562121e+00
2.351509262367625919e+00
2.341758964812158617e+00
2.341758964812158617e+00
2.368759788811914291e+00
2.368759788811914291e+00
2.322820886867885459e+00
2.367822260200811879e+00
2.367822260200811879e+00
2.281569627979369130e+00
2.281569627979369130e+00
2.180316537980285130e+00
2.181629078035828950e+00
2.181629078035828950e+00
2.254381298257393418e+00
2.254381298257393418e+00
2.197567064424573946e+00
2.231505600146489243e+00
2.231505600146489243e+00
2.330133610034486047e+00
2.330133610034486047e+00
2.307632923368022837e+00
2.254568803979613900e+00
2.254568803979613900e+00
2.289444868312631609e+00
2.223067842646564873e+00
2.223067842646564873e+00
2.261694021423993561e+00
2.261694021423993561e+00
2.408886013367107282e+00
2.248568620868556689e+00
2.248568620868556689e+00
2.073625782036805365e+00
2.073625782036805365e+00
2.132690084536271069e+00
2.218942716757713818e+00
2.218942716757713818e+00
2.093876400036621899e+00
2.093876400036621899e+00
2.203379741813409787e+00
2.333133701590014208e+00
2.328258552812280335e+00
2.328258552812280335e+00
2.208254890591143660e+00
2.208254890591143660e+00
2.224755394146549659e+00
2.215192602313302839e+00
2.215192602313302839e+00
2.367822260200811879e+00
2.367822260200811879e+00
2.413948667867061193e+00
2.373072420422986717e+00
2.373072420422986717e+00
2.495701162755211033e+00
2.495701162755211033e+00
2.334071230201117064e+00
2.095938962981048093e+00
2.095938962981048093e+00
2.007623767815180038e+00
2.007623767815180038e+00
2.092001342814417075e+00
2.356571916867580274e+00
2.356571916867580274e+00
2.373259926145207199e+00
2.373259926145207199e+00
2.393135532700583212e+00
2.447512192144535526e+00
2.447512192144535526e+00
2.235818231757560781e+00
2.236380748924222672e+00
2.236380748924222672e+00
2.186504226813562823e+00
2.186504226813562823e+00
2.167941160313730187e+00
2.127627430036317158e+00
2.127627430036317158e+00
2.108876857814264483e+00
2.108876857814264483e+00
2.205817316202276945e+00
2.392385509811700839e+00
2.392385509811700839e+00
2.498513748588519157e+00
2.498513748588519157e+00
2.282882168034912951e+00
2.244818506424146598e+00
2.244818506424146598e+00
2.271256813257240381e+00
2.271256813257240381e+00
2.186129215369121415e+00
2.061812921536912313e+00
2.061812921536912313e+00
2.154628254036072832e+00
2.154628254036072832e+00
2.243130954924161813e+00
2.293945005645924073e+00
2.293945005645924073e+00
2.345509079256569152e+00
2.326383495590075512e+00
2.326383495590075512e+00
2.302195257423627517e+00
2.302195257423627517e+00
2.354509353923154524e+00
2.276506973479415219e+00
2.276506973479415219e+00
2.362384594256416559e+00
2.362384594256416559e+00
2.345134067812128187e+00
2.240693380535294654e+00
2.240693380535294654e+00
2.127627430036317158e+00
2.127627430036317158e+00
2.139440290536210654e+00
2.251943723868526259e+00
2.251943723868526259e+00
2.243505966368602778e+00
2.298070131534776017e+00
2.298070131534776017e+00
2.311570543534653854e+00
2.266006653035065987e+00
2.266006653035065987e+00
2.330133610034486047e+00
2.330133610034486047e+00
2.235255714590899334e+00
2.186504226813562823e+00
2.186504226813562823e+00
2.226067934202093479e+00
2.226067934202093479e+00
2.145065462202826012e+00
2.187816766869105756e+00
2.187816766869105756e+00
2.397073152867214230e+00
2.397073152867214230e+00
2.381510177922910199e+00
2.373072420422986717e+00
2.373072420422986717e+00
2.284944730979339145e+00
2.166628620258186366e+00
2.166628620258186366e+00
2.231505600146489243e+00
2.231505600146489243e+00
2.334258735923337547e+00
2.334446241645558029e+00
2.334446241645558029e+00
2.397260658589434712e+00
2.397260658589434712e+00
2.294132511368144556e+00
2.070625690481276759e+00
2.070625690481276759e+00
1.900933011871700273e+00
1.900933011871700273e+00
2.129877498702963390e+00
2.260381481368449741e+00
2.260381481368449741e+00
2.266006653035065987e+00
2.266006653035065987e+00
2.372322397534104788e+00
2.338946378978850937e+00
2.338946378978850937e+00
2.365197180089724238e+00
2.247631092257453833e+00
2.247631092257453833e+00
2.357321939756462204e+00
2.357321939756462204e+00
2.275569444868312807e+00
2.299382671590319838e+00
2.299382671590319838e+00
2.349821710867641578e+00
2.349821710867641578e+00
2.204879787591174090e+00
2.156690816980498582e+00
2.156690816980498582e+00
2.129127475814081016e+00
2.129127475814081016e+00
2.038374706259346247e+00
2.165128574480422063e+00
2.165128574480422063e+00
2.552140385143589540e+00
2.552140385143589540e+00
2.313445600756859122e+00
2.223067842646564873e+00
2.223067842646564873e+00
2.218005188146610962e+00
2.218005188146610962e+00
2.355446882534256936e+00
2.383947752311777357e+00
2.383947752311777357e+00
2.349446699423200169e+00
2.375885006256294396e+00
2.375885006256294396e+00
2.252693746757408633e+00
2.252693746757408633e+00
2.277256996368297592e+00
2.255693838312936794e+00
2.255693838312936794e+00
2.299195165868098911e+00
2.299195165868098911e+00
2.194941984313486305e+00
2.104189214758751536e+00
2.104189214758751536e+00
1.972560197759941625e+00
1.972560197759941625e+00
2.007436262092959556e+00
2.301070223090304623e+00
2.301070223090304623e+00
2.389947935422834124e+00
2.389947935422834124e+00
2.406073427533799602e+00
2.305570360423596643e+00
2.305570360423596643e+00
2.355259376812036454e+00
2.402323313089388623e+00
2.402323313089388623e+00
2.205442304757835537e+00
2.205442304757835537e+00
2.154065736869411385e+00
2.213880062257759462e+00
2.213880062257759462e+00
2.338196356089969008e+00
2.338196356089969008e+00
2.456137455366679934e+00
2.341946470534379099e+00
2.341946470534379099e+00
2.134190130314035372e+00
2.134190130314035372e+00
2.164191045869319652e+00
2.135315164647358710e+00
2.135315164647358710e+00
1.950434522537919158e+00
1.950434522537919158e+00
2.150690633869442259e+00
2.484450819421979428e+00
2.484450819421979428e+00
2.490638508255257122e+00
2.465700247199926753e+00
2.465700247199926753e+00
2.186691732535783306e+00
2.186691732535783306e+00
2.255131321146275347e+00
2.012873928037354432e+00
2.012873928037354432e+00
2.171878780480361648e+00
2.171878780480361648e+00
2.316633198034607766e+00
2.423886471144749422e+00
2.423886471144749422e+00
2.361259559923093665e+00
2.223067842646564873e+00
2.223067842646564873e+00
2.183879146702475182e+00
2.183879146702475182e+00
2.254756309701834383e+00
2.323008392590105942e+00
2.323008392590105942e+00
2.451262306588946061e+00
2.451262306588946061e+00
2.300882717368083696e+00
2.146190496536149350e+00
2.146190496536149350e+00
2.136627704702902530e+00
2.136627704702902530e+00
2.192504409924619146e+00
2.259631458479567812e+00
2.259631458479567812e+00
2.234880703146458369e+00
2.308007934812463802e+00
2.308007934812463802e+00
2.343634022034363884e+00
2.343634022034363884e+00
2.117689626758628929e+00
2.201317178868984037e+00
2.201317178868984037e+00
2.321320841090121156e+00
2.321320841090121156e+00
2.289632374034852091e+00
2.287007293923764895e+00
2.287007293923764895e+00
2.377947569200720146e+00
2.377947569200720146e+00
2.283069673757133433e+00
2.306132877590258534e+00
2.306132877590258534e+00
2.442074526200140649e+00
2.442074526200140649e+00
2.378885097811823002e+00
2.251756218146305777e+00
2.251756218146305777e+00
2.154065736869411385e+00
2.230568071535386387e+00
2.230568071535386387e+00
2.100626606036561483e+00
2.100626606036561483e+00
2.007998779259621003e+00
2.039687246314890068e+00
2.039687246314890068e+00
2.315320657979064389e+00
2.315320657979064389e+00
2.363322122867518971e+00
2.227192968535416817e+00
2.227192968535416817e+00
2.384510269478438804e+00
2.384510269478438804e+00
2.404385876033814373e+00
2.323383404034546906e+00
2.323383404034546906e+00
2.361634571367534630e+00
2.361634571367534630e+00
2.214255073702200427e+00
2.212567522202215642e+00
2.212567522202215642e+00
2.237693288979766049e+00
2.237693288979766049e+00
2.071938230536820580e+00
2.026374340037232713e+00
2.026374340037232713e+00
2.110939420758690233e+00
2.435136814477980582e+00
2.435136814477980582e+00
2.450324777977843649e+00
2.450324777977843649e+00
2.349259193700979687e+00
2.387135349589526001e+00
2.387135349589526001e+00
2.280632099368266719e+00
2.280632099368266719e+00
2.186691732535783306e+00
2.244255989257484707e+00
2.244255989257484707e+00
2.195129490035706787e+00
2.195129490035706787e+00
2.238818323313089387e+00
2.232443128757591655e+00
2.232443128757591655e+00
2.275756950590533290e+00
2.275756950590533290e+00
2.359759514145329362e+00
2.396323129978331856e+00
2.396323129978331856e+00
2.294695028534806447e+00
2.326946012756737403e+00
2.326946012756737403e+00
2.347009125034333454e+00
2.347009125034333454e+00
2.297695120090334608e+00
2.045124912259285388e+00
2.045124912259285388e+00
1.941621753593554489e+00
1.896057863093966622e+00
1.896057863093966622e+00
2.318883266701254442e+00
2.318883266701254442e+00
2.523827021088290046e+00
2.423886471144749422e+00
2.423886471144749422e+00
2.308945463423566213e+00
2.308945463423566213e+00
2.251943723868526259e+00
2.259256447035126847e+00
2.259256447035126847e+00
2.192504409924619146e+00
2.192504409924619146e+00
2.284007202368236289e+00
2.288507339701529197e+00
2.288507339701529197e+00
2.259818964201788294e+00
2.259818964201788294e+00
2.364634662923062791e+00
2.386760338145085036e+00
2.386760338145085036e+00
2.346634113589892490e+00
2.346634113589892490e+00
2.235443220313119816e+00
2.079438459425641650e+00
2.079438459425641650e+00
2.040999786370433888e+00
2.127439924314096675e+00
2.127439924314096675e+00
2.387510361033966966e+00
2.387510361033966966e+00
2.421823908200323228e+00
2.355071871089815971e+00
2.355071871089815971e+00
2.294132511368144556e+00
2.294132511368144556e+00
2.298820154423657947e+00
2.308195440534684284e+00
2.308195440534684284e+00
2.279507065034943825e+00
2.155565782647175688e+00
2.155565782647175688e+00
1.993373332926419828e+00
1.993373332926419828e+00
2.242755943479720404e+00
2.338008850367748082e+00
2.338008850367748082e+00
2.120689718314157535e+00
2.120689718314157535e+00
2.219505233924375265e+00
2.212567522202215642e+00
2.212567522202215642e+00
2.281757133701590057e+00
2.281757133701590057e+00
2.314383129367961978e+00
2.255318826868495830e+00
2.255318826868495830e+00
2.184816675313578038e+00
2.184816675313578038e+00
2.308570451979125249e+00
2.316445692312387283e+00
2.316445692312387283e+00
2.289444868312631609e+00
2.344759056367687222e+00
2.344759056367687222e+00
2.396510635700552783e+00
2.396510635700552783e+00
2.313070589312418157e+00
2.267694204535050773e+00
2.267694204535050773e+00
2.297320108645893644e+00
2.297320108645893644e+00
2.246881069368571904e+00
2.223442854091006282e+00
2.223442854091006282e+00
2.159878414258247670e+00
2.159878414258247670e+00
2.196254524369030126e+00
2.224567888424329176e+00
2.224567888424329176e+00
2.285882259590441556e+00
2.285882259590441556e+00
2.203004730368968822e+00
2.251006195257423848e+00
2.251006195257423848e+00
2.427449079866939474e+00
2.427449079866939474e+00
2.453324869533372254e+00
2.292632465590380253e+00
2.292632465590380253e+00
2.333133701590014208e+00
2.223067842646564873e+00
2.223067842646564873e+00
2.085626148258918899e+00
2.085626148258918899e+00
2.166441114535965884e+00
2.200754661702322146e+00
2.200754661702322146e+00
2.151628162480544670e+00
2.151628162480544670e+00
2.203942258980071234e+00
2.201879696035645484e+00
2.201879696035645484e+00
2.212755027924436124e+00
2.212755027924436124e+00
2.188566789757988129e+00
2.146378002258369833e+00
2.146378002258369833e+00
2.373447431867427682e+00
2.373447431867427682e+00
2.385822809533982625e+00
2.398760704367198571e+00
2.398760704367198571e+00
2.331071138645588459e+00
2.333883724478896582e+00
2.333883724478896582e+00
2.357509445478682686e+00
2.357509445478682686e+00
2.227380474257637299e+00
2.068750633259071936e+00
2.068750633259071936e+00
2.139440290536210654e+00
2.139440290536210654e+00
2.145440473647266977e+00
2.342133976256599581e+00
2.342133976256599581e+00
2.370447340311899076e+00
2.370447340311899076e+00
2.238255806146427940e+00
2.193816949980162967e+00
2.193816949980162967e+00
2.193441938535722002e+00
2.287569811090426342e+00
2.287569811090426342e+00
2.454637409588916075e+00
2.454637409588916075e+00
2.335946287423322332e+00
2.240693380535294654e+00
2.240693380535294654e+00
2.223630359813226764e+00
2.223630359813226764e+00
2.198879604480116878e+00
2.256256355479598685e+00
2.256256355479598685e+00
2.278194524979400004e+00
2.278194524979400004e+00
2.310820520645771925e+00
2.314195623645741495e+00
2.314195623645741495e+00
2.354321848200934042e+00
2.354321848200934042e+00
2.295445051423688376e+00
2.198317087313455875e+00
2.198317087313455875e+00
2.102876674703207716e+00
2.116752098147526517e+00
2.116752098147526517e+00
2.298820154423657947e+00
2.298820154423657947e+00
2.366884731589709023e+00
2.227942991424298746e+00
2.227942991424298746e+00
2.295445051423688376e+00
2.295445051423688376e+00
2.342133976256599581e+00
2.196629535813471090e+00
2.196629535813471090e+00
2.323945921201208797e+00
2.323945921201208797e+00
2.368947294534135217e+00
2.267131687368389326e+00
2.267131687368389326e+00
2.204317270424512643e+00
2.169816217535935454e+00
2.169816217535935454e+00
2.087876216925565576e+00
2.087876216925565576e+00
2.141502853480635959e+00
2.166253608813745402e+00
2.166253608813745402e+00
2.238630817590868904e+00
2.238630817590868904e+00
2.310445509201330516e+00
2.298070131534776017e+00
2.298070131534776017e+00
2.357134434034241721e+00
2.399510727256080500e+00
2.399510727256080500e+00
2.302007751701407035e+00
2.302007751701407035e+00
2.216130130924405695e+00
2.207317361980041248e+00
2.207317361980041248e+00
2.313445600756859122e+00
2.313445600756859122e+00
2.315133152256843907e+00
2.275194433423871843e+00
2.275194433423871843e+00
2.294132511368144556e+00
2.294132511368144556e+00
2.376260017700735361e+00
2.313070589312418157e+00
2.313070589312418157e+00
2.254756309701834383e+00
2.254756309701834383e+00
2.212755027924436124e+00
2.212567522202215642e+00
2.212567522202215642e+00
2.129877498702963390e+00
2.129877498702963390e+00
2.147690542313913653e+00
2.239193334757530351e+00
2.239193334757530351e+00
2.076438367870113488e+00
2.210504959257789892e+00
2.210504959257789892e+00
2.309882992034669069e+00
2.309882992034669069e+00
2.335008758812219920e+00
2.269569261757255596e+00
2.269569261757255596e+00
2.317570726645710621e+00
2.317570726645710621e+00
2.353384319589831186e+00
2.403260841700491479e+00
2.403260841700491479e+00
2.316820703756828248e+00
2.316820703756828248e+00
2.286257271034882521e+00
2.236005737479781263e+00
2.236005737479781263e+00
2.249506149479659545e+00
2.249506149479659545e+00
2.339696401867732423e+00
2.323383404034546906e+00
2.323383404034546906e+00
2.015686513870662555e+00
2.015686513870662555e+00
1.997123447370830363e+00
2.099689077425458628e+00
2.099689077425458628e+00
2.195879512924588717e+00
2.443574571977904952e+00
2.443574571977904952e+00
2.549702810754722826e+00
2.549702810754722826e+00
2.448074709311197417e+00
2.323758415478988315e+00
2.323758415478988315e+00
2.279882076479384789e+00
2.279882076479384789e+00
2.262631550035096417e+00
2.223817865535447247e+00
2.223817865535447247e+00
2.130627521591845319e+00
2.130627521591845319e+00
2.031812005981628033e+00
2.110189397869807859e+00
2.110189397869807859e+00
2.215942625202185212e+00
2.403448347422711961e+00
2.403448347422711961e+00
2.450887295144505096e+00
2.450887295144505096e+00
2.357884456923124095e+00
2.310258003479110034e+00
2.310258003479110034e+00
2.245756035035248566e+00
2.245756035035248566e+00
2.232443128757591655e+00
2.257756401257362544e+00
2.257756401257362544e+00
2.258131412701803509e+00
2.258131412701803509e+00
2.236005737479781263e+00
2.258693929868464956e+00
2.258693929868464956e+00
2.217817682424390480e+00
2.181629078035828950e+00
2.181629078035828950e+00
2.219317728202154782e+00
2.219317728202154782e+00
2.151440656758324188e+00
2.249881160924100509e+00
2.249881160924100509e+00
2.285694753868221074e+00
2.285694753868221074e+00
2.296757591479232197e+00
2.393510544145024177e+00
2.393510544145024177e+00
2.383760246589556875e+00
2.383760246589556875e+00
2.358446974089785542e+00
2.300132694479201767e+00
2.300132694479201767e+00
2.211442487868892304e+00
2.211442487868892304e+00
2.172066286202582130e+00
2.203567247535630269e+00
2.203567247535630269e+00
2.123689809869686140e+00
2.218755211035493335e+00
2.218755211035493335e+00
2.292069948423719250e+00
2.292069948423719250e+00
2.188379284035767647e+00
2.177128940702536042e+00
2.177128940702536042e+00
2.321508346812341639e+00
2.321508346812341639e+00
2.374759971922971058e+00
2.362947111423078006e+00
2.362947111423078006e+00
2.345696584978789634e+00
2.287569811090426342e+00
2.287569811090426342e+00
2.167003631702627775e+00
2.167003631702627775e+00
2.174316354869228363e+00
2.252131229590746742e+00
2.252131229590746742e+00
2.312508072145756710e+00
2.312508072145756710e+00
2.275569444868312807e+00
2.260193975646229259e+00
2.260193975646229259e+00
2.222130314035462462e+00
2.222130314035462462e+00
2.229068025757622085e+00
2.267694204535050773e+00
2.267694204535050773e+00
2.196629535813471090e+00
2.196629535813471090e+00
2.222505325479903426e+00
2.297320108645893644e+00
2.297320108645893644e+00
2.229068025757622085e+00
2.298820154423657947e+00
2.298820154423657947e+00
2.281569627979369130e+00
2.281569627979369130e+00
2.316820703756828248e+00
2.342133976256599581e+00
2.342133976256599581e+00
2.270881801812799416e+00
2.270881801812799416e+00
2.135315164647358710e+00
2.008373790704061967e+00
2.008373790704061967e+00
2.237693288979766049e+00
2.237693288979766049e+00
2.389572923978392716e+00
2.389572923978392716e+00
2.389572923978392716e+00
2.344384044923245813e+00
2.344384044923245813e+00
2.321883358256782603e+00
2.226067934202093479e+00
2.226067934202093479e+00
2.236005737479781263e+00
2.287569811090426342e+00
2.287569811090426342e+00
2.254006286812952009e+00
2.254006286812952009e+00
2.279882076479384789e+00
2.206192327646717910e+00
2.206192327646717910e+00
2.235630726035340299e+00
2.235630726035340299e+00
2.243505966368602778e+00
2.222692831202123909e+00
2.222692831202123909e+00
2.113564500869777874e+00
2.113564500869777874e+00
2.207692373424482213e+00
2.299757683034760802e+00
2.299757683034760802e+00
2.401760795922727176e+00
2.401760795922727176e+00
2.344571550645466296e+00
2.261694021423993561e+00
2.261694021423993561e+00
2.194566972869045340e+00
2.237318277535325084e+00
2.237318277535325084e+00
2.282132145146031021e+00
2.282132145146031021e+00
2.297507614368114126e+00
2.232630634479812137e+00
2.232630634479812137e+00
2.195504501480147752e+00
2.195504501480147752e+00
2.311195532090212890e+00
2.321320841090121156e+00
2.321320841090121156e+00
2.297507614368114126e+00
2.297507614368114126e+00
2.337446333201086635e+00
2.258318918424023991e+00
2.258318918424023991e+00
2.260568987090670667e+00
2.260568987090670667e+00
2.352446790978728330e+00
2.301820245979186552e+00
2.140002807702871657e+00
2.140002807702871657e+00
2.171878780480361648e+00
2.336508804589983779e+00
2.336508804589983779e+00
2.273506881923887057e+00
2.273506881923887057e+00
2.254381298257393418e+00
2.247443586535233351e+00
2.247443586535233351e+00
2.200004638813440216e+00
2.200004638813440216e+00
2.176378917813653668e+00
2.171128757591479275e+00
2.171128757591479275e+00
2.171878780480361648e+00
2.171878780480361648e+00
2.251006195257423848e+00
2.336133793145542814e+00
2.336133793145542814e+00
2.317945738090151586e+00
2.317945738090151586e+00
2.321320841090121156e+00
2.200004638813440216e+00
2.200004638813440216e+00
2.139252784813989727e+00
2.139252784813989727e+00
2.218380199591051927e+00
2.340633930478835278e+00
2.340633930478835278e+00
2.337446333201086635e+00
2.310633014923550999e+00
2.310633014923550999e+00
2.285694753868221074e+00
2.285694753868221074e+00
2.284757225257118218e+00
2.220255256813257638e+00
2.220255256813257638e+00
2.197942075869014911e+00
2.197942075869014911e+00
2.143190404980620745e+00
2.179191503646961792e+00
2.179191503646961792e+00
2.239005829035309869e+00
2.381322672200689716e+00
2.381322672200689716e+00
2.351509262367625919e+00
2.351509262367625919e+00
2.320570818201239227e+00
2.294507522812585520e+00
2.294507522812585520e+00
2.201129673146763555e+00
2.201129673146763555e+00
2.209192419202246516e+00
2.242943449201941331e+00
2.214442579424420909e+00
2.214442579424420909e+00
2.251193700979644330e+00
2.251193700979644330e+00
2.284194708090456771e+00
2.279132053590502860e+00
2.279132053590502860e+00
2.345509079256569152e+00
2.345509079256569152e+00
2.374759971922971058e+00
2.369509811700796664e+00
2.369509811700796664e+00
2.267881710257271255e+00
2.267881710257271255e+00
2.181816583758049433e+00
2.168503677480392078e+00
2.168503677480392078e+00
2.227380474257637299e+00
2.177691457869197489e+00
2.177691457869197489e+00
2.258318918424023991e+00
2.258318918424023991e+00
2.224005371257667729e+00
2.218942716757713818e+00
2.218942716757713818e+00
2.125752372814111890e+00
2.125752372814111890e+00
2.244255989257484707e+00
2.341008941923276243e+00
2.341008941923276243e+00
2.307820429090243319e+00
2.307820429090243319e+00
2.245943540757469048e+00
2.278194524979400004e+00
2.278194524979400004e+00
2.299195165868098911e+00
2.299195165868098911e+00
2.323195898312326424e+00
2.313820612201300086e+00
2.313820612201300086e+00
2.272194341868343237e+00
2.267694204535050773e+00
2.267694204535050773e+00
2.219317728202154782e+00
2.219317728202154782e+00
2.231130588702047834e+00
2.265069124423963132e+00
2.265069124423963132e+00
2.270694296090578934e+00
2.270694296090578934e+00
2.284757225257118218e+00
2.294320017090365038e+00
2.294320017090365038e+00
2.223067842646564873e+00
2.223067842646564873e+00
2.143190404980620745e+00
2.218567705313272853e+00
2.218567705313272853e+00
2.343446516312143402e+00
2.322633381145664977e+00
2.322633381145664977e+00
2.244443494979705633e+00
2.244443494979705633e+00
2.247443586535233351e+00
2.222130314035462462e+00
2.222130314035462462e+00
2.239005829035309869e+00
2.239005829035309869e+00
2.261131504257332114e+00
2.248568620868556689e+00
2.248568620868556689e+00
2.293757499923703591e+00
2.293757499923703591e+00
2.296757591479232197e+00
2.228130497146519229e+00
2.228130497146519229e+00
2.272381847590563719e+00
2.272381847590563719e+00
2.283069673757133433e+00
2.311195532090212890e+00
2.311195532090212890e+00
2.200754661702322146e+00
2.140940336313974068e+00
2.140940336313974068e+00
2.226067934202093479e+00
2.226067934202093479e+00
2.241443403424177028e+00
2.272006836146122755e+00
2.272006836146122755e+00
2.290007385479293500e+00
2.290007385479293500e+00
2.242568437757499922e+00
2.209379924924466998e+00
2.209379924924466998e+00
2.260006469924008776e+00
2.260006469924008776e+00
2.341571459089938134e+00
2.285319742423780109e+00
2.285319742423780109e+00
2.228318002868740155e+00
2.228318002868740155e+00
2.241818414868617992e+00
2.301632740256966070e+00
2.301632740256966070e+00
2.318133243812372069e+00
2.318133243812372069e+00
2.303882808923612302e+00
2.312883083590197675e+00
2.312883083590197675e+00
2.272381847590563719e+00
2.173003814813684542e+00
2.173003814813684542e+00
2.139252784813989727e+00
2.139252784813989727e+00
2.212192510757774677e+00
2.231693105868709726e+00
2.231693105868709726e+00
2.255693838312936794e+00
2.255693838312936794e+00
2.305195348979155678e+00
2.424261482589190386e+00
2.424261482589190386e+00
2.373447431867427682e+00
2.314945646534623425e+00
2.314945646534623425e+00
2.225130405590991067e+00
2.225130405590991067e+00
2.076813379314554453e+00
2.043249855037080120e+00
2.043249855037080120e+00
2.187441755424664791e+00
2.187441755424664791e+00
2.281007110812707683e+00
2.331446150090029423e+00
2.331446150090029423e+00
2.301632740256966070e+00
2.301632740256966070e+00
2.240880886257515137e+00
2.240318369090853690e+00
2.240318369090853690e+00
2.302757774590289408e+00
2.324508438367870244e+00
2.324508438367870244e+00
2.357134434034241721e+00
2.357134434034241721e+00
2.320195806756797818e+00
2.222130314035462462e+00
2.222130314035462462e+00
2.169816217535935454e+00
2.226442945646534444e+00
2.226442945646534444e+00
2.226817957090975852e+00
2.226817957090975852e+00
2.232818140202032620e+00
2.251943723868526259e+00
2.251943723868526259e+00
2.261881527146214044e+00
2.261881527146214044e+00
2.163066011535996758e+00
2.168128666035950669e+00
2.168128666035950669e+00
2.259068941312906365e+00
2.259068941312906365e+00
2.294695028534806447e+00
2.356009399700918827e+00
2.356009399700918827e+00
2.356946928312021239e+00
2.356946928312021239e+00
2.281569627979369130e+00
2.296945097201452679e+00
2.296945097201452679e+00
2.309882992034669069e+00
2.309882992034669069e+00
2.239943357646412725e+00
2.252318735312967224e+00
2.252318735312967224e+00
2.213880062257759462e+00
2.238255806146427940e+00
2.238255806146427940e+00
2.216130130924405695e+00
2.216130130924405695e+00
2.236380748924222672e+00
2.273694387646107540e+00
2.273694387646107540e+00
2.278569536423841413e+00
2.278569536423841413e+00
2.248568620868556689e+00
2.310820520645771925e+00
2.310820520645771925e+00
2.229630542924283532e+00
2.229630542924283532e+00
2.245756035035248566e+00
2.184816675313578038e+00
2.184816675313578038e+00
2.287757316812646824e+00
2.325820978423414065e+00
2.325820978423414065e+00
2.295445051423688376e+00
2.295445051423688376e+00
2.262256538590655452e+00
2.245756035035248566e+00
2.245756035035248566e+00
2.201692190313425002e+00
2.201692190313425002e+00
2.233755668813135031e+00
2.246693563646351421e+00
2.246693563646351421e+00
2.258506424146244473e+00
2.258506424146244473e+00
2.316070680867946319e+00
2.291507431257057803e+00
2.291507431257057803e+00
2.242755943479720404e+00
2.242755943479720404e+00
2.263006561479537382e+00
2.307632923368022837e+00
2.307632923368022837e+00
2.261319009979552597e+00
2.231693105868709726e+00
2.231693105868709726e+00
2.206567339091158875e+00
2.206567339091158875e+00
2.173941343424787398e+00
2.221380291146580532e+00
2.221380291146580532e+00
2.283444685201574842e+00
2.283444685201574842e+00
2.309695486312448587e+00
2.313258095034638639e+00
2.313258095034638639e+00
2.236568254646443155e+00
2.236568254646443155e+00
2.161003448591571008e+00
2.166066103091524919e+00
2.166066103091524919e+00
2.307257911923581428e+00
2.307257911923581428e+00
2.330696127201147494e+00
2.326758507034516477e+00
2.326758507034516477e+00
2.281194616534928166e+00
2.281194616534928166e+00
2.260006469924008776e+00
2.238255806146427940e+00
2.238255806146427940e+00
2.227755485702078264e+00
2.256068849757378203e+00
2.256068849757378203e+00
2.234880703146458369e+00
2.234880703146458369e+00
2.270506790368358452e+00
2.278194524979400004e+00
2.278194524979400004e+00
2.289069856868190644e+00
2.289069856868190644e+00
2.243130954924161813e+00
2.267881710257271255e+00
2.267881710257271255e+00
2.310070497756889552e+00
2.246881069368571904e+00
2.246881069368571904e+00
2.249506149479659545e+00
2.249506149479659545e+00
2.235630726035340299e+00
2.266756675923947917e+00
2.266756675923947917e+00
2.243130954924161813e+00
2.243130954924161813e+00
2.248006103701895242e+00
2.224942899868770141e+00
2.224942899868770141e+00
2.153690725424969976e+00
2.153690725424969976e+00
2.146940519425031280e+00
2.093876400036621899e+00
2.093876400036621899e+00
2.272944364757225166e+00
2.368759788811914291e+00
2.368759788811914291e+00
2.282882168034912951e+00
2.282882168034912951e+00
2.300695211645863214e+00
2.349071687978759204e+00
2.349071687978759204e+00
2.291507431257057803e+00
2.291507431257057803e+00
2.281757133701590057e+00
2.262256538590655452e+00
2.262256538590655452e+00
2.244443494979705633e+00
2.244443494979705633e+00
2.247631092257453833e+00
2.215192602313302839e+00
2.215192602313302839e+00
2.196817041535691573e+00
2.196817041535691573e+00
2.265444135868404540e+00
2.306695394756919981e+00
2.306695394756919981e+00
2.310820520645771925e+00
2.310820520645771925e+00
2.358634479812006024e+00
2.347384136478774419e+00
2.347384136478774419e+00
2.379822626422925413e+00
2.271444318979460864e+00
2.271444318979460864e+00
2.101751640369884377e+00
2.101751640369884377e+00
2.088438734092227023e+00
2.042499832148198191e+00
2.042499832148198191e+00
2.146565507980590315e+00
2.146565507980590315e+00
2.325258461256752618e+00
2.351509262367625919e+00
2.351509262367625919e+00
2.277256996368297592e+00
2.277256996368297592e+00
2.306507889034699499e+00
2.334258735923337547e+00
2.334258735923337547e+00
2.354134342478713116e+00
2.354134342478713116e+00
2.337446333201086635e+00
2.299382671590319838e+00
2.299382671590319838e+00
2.217442670979949515e+00
2.109064363536484965e+00
2.109064363536484965e+00
2.181816583758049433e+00
2.181816583758049433e+00
2.297320108645893644e+00
2.232255623035371173e+00
2.232255623035371173e+00
2.279319559312723342e+00
2.279319559312723342e+00
2.247256080813012868e+00
2.185754203924680450e+00
2.185754203924680450e+00
2.240880886257515137e+00
2.275381939146092325e+00
2.275381939146092325e+00
2.304070314645832784e+00
2.304070314645832784e+00
2.325820978423414065e+00
2.387322855311746483e+00
2.387322855311746483e+00
2.322633381145664977e+00
2.246693563646351421e+00
2.246693563646351421e+00
2.131565050202948175e+00
2.086563676870021755e+00
2.086563676870021755e+00
2.246506057924130939e+00
2.237130771813104602e+00
2.237130771813104602e+00
2.291507431257057803e+00
2.291507431257057803e+00
2.266944181646168399e+00
2.218192693868831444e+00
2.218192693868831444e+00
2.265069124423963132e+00
2.265069124423963132e+00
2.267319193090609808e+00
2.252131229590746742e+00
2.252131229590746742e+00
2.322633381145664977e+00
2.322633381145664977e+00
2.341946470534379099e+00
2.289632374034852091e+00
2.289632374034852091e+00
2.255881344035157721e+00
2.255881344035157721e+00
2.242755943479720404e+00
2.270319284646137969e+00
2.270319284646137969e+00
2.240318369090853690e+00
2.153878231147190458e+00
2.153878231147190458e+00
2.157815851313821920e+00
2.157815851313821920e+00
2.210317453535568966e+00
2.258881435590685438e+00
2.258881435590685438e+00
2.305195348979155678e+00
2.305195348979155678e+00
2.328633564256721744e+00
2.296195074312570750e+00
2.296195074312570750e+00
2.294132511368144556e+00
2.290007385479293500e+00
2.290007385479293500e+00
2.254193792535172935e+00
2.254193792535172935e+00
2.249131138035218136e+00
2.268256721701712220e+00
2.268256721701712220e+00
2.274069399090548504e+00
2.274069399090548504e+00
2.239755851924192243e+00
2.270506790368358452e+00
2.270506790368358452e+00
2.276131962034974254e+00
2.160628437147130043e+00
2.160628437147130043e+00
2.164003540147099169e+00
2.253443769646290562e+00
2.253443769646290562e+00
2.232630634479812137e+00
2.189316812646870059e+00
2.189316812646870059e+00
2.257568895535142062e+00
2.257568895535142062e+00
2.323195898312326424e+00
2.317383220923490139e+00
2.317383220923490139e+00
2.331821161534470832e+00
2.331821161534470832e+00
2.291507431257057803e+00
2.281007110812707683e+00
2.281007110812707683e+00
2.230005554368724940e+00
2.230005554368724940e+00
2.080750999481185470e+00
2.058250312814721816e+00
2.058250312814721816e+00
2.169628711813714972e+00
2.317008209479048730e+00
2.317008209479048730e+00
2.385447798089541660e+00
2.385447798089541660e+00
