2.256443861201819168e+00
2.256443861201819168e+00
2.256443861201819168e+00
2.248193609424115724e+00
2.248193609424115724e+00
2.248193609424115724e+00
2.248193609424115724e+00
2.232068117313150690e+00
2.232068117313150690e+00
2.232068117313150690e+00
2.223817865535447247e+00
2.223817865535447247e+00
2.223817865535447247e+00
2.223817865535447247e+00
2.213317545091097571e+00
2.213317545091097571e+00
2.213317545091097571e+00
2.200379650257881181e+00
2.200379650257881181e+00
2.200379650257881181e+00
2.251381206701864812e+00
2.251381206701864812e+00
2.251381206701864812e+00
2.251381206701864812e+00
2.287382305368205859e+00
2.287382305368205859e+00
2.287382305368205859e+00
2.306695394756919981e+00
2.306695394756919981e+00
2.306695394756919981e+00
2.306695394756919981e+00
2.350759239478743989e+00
2.350759239478743989e+00
2.350759239478743989e+00
2.353384319589831186e+00
2.353384319589831186e+00
2.353384319589831186e+00
2.353384319589831186e+00
2.316258186590166801e+00
2.316258186590166801e+00
2.316258186590166801e+00
2.277819513534959039e+00
2.277819513534959039e+00
2.277819513534959039e+00
2.264694112979522167e+00
2.264694112979522167e+00
2.264694112979522167e+00
2.264694112979522167e+00
2.252506241035188150e+00
2.252506241035188150e+00
2.252506241035188150e+00
2.237130771813104602e+00
2.237130771813104602e+00
2.237130771813104602e+00
2.220255256813257638e+00
2.220255256813257638e+00
2.220255256813257638e+00
2.220255256813257638e+00
2.209942442091128445e+00
2.209942442091128445e+00
2.209942442091128445e+00
2.197942075869014911e+00
2.197942075869014911e+00
2.197942075869014911e+00
2.194754478591265823e+00
2.194754478591265823e+00
2.194754478591265823e+00
2.194754478591265823e+00
2.245943540757469048e+00
2.245943540757469048e+00
2.245943540757469048e+00
2.269569261757255596e+00
2.269569261757255596e+00
2.269569261757255596e+00
2.300132694479201767e+00
2.300132694479201767e+00
2.300132694479201767e+00
2.300132694479201767e+00
2.331071138645588459e+00
2.331071138645588459e+00
2.331071138645588459e+00
2.299382671590319838e+00
2.299382671590319838e+00
2.299382671590319838e+00
2.299382671590319838e+00
2.266194158757286470e+00
2.266194158757286470e+00
2.266194158757286470e+00
2.256631366924039650e+00
2.256631366924039650e+00
2.256631366924039650e+00
2.241068391979735619e+00
2.241068391979735619e+00
2.241068391979735619e+00
2.230005554368724940e+00
2.230005554368724940e+00
2.230005554368724940e+00
2.216505142368846659e+00
2.216505142368846659e+00
2.216505142368846659e+00
2.216505142368846659e+00
2.226067934202093479e+00
2.226067934202093479e+00
2.226067934202093479e+00
2.238818323313089387e+00
2.238818323313089387e+00
2.238818323313089387e+00
2.233193151646474028e+00
2.233193151646474028e+00
2.233193151646474028e+00
2.233193151646474028e+00
2.253068758201849597e+00
2.253068758201849597e+00
2.253068758201849597e+00
2.277444502090518075e+00
2.277444502090518075e+00
2.277444502090518075e+00
2.297320108645893644e+00
2.297320108645893644e+00
2.297320108645893644e+00
2.297320108645893644e+00
2.320758323923459709e+00
2.320758323923459709e+00
2.320758323923459709e+00
2.310820520645771925e+00
2.310820520645771925e+00
2.310820520645771925e+00
2.265819147312845505e+00
2.265819147312845505e+00
2.265819147312845505e+00
2.265819147312845505e+00
2.226817957090975852e+00
2.226817957090975852e+00
2.226817957090975852e+00
2.248943632312997654e+00
2.248943632312997654e+00
2.248943632312997654e+00
2.221005279702139568e+00
2.221005279702139568e+00
2.221005279702139568e+00
2.221005279702139568e+00
2.250818689535202921e+00
2.250818689535202921e+00
2.250818689535202921e+00
2.229255531479842567e+00
2.229255531479842567e+00
2.229255531479842567e+00
2.237693288979766049e+00
2.237693288979766049e+00
2.237693288979766049e+00
2.237693288979766049e+00
2.230755577257606870e+00
2.230755577257606870e+00
2.230755577257606870e+00
2.206942350535599839e+00
2.206942350535599839e+00
2.206942350535599839e+00
2.206942350535599839e+00
2.228880520035401602e+00
2.228880520035401602e+00
2.228880520035401602e+00
2.306320383312479017e+00
2.306320383312479017e+00
2.306320383312479017e+00
2.306320383312479017e+00
2.332946195867793726e+00
2.332946195867793726e+00
2.332946195867793726e+00
2.345696584978789634e+00
2.345696584978789634e+00
2.345696584978789634e+00
2.332571184423352761e+00
2.332571184423352761e+00
2.332571184423352761e+00
2.332571184423352761e+00
2.314195623645741495e+00
2.314195623645741495e+00
2.314195623645741495e+00
2.287569811090426342e+00
2.287569811090426342e+00
2.287569811090426342e+00
2.287569811090426342e+00
2.269756767479476078e+00
2.269756767479476078e+00
2.269756767479476078e+00
2.250631183812982439e+00
2.250631183812982439e+00
2.250631183812982439e+00
2.241630909146397510e+00
2.241630909146397510e+00
2.241630909146397510e+00
2.241630909146397510e+00
2.233005645924253102e+00
2.233005645924253102e+00
2.233005645924253102e+00
2.241255897701956545e+00
2.241255897701956545e+00
2.241255897701956545e+00
2.241255897701956545e+00
2.233755668813135031e+00
2.233755668813135031e+00
2.233755668813135031e+00
2.203004730368968822e+00
2.203004730368968822e+00
2.203004730368968822e+00
2.191941892757957699e+00
2.191941892757957699e+00
2.191941892757957699e+00
2.191941892757957699e+00
2.221755302591021497e+00
2.221755302591021497e+00
2.221755302591021497e+00
2.239943357646412725e+00
2.239943357646412725e+00
2.239943357646412725e+00
2.239943357646412725e+00
2.288694845423749680e+00
2.288694845423749680e+00
2.288694845423749680e+00
2.311008026367992407e+00
2.311008026367992407e+00
2.311008026367992407e+00
2.311008026367992407e+00
2.284944730979339145e+00
2.284944730979339145e+00
2.284944730979339145e+00
2.264881618701742649e+00
2.264881618701742649e+00
2.264881618701742649e+00
2.266756675923947917e+00
2.266756675923947917e+00
2.266756675923947917e+00
2.266756675923947917e+00
2.263756584368419311e+00
2.263756584368419311e+00
2.263756584368419311e+00
2.249693655201880027e+00
2.249693655201880027e+00
2.249693655201880027e+00
2.249693655201880027e+00
2.228130497146519229e+00
2.228130497146519229e+00
2.228130497146519229e+00
2.225317911313211550e+00
2.225317911313211550e+00
2.225317911313211550e+00
2.206004821924497428e+00
2.206004821924497428e+00
2.206004821924497428e+00
2.206004821924497428e+00
2.217630176702169997e+00
2.217630176702169997e+00
2.217630176702169997e+00
2.268069215979491737e+00
2.268069215979491737e+00
2.268069215979491737e+00
2.268069215979491737e+00
2.293382488479262626e+00
2.293382488479262626e+00
2.293382488479262626e+00
2.316445692312387283e+00
2.316445692312387283e+00
2.316445692312387283e+00
2.316445692312387283e+00
2.342508987701040546e+00
2.342508987701040546e+00
2.342508987701040546e+00
2.318695760979033516e+00
2.318695760979033516e+00
2.318695760979033516e+00
2.290007385479293500e+00
2.290007385479293500e+00
2.290007385479293500e+00
2.290007385479293500e+00
2.273881893368328022e+00
2.273881893368328022e+00
2.273881893368328022e+00
2.256068849757378203e+00
2.256068849757378203e+00
2.256068849757378203e+00
2.256068849757378203e+00
2.256068849757378203e+00
2.256068849757378203e+00
2.256068849757378203e+00
2.238255806146427940e+00
2.238255806146427940e+00
2.238255806146427940e+00
2.224567888424329176e+00
2.224567888424329176e+00
2.224567888424329176e+00
2.224567888424329176e+00
2.224567888424329176e+00
2.224567888424329176e+00
2.224567888424329176e+00
2.213505050813318054e+00
2.213505050813318054e+00
2.213505050813318054e+00
2.246506057924130939e+00
2.246506057924130939e+00
2.246506057924130939e+00
2.246506057924130939e+00
2.285319742423780109e+00
2.285319742423780109e+00
2.285319742423780109e+00
2.307445417645802355e+00
2.307445417645802355e+00
2.307445417645802355e+00
2.307445417645802355e+00
2.330883632923367976e+00
2.330883632923367976e+00
2.330883632923367976e+00
2.339133884701071420e+00
2.339133884701071420e+00
2.339133884701071420e+00
2.339133884701071420e+00
2.312508072145756710e+00
2.312508072145756710e+00
2.312508072145756710e+00
2.273506881923887057e+00
2.273506881923887057e+00
2.273506881923887057e+00
2.271069307535019899e+00
2.271069307535019899e+00
2.271069307535019899e+00
2.271069307535019899e+00
2.252131229590746742e+00
2.252131229590746742e+00
2.252131229590746742e+00
2.252881252479629115e+00
2.252881252479629115e+00
2.252881252479629115e+00
2.252881252479629115e+00
2.238443311868648422e+00
2.238443311868648422e+00
2.238443311868648422e+00
2.222505325479903426e+00
2.222505325479903426e+00
2.222505325479903426e+00
2.221380291146580532e+00
2.221380291146580532e+00
2.221380291146580532e+00
2.221380291146580532e+00
2.203192236091189304e+00
2.203192236091189304e+00
2.203192236091189304e+00
2.248756126590777171e+00
2.248756126590777171e+00
2.248756126590777171e+00
2.248756126590777171e+00
2.295820062868129341e+00
2.295820062868129341e+00
2.295820062868129341e+00
2.329571092867824156e+00
2.329571092867824156e+00
2.329571092867824156e+00
2.329571092867824156e+00
2.334258735923337547e+00
2.334258735923337547e+00
2.334258735923337547e+00
2.298632648701437464e+00
2.298632648701437464e+00
2.298632648701437464e+00
2.269194250312814631e+00
2.269194250312814631e+00
2.269194250312814631e+00
2.269194250312814631e+00
2.232818140202032620e+00
2.232818140202032620e+00
2.232818140202032620e+00
2.233943174535355514e+00
2.233943174535355514e+00
2.233943174535355514e+00
2.233943174535355514e+00
2.246318552201910457e+00
2.246318552201910457e+00
2.246318552201910457e+00
2.244255989257484707e+00
2.244255989257484707e+00
2.244255989257484707e+00
2.244255989257484707e+00
2.252693746757408633e+00
2.252693746757408633e+00
2.252693746757408633e+00
2.244255989257484707e+00
2.244255989257484707e+00
2.244255989257484707e+00
2.204317270424512643e+00
2.204317270424512643e+00
2.204317270424512643e+00
2.204317270424512643e+00
2.217817682424390480e+00
2.217817682424390480e+00
2.217817682424390480e+00
2.247068575090792386e+00
2.247068575090792386e+00
2.247068575090792386e+00
2.247068575090792386e+00
2.224755394146549659e+00
2.224755394146549659e+00
2.224755394146549659e+00
2.227380474257637299e+00
2.227380474257637299e+00
2.227380474257637299e+00
2.267881710257271255e+00
2.267881710257271255e+00
2.267881710257271255e+00
2.267881710257271255e+00
2.265819147312845505e+00
2.265819147312845505e+00
2.265819147312845505e+00
2.245006012146367080e+00
2.245006012146367080e+00
2.245006012146367080e+00
2.245006012146367080e+00
2.254943815424054865e+00
2.254943815424054865e+00
2.254943815424054865e+00
2.242568437757499922e+00
2.242568437757499922e+00
2.242568437757499922e+00
2.260943998535111632e+00
2.260943998535111632e+00
2.260943998535111632e+00
2.260943998535111632e+00
2.239380840479750834e+00
2.239380840479750834e+00
2.239380840479750834e+00
2.212005005035553751e+00
2.212005005035553751e+00
2.212005005035553751e+00
2.215005096591082356e+00
2.215005096591082356e+00
2.215005096591082356e+00
2.215005096591082356e+00
2.207692373424482213e+00
2.207692373424482213e+00
2.207692373424482213e+00
2.251381206701864812e+00
2.251381206701864812e+00
2.251381206701864812e+00
2.251381206701864812e+00
2.285507248146000592e+00
2.285507248146000592e+00
2.285507248146000592e+00
2.304070314645832784e+00
2.304070314645832784e+00
2.304070314645832784e+00
2.329008575701162709e+00
2.329008575701162709e+00
2.329008575701162709e+00
2.329008575701162709e+00
2.367822260200811879e+00
2.367822260200811879e+00
2.367822260200811879e+00
2.329383587145603673e+00
2.329383587145603673e+00
2.329383587145603673e+00
2.329383587145603673e+00
2.280069582201605716e+00
2.280069582201605716e+00
2.280069582201605716e+00
2.284382213812677254e+00
2.284382213812677254e+00
2.284382213812677254e+00
2.284382213812677254e+00
2.258506424146244473e+00
2.258506424146244473e+00
2.258506424146244473e+00
2.240505874813074172e+00
2.240505874813074172e+00
2.240505874813074172e+00
2.222880336924344391e+00
2.222880336924344391e+00
2.222880336924344391e+00
2.222880336924344391e+00
2.189879329813531950e+00
2.189879329813531950e+00
2.189879329813531950e+00
2.179566515091402756e+00
2.179566515091402756e+00
2.179566515091402756e+00
2.179566515091402756e+00
2.182566606646931362e+00
2.182566606646931362e+00
2.182566606646931362e+00
2.226255439924313961e+00
2.226255439924313961e+00
2.226255439924313961e+00
2.285507248146000592e+00
2.285507248146000592e+00
2.285507248146000592e+00
2.285507248146000592e+00
2.299382671590319838e+00
2.299382671590319838e+00
2.299382671590319838e+00
2.309132969145787140e+00
2.309132969145787140e+00
2.309132969145787140e+00
2.309132969145787140e+00
2.341383953367717208e+00
2.341383953367717208e+00
2.341383953367717208e+00
2.331446150090029423e+00
2.331446150090029423e+00
2.331446150090029423e+00
2.287007293923764895e+00
2.287007293923764895e+00
2.287007293923764895e+00
2.287007293923764895e+00
2.275381939146092325e+00
2.275381939146092325e+00
2.275381939146092325e+00
2.236943266090884119e+00
2.236943266090884119e+00
2.236943266090884119e+00
2.236943266090884119e+00
2.226442945646534444e+00
2.226442945646534444e+00
2.226442945646534444e+00
2.215567613757744247e+00
2.215567613757744247e+00
2.215567613757744247e+00
2.215567613757744247e+00
2.210879970702230857e+00
2.210879970702230857e+00
2.210879970702230857e+00
2.200379650257881181e+00
2.200379650257881181e+00
2.200379650257881181e+00
2.201317178868984037e+00
2.201317178868984037e+00
2.201317178868984037e+00
2.201317178868984037e+00
2.257193884090700653e+00
2.257193884090700653e+00
2.257193884090700653e+00
2.299945188756981285e+00
2.299945188756981285e+00
2.299945188756981285e+00
2.299945188756981285e+00
2.311758049256874337e+00
2.311758049256874337e+00
2.311758049256874337e+00
2.339696401867732423e+00
2.339696401867732423e+00
2.339696401867732423e+00
2.335946287423322332e+00
2.335946287423322332e+00
2.335946287423322332e+00
2.335946287423322332e+00
2.304820337534714714e+00
2.304820337534714714e+00
2.304820337534714714e+00
2.261881527146214044e+00
2.261881527146214044e+00
2.261881527146214044e+00
2.261881527146214044e+00
2.242005920590838475e+00
2.242005920590838475e+00
2.242005920590838475e+00
2.245568529313028083e+00
2.245568529313028083e+00
2.245568529313028083e+00
2.236380748924222672e+00
2.236380748924222672e+00
2.236380748924222672e+00
2.236380748924222672e+00
2.210129947813348927e+00
2.210129947813348927e+00
2.210129947813348927e+00
2.207879879146702695e+00
2.207879879146702695e+00
2.207879879146702695e+00
2.207879879146702695e+00
2.199629627368999252e+00
2.199629627368999252e+00
2.199629627368999252e+00
2.236755760368663637e+00
2.236755760368663637e+00
2.236755760368663637e+00
2.236755760368663637e+00
2.298445142979216982e+00
2.298445142979216982e+00
2.298445142979216982e+00
2.313633106479079604e+00
2.313633106479079604e+00
2.313633106479079604e+00
2.313633106479079604e+00
2.350571733756523507e+00
2.350571733756523507e+00
2.350571733756523507e+00
2.355071871089815971e+00
2.355071871089815971e+00
2.355071871089815971e+00
2.298820154423657947e+00
2.298820154423657947e+00
2.298820154423657947e+00
2.298820154423657947e+00
2.233943174535355514e+00
2.233943174535355514e+00
2.233943174535355514e+00
2.216317636646626177e+00
2.216317636646626177e+00
2.216317636646626177e+00
2.216317636646626177e+00
2.205067293313394572e+00
2.205067293313394572e+00
2.205067293313394572e+00
2.225317911313211550e+00
2.225317911313211550e+00
2.225317911313211550e+00
2.241255897701956545e+00
2.241255897701956545e+00
2.241255897701956545e+00
2.241255897701956545e+00
2.226630451368755370e+00
2.226630451368755370e+00
2.226630451368755370e+00
2.236005737479781263e+00
2.236005737479781263e+00
2.236005737479781263e+00
2.236005737479781263e+00
2.225880428479872997e+00
2.225880428479872997e+00
2.225880428479872997e+00
2.235068208868678852e+00
2.235068208868678852e+00
2.235068208868678852e+00
2.235068208868678852e+00
2.265256630146183614e+00
2.265256630146183614e+00
2.265256630146183614e+00
2.285507248146000592e+00
2.285507248146000592e+00
2.285507248146000592e+00
2.343446516312143402e+00
2.343446516312143402e+00
2.343446516312143402e+00
2.343446516312143402e+00
2.353196813867610704e+00
2.353196813867610704e+00
2.353196813867610704e+00
2.298257637256996500e+00
2.298257637256996500e+00
2.298257637256996500e+00
2.298257637256996500e+00
2.269569261757255596e+00
2.269569261757255596e+00
2.269569261757255596e+00
2.269006744590594149e+00
2.269006744590594149e+00
2.269006744590594149e+00
2.269006744590594149e+00
2.250256172368541474e+00
2.250256172368541474e+00
2.250256172368541474e+00
2.269381756035035114e+00
2.269381756035035114e+00
2.269381756035035114e+00
2.233380657368694511e+00
2.233380657368694511e+00
2.233380657368694511e+00
2.233380657368694511e+00
2.214817590868861874e+00
2.214817590868861874e+00
2.214817590868861874e+00
2.213317545091097571e+00
2.213317545091097571e+00
2.213317545091097571e+00
2.213317545091097571e+00
2.189504318369090985e+00
2.189504318369090985e+00
2.189504318369090985e+00
2.210129947813348927e+00
2.210129947813348927e+00
2.210129947813348927e+00
2.246693563646351421e+00
2.246693563646351421e+00
2.246693563646351421e+00
2.246693563646351421e+00
2.280257087923826198e+00
2.280257087923826198e+00
2.280257087923826198e+00
2.309882992034669069e+00
2.309882992034669069e+00
2.309882992034669069e+00
2.309882992034669069e+00
2.310258003479110034e+00
2.310258003479110034e+00
2.310258003479110034e+00
2.302570268868068482e+00
2.302570268868068482e+00
2.302570268868068482e+00
2.302570268868068482e+00
2.290944914090395912e+00
2.290944914090395912e+00
2.290944914090395912e+00
2.284194708090456771e+00
2.284194708090456771e+00
2.284194708090456771e+00
2.259818964201788294e+00
2.259818964201788294e+00
2.259818964201788294e+00
2.244818506424146598e+00
2.244818506424146598e+00
2.244818506424146598e+00
2.244818506424146598e+00
2.248381115146336207e+00
2.248381115146336207e+00
2.248381115146336207e+00
2.229068025757622085e+00
2.229068025757622085e+00
2.229068025757622085e+00
2.229068025757622085e+00
2.190629352702413879e+00
2.190629352702413879e+00
2.190629352702413879e+00
2.193816949980162967e+00
2.193816949980162967e+00
2.193816949980162967e+00
2.193816949980162967e+00
2.260756492812891150e+00
2.260756492812891150e+00
2.260756492812891150e+00
2.281944639423810539e+00
2.281944639423810539e+00
2.281944639423810539e+00
2.285882259590441556e+00
2.285882259590441556e+00
2.285882259590441556e+00
2.285882259590441556e+00
2.325070955534531691e+00
2.325070955534531691e+00
2.325070955534531691e+00
2.325258461256752618e+00
2.325258461256752618e+00
2.325258461256752618e+00
2.325258461256752618e+00
2.297695120090334608e+00
2.297695120090334608e+00
2.297695120090334608e+00
2.260568987090670667e+00
2.260568987090670667e+00
2.260568987090670667e+00
2.249131138035218136e+00
2.249131138035218136e+00
2.249131138035218136e+00
2.249131138035218136e+00
2.247631092257453833e+00
2.247631092257453833e+00
2.247631092257453833e+00
2.227192968535416817e+00
2.227192968535416817e+00
2.227192968535416817e+00
2.227192968535416817e+00
2.213317545091097571e+00
2.213317545091097571e+00
2.213317545091097571e+00
2.215942625202185212e+00
2.215942625202185212e+00
2.215942625202185212e+00
2.226630451368755370e+00
2.226630451368755370e+00
2.226630451368755370e+00
2.226630451368755370e+00
2.253068758201849597e+00
2.253068758201849597e+00
2.253068758201849597e+00
2.264131595812860720e+00
2.264131595812860720e+00
2.264131595812860720e+00
2.264131595812860720e+00
2.278757042146061895e+00
2.278757042146061895e+00
2.278757042146061895e+00
2.306695394756919981e+00
2.306695394756919981e+00
2.306695394756919981e+00
2.306695394756919981e+00
2.297507614368114126e+00
2.297507614368114126e+00
2.297507614368114126e+00
2.278007019257179522e+00
2.278007019257179522e+00
2.278007019257179522e+00
2.251756218146305777e+00
2.251756218146305777e+00
2.251756218146305777e+00
2.251756218146305777e+00
2.292257454145939732e+00
2.292257454145939732e+00
2.292257454145939732e+00
2.267131687368389326e+00
2.267131687368389326e+00
2.267131687368389326e+00
2.267131687368389326e+00
2.244631000701926116e+00
2.244631000701926116e+00
2.244631000701926116e+00
2.250443678090761956e+00
2.250443678090761956e+00
2.250443678090761956e+00
2.253443769646290562e+00
2.253443769646290562e+00
2.253443769646290562e+00
2.253443769646290562e+00
2.236755760368663637e+00
2.236755760368663637e+00
2.236755760368663637e+00
2.206567339091158875e+00
2.206567339091158875e+00
2.206567339091158875e+00
2.206567339091158875e+00
2.235443220313119816e+00
2.235443220313119816e+00
2.235443220313119816e+00
2.270131778923917043e+00
2.270131778923917043e+00
2.270131778923917043e+00
2.288319833979308715e+00
2.288319833979308715e+00
2.288319833979308715e+00
2.288319833979308715e+00
2.306695394756919981e+00
2.306695394756919981e+00
2.306695394756919981e+00
2.337821344645527599e+00
2.337821344645527599e+00
2.337821344645527599e+00
2.337821344645527599e+00
2.306320383312479017e+00
2.306320383312479017e+00
2.306320383312479017e+00
2.275569444868312807e+00
2.275569444868312807e+00
2.275569444868312807e+00
2.275569444868312807e+00
2.300695211645863214e+00
2.300695211645863214e+00
2.300695211645863214e+00
2.250818689535202921e+00
2.250818689535202921e+00
2.250818689535202921e+00
2.220442762535478121e+00
2.220442762535478121e+00
2.220442762535478121e+00
2.220442762535478121e+00
2.209004913480026033e+00
2.209004913480026033e+00
2.209004913480026033e+00
2.242193426313058957e+00
2.242193426313058957e+00
2.242193426313058957e+00
2.242193426313058957e+00
2.209567430646687480e+00
2.209567430646687480e+00
2.209567430646687480e+00
2.168878688924833043e+00
2.168878688924833043e+00
2.168878688924833043e+00
2.222692831202123909e+00
2.222692831202123909e+00
2.222692831202123909e+00
2.222692831202123909e+00
2.297695120090334608e+00
2.297695120090334608e+00
2.297695120090334608e+00
2.314945646534623425e+00
2.314945646534623425e+00
2.314945646534623425e+00
2.314945646534623425e+00
2.348884182256538722e+00
2.348884182256538722e+00
2.348884182256538722e+00
2.332196172978911797e+00
2.332196172978911797e+00
2.332196172978911797e+00
2.332196172978911797e+00
2.302195257423627517e+00
2.302195257423627517e+00
2.302195257423627517e+00
2.260756492812891150e+00
2.260756492812891150e+00
2.260756492812891150e+00
2.250256172368541474e+00
2.250256172368541474e+00
2.250256172368541474e+00
2.250256172368541474e+00
2.238818323313089387e+00
2.238818323313089387e+00
2.238818323313089387e+00
2.220442762535478121e+00
2.220442762535478121e+00
2.220442762535478121e+00
2.220442762535478121e+00
2.182754112369151844e+00
2.182754112369151844e+00
2.182754112369151844e+00
2.195692007202368234e+00
2.195692007202368234e+00
2.195692007202368234e+00
2.189129306924649576e+00
2.189129306924649576e+00
2.189129306924649576e+00
2.189129306924649576e+00
2.203567247535630269e+00
2.203567247535630269e+00
2.203567247535630269e+00
2.272944364757225166e+00
2.272944364757225166e+00
2.272944364757225166e+00
2.272944364757225166e+00
2.312695577867977192e+00
2.312695577867977192e+00
2.312695577867977192e+00
2.338383861812189490e+00
2.338383861812189490e+00
2.338383861812189490e+00
2.338383861812189490e+00
2.370822351756340485e+00
2.370822351756340485e+00
2.370822351756340485e+00
2.343446516312143402e+00
2.343446516312143402e+00
2.343446516312143402e+00
2.305007843256935196e+00
2.305007843256935196e+00
2.305007843256935196e+00
2.305007843256935196e+00
2.281382122257148648e+00
2.281382122257148648e+00
2.281382122257148648e+00
2.284382213812677254e+00
2.284382213812677254e+00
2.284382213812677254e+00
2.284382213812677254e+00
2.220255256813257638e+00
2.220255256813257638e+00
2.220255256813257638e+00
2.199254615924558287e+00
2.199254615924558287e+00
2.199254615924558287e+00
2.199254615924558287e+00
2.194566972869045340e+00
2.194566972869045340e+00
2.194566972869045340e+00
2.209754936368907963e+00
2.209754936368907963e+00
2.209754936368907963e+00
2.187629261146885273e+00
2.187629261146885273e+00
2.187629261146885273e+00
2.187629261146885273e+00
2.208817407757805107e+00
2.208817407757805107e+00
2.208817407757805107e+00
2.242943449201941331e+00
2.242943449201941331e+00
2.242943449201941331e+00
2.242943449201941331e+00
2.249318643757439062e+00
2.249318643757439062e+00
2.249318643757439062e+00
2.295820062868129341e+00
2.295820062868129341e+00
2.295820062868129341e+00
2.345321573534348669e+00
2.345321573534348669e+00
2.345321573534348669e+00
2.345321573534348669e+00
2.353759331034272151e+00
2.353759331034272151e+00
2.353759331034272151e+00
2.311945554979094819e+00
2.311945554979094819e+00
2.311945554979094819e+00
2.311945554979094819e+00
2.319820795312356854e+00
2.319820795312356854e+00
2.319820795312356854e+00
2.305007843256935196e+00
2.305007843256935196e+00
2.305007843256935196e+00
2.326008484145634547e+00
2.326008484145634547e+00
2.326008484145634547e+00
2.326008484145634547e+00
2.265069124423963132e+00
2.265069124423963132e+00
2.265069124423963132e+00
2.196067018646809643e+00
2.196067018646809643e+00
2.196067018646809643e+00
2.190816858424634361e+00
2.190816858424634361e+00
2.190816858424634361e+00
2.190816858424634361e+00
2.174691366313669327e+00
2.174691366313669327e+00
2.174691366313669327e+00
2.203754753257850751e+00
2.203754753257850751e+00
2.203754753257850751e+00
2.203754753257850751e+00
2.201504684591204519e+00
2.201504684591204519e+00
2.201504684591204519e+00
2.229068025757622085e+00
2.229068025757622085e+00
2.229068025757622085e+00
2.229068025757622085e+00
2.263006561479537382e+00
2.263006561479537382e+00
2.263006561479537382e+00
2.310820520645771925e+00
2.310820520645771925e+00
2.310820520645771925e+00
2.324695944090090727e+00
2.324695944090090727e+00
2.324695944090090727e+00
2.324695944090090727e+00
2.318883266701254442e+00
2.318883266701254442e+00
2.318883266701254442e+00
2.301820245979186552e+00
2.301820245979186552e+00
2.301820245979186552e+00
2.301820245979186552e+00
2.271631824701681346e+00
2.271631824701681346e+00
2.271631824701681346e+00
2.264694112979522167e+00
2.264694112979522167e+00
2.264694112979522167e+00
2.251381206701864812e+00
2.251381206701864812e+00
2.251381206701864812e+00
2.251381206701864812e+00
2.224942899868770141e+00
2.224942899868770141e+00
2.224942899868770141e+00
2.198692098757896396e+00
2.198692098757896396e+00
2.198692098757896396e+00
2.198692098757896396e+00
2.186504226813562823e+00
2.186504226813562823e+00
2.186504226813562823e+00
2.227755485702078264e+00
2.227755485702078264e+00
2.227755485702078264e+00
2.227755485702078264e+00
2.268444227423932702e+00
2.268444227423932702e+00
2.268444227423932702e+00
2.281944639423810539e+00
2.281944639423810539e+00
2.281944639423810539e+00
2.311758049256874337e+00
2.311758049256874337e+00
2.311758049256874337e+00
2.311758049256874337e+00
2.294132511368144556e+00
2.294132511368144556e+00
2.294132511368144556e+00
2.275381939146092325e+00
2.275381939146092325e+00
2.275381939146092325e+00
2.275381939146092325e+00
2.288319833979308715e+00
2.288319833979308715e+00
2.288319833979308715e+00
2.268069215979491737e+00
2.268069215979491737e+00
2.268069215979491737e+00
2.268069215979491737e+00
2.285319742423780109e+00
2.285319742423780109e+00
2.285319742423780109e+00
2.278382030701620931e+00
2.278382030701620931e+00
2.278382030701620931e+00
2.278382030701620931e+00
2.254943815424054865e+00
2.254943815424054865e+00
2.254943815424054865e+00
2.214817590868861874e+00
2.214817590868861874e+00
2.214817590868861874e+00
2.196629535813471090e+00
2.196629535813471090e+00
2.196629535813471090e+00
2.196629535813471090e+00
2.185566698202459968e+00
2.185566698202459968e+00
2.185566698202459968e+00
2.224942899868770141e+00
2.224942899868770141e+00
2.224942899868770141e+00
2.224942899868770141e+00
2.266756675923947917e+00
2.266756675923947917e+00
2.266756675923947917e+00
2.311383037812433372e+00
2.311383037812433372e+00
2.311383037812433372e+00
2.311383037812433372e+00
2.380010132145145896e+00
2.380010132145145896e+00
2.380010132145145896e+00
2.302007751701407035e+00
2.302007751701407035e+00
2.302007751701407035e+00
2.243693472090823260e+00
2.243693472090823260e+00
2.243693472090823260e+00
2.243693472090823260e+00
2.241068391979735619e+00
2.241068391979735619e+00
2.241068391979735619e+00
2.217630176702169997e+00
2.217630176702169997e+00
2.217630176702169997e+00
2.217630176702169997e+00
2.211817499313333268e+00
2.211817499313333268e+00
2.211817499313333268e+00
2.216130130924405695e+00
2.216130130924405695e+00
2.216130130924405695e+00
2.225317911313211550e+00
2.225317911313211550e+00
2.225317911313211550e+00
2.225317911313211550e+00
2.249693655201880027e+00
2.249693655201880027e+00
2.249693655201880027e+00
2.233193151646474028e+00
2.233193151646474028e+00
2.233193151646474028e+00
2.233193151646474028e+00
2.269194250312814631e+00
2.269194250312814631e+00
2.269194250312814631e+00
2.325633472701193583e+00
2.325633472701193583e+00
2.325633472701193583e+00
2.336321298867763296e+00
2.336321298867763296e+00
2.336321298867763296e+00
2.336321298867763296e+00
2.370447340311899076e+00
2.370447340311899076e+00
2.370447340311899076e+00
2.373634937589648164e+00
2.373634937589648164e+00
2.373634937589648164e+00
2.373634937589648164e+00
2.338008850367748082e+00
2.338008850367748082e+00
2.338008850367748082e+00
2.256068849757378203e+00
2.256068849757378203e+00
2.256068849757378203e+00
2.256068849757378203e+00
2.260006469924008776e+00
2.260006469924008776e+00
2.260006469924008776e+00
2.301632740256966070e+00
2.301632740256966070e+00
2.301632740256966070e+00
2.307257911923581428e+00
2.307257911923581428e+00
2.307257911923581428e+00
2.307257911923581428e+00
2.235443220313119816e+00
2.235443220313119816e+00
2.235443220313119816e+00
2.210317453535568966e+00
2.210317453535568966e+00
2.210317453535568966e+00
2.210317453535568966e+00
2.188191778313547164e+00
2.188191778313547164e+00
2.188191778313547164e+00
2.129689992980742907e+00
2.129689992980742907e+00
2.129689992980742907e+00
2.129689992980742907e+00
2.137565233314004942e+00
2.137565233314004942e+00
2.137565233314004942e+00
2.206379833368938392e+00
2.206379833368938392e+00
2.206379833368938392e+00
2.270506790368358452e+00
2.270506790368358452e+00
2.270506790368358452e+00
2.270506790368358452e+00
2.328071047090059853e+00
2.328071047090059853e+00
2.328071047090059853e+00
2.309882992034669069e+00
2.309882992034669069e+00
2.309882992034669069e+00
2.309882992034669069e+00
2.325258461256752618e+00
2.325258461256752618e+00
2.325258461256752618e+00
2.306695394756919981e+00
2.306695394756919981e+00
2.306695394756919981e+00
2.307820429090243319e+00
2.307820429090243319e+00
2.307820429090243319e+00
2.307820429090243319e+00
2.284382213812677254e+00
2.284382213812677254e+00
2.284382213812677254e+00
2.248568620868556689e+00
2.248568620868556689e+00
2.248568620868556689e+00
2.248568620868556689e+00
2.174878872035889810e+00
2.174878872035889810e+00
2.174878872035889810e+00
2.161003448591571008e+00
2.161003448591571008e+00
2.161003448591571008e+00
2.145440473647266977e+00
2.145440473647266977e+00
2.145440473647266977e+00
2.145440473647266977e+00
2.178628986480300345e+00
2.178628986480300345e+00
2.178628986480300345e+00
2.277444502090518075e+00
2.277444502090518075e+00
2.277444502090518075e+00
2.277444502090518075e+00
2.328446058534500818e+00
2.328446058534500818e+00
2.328446058534500818e+00
2.345321573534348669e+00
2.345321573534348669e+00
2.345321573534348669e+00
2.345321573534348669e+00
2.367634754478591397e+00
2.367634754478591397e+00
2.367634754478591397e+00
2.348696676534318240e+00
2.348696676534318240e+00
2.348696676534318240e+00
2.323008392590105942e+00
2.323008392590105942e+00
2.323008392590105942e+00
2.323008392590105942e+00
2.307257911923581428e+00
2.307257911923581428e+00
2.307257911923581428e+00
2.243130954924161813e+00
2.243130954924161813e+00
2.243130954924161813e+00
2.218567705313272853e+00
2.218567705313272853e+00
2.218567705313272853e+00
2.218567705313272853e+00
2.208629902035584625e+00
2.208629902035584625e+00
2.208629902035584625e+00
2.212380016479995160e+00
2.212380016479995160e+00
2.212380016479995160e+00
2.212380016479995160e+00
2.252506241035188150e+00
2.252506241035188150e+00
2.252506241035188150e+00
2.228130497146519229e+00
2.228130497146519229e+00
2.228130497146519229e+00
2.285319742423780109e+00
2.285319742423780109e+00
2.285319742423780109e+00
2.285319742423780109e+00
2.347196630756553937e+00
2.347196630756553937e+00
2.347196630756553937e+00
2.318133243812372069e+00
2.318133243812372069e+00
2.318133243812372069e+00
2.318133243812372069e+00
2.303695303201391820e+00
2.303695303201391820e+00
2.303695303201391820e+00
2.246881069368571904e+00
2.246881069368571904e+00
2.246881069368571904e+00
2.219505233924375265e+00
2.219505233924375265e+00
2.219505233924375265e+00
2.219505233924375265e+00
2.173566331980346433e+00
2.173566331980346433e+00
2.173566331980346433e+00
2.176753929258095077e+00
2.176753929258095077e+00
2.176753929258095077e+00
2.176753929258095077e+00
2.201879696035645484e+00
2.201879696035645484e+00
2.201879696035645484e+00
2.258131412701803509e+00
2.258131412701803509e+00
2.258131412701803509e+00
2.258131412701803509e+00
2.255131321146275347e+00
2.255131321146275347e+00
2.255131321146275347e+00
2.243880977813043742e+00
2.243880977813043742e+00
2.243880977813043742e+00
2.244631000701926116e+00
2.244631000701926116e+00
2.244631000701926116e+00
2.244631000701926116e+00
2.290382396923734465e+00
2.290382396923734465e+00
2.290382396923734465e+00
2.311195532090212890e+00
2.311195532090212890e+00
2.311195532090212890e+00
2.311195532090212890e+00
2.273319376201666131e+00
2.273319376201666131e+00
2.273319376201666131e+00
2.324695944090090727e+00
2.324695944090090727e+00
2.324695944090090727e+00
2.381135166478469234e+00
2.381135166478469234e+00
2.381135166478469234e+00
2.381135166478469234e+00
2.362197088534196077e+00
2.362197088534196077e+00
2.362197088534196077e+00
2.320570818201239227e+00
2.320570818201239227e+00
2.320570818201239227e+00
2.320570818201239227e+00
2.298820154423657947e+00
2.298820154423657947e+00
2.298820154423657947e+00
2.301257728812525105e+00
2.301257728812525105e+00
2.301257728812525105e+00
2.256256355479598685e+00
2.256256355479598685e+00
2.256256355479598685e+00
2.256256355479598685e+00
2.187816766869105756e+00
2.187816766869105756e+00
2.187816766869105756e+00
2.143002899258400262e+00
2.143002899258400262e+00
2.143002899258400262e+00
2.143002899258400262e+00
2.146002990813928868e+00
2.146002990813928868e+00
2.146002990813928868e+00
2.108876857814264483e+00
2.108876857814264483e+00
2.108876857814264483e+00
2.123502304147465658e+00
2.123502304147465658e+00
2.123502304147465658e+00
2.123502304147465658e+00
2.209004913480026033e+00
2.209004913480026033e+00
2.209004913480026033e+00
2.258881435590685438e+00
2.258881435590685438e+00
2.258881435590685438e+00
2.258881435590685438e+00
2.299945188756981285e+00
2.299945188756981285e+00
2.299945188756981285e+00
2.372509903256325270e+00
2.372509903256325270e+00
2.372509903256325270e+00
2.372509903256325270e+00
2.350009216589862060e+00
2.350009216589862060e+00
2.350009216589862060e+00
2.282694662312692468e+00
2.282694662312692468e+00
2.282694662312692468e+00
2.263381572923978347e+00
2.263381572923978347e+00
2.263381572923978347e+00
2.263381572923978347e+00
2.276319467757194737e+00
2.276319467757194737e+00
2.276319467757194737e+00
2.286069765312662039e+00
2.286069765312662039e+00
2.286069765312662039e+00
2.286069765312662039e+00
2.254193792535172935e+00
2.254193792535172935e+00
2.254193792535172935e+00
2.183691640980254700e+00
2.183691640980254700e+00
2.183691640980254700e+00
2.191941892757957699e+00
2.191941892757957699e+00
2.191941892757957699e+00
2.191941892757957699e+00
2.200942167424543072e+00
2.200942167424543072e+00
2.200942167424543072e+00
2.217067659535508550e+00
2.217067659535508550e+00
2.217067659535508550e+00
2.217067659535508550e+00
2.283444685201574842e+00
2.283444685201574842e+00
2.283444685201574842e+00
2.338571367534409973e+00
2.338571367534409973e+00
2.338571367534409973e+00
2.387510361033966966e+00
2.387510361033966966e+00
2.387510361033966966e+00
2.387510361033966966e+00
2.403635853144932444e+00
2.403635853144932444e+00
2.403635853144932444e+00
2.365572191534165203e+00
2.365572191534165203e+00
2.365572191534165203e+00
2.365572191534165203e+00
2.318695760979033516e+00
2.318695760979033516e+00
2.318695760979033516e+00
2.277256996368297592e+00
2.277256996368297592e+00
2.277256996368297592e+00
2.277256996368297592e+00
2.179754020813623683e+00
2.179754020813623683e+00
2.179754020813623683e+00
2.143940427869502674e+00
2.143940427869502674e+00
2.143940427869502674e+00
2.181629078035828950e+00
2.181629078035828950e+00
2.181629078035828950e+00
2.181629078035828950e+00
2.154253242591631867e+00
2.154253242591631867e+00
2.154253242591631867e+00
2.162128482924894346e+00
2.162128482924894346e+00
2.162128482924894346e+00
2.162128482924894346e+00
2.167753654591509704e+00
2.167753654591509704e+00
2.167753654591509704e+00
2.237880794701986531e+00
2.237880794701986531e+00
2.237880794701986531e+00
2.321508346812341639e+00
2.321508346812341639e+00
2.321508346812341639e+00
2.321508346812341639e+00
2.342883999145481511e+00
2.342883999145481511e+00
2.342883999145481511e+00
2.392573015533921321e+00
2.392573015533921321e+00
2.392573015533921321e+00
2.392573015533921321e+00
2.425949034089175171e+00
2.425949034089175171e+00
2.425949034089175171e+00
2.388260383922848895e+00
2.388260383922848895e+00
2.388260383922848895e+00
2.388260383922848895e+00
2.315508163701284872e+00
2.315508163701284872e+00
2.315508163701284872e+00
2.258318918424023991e+00
2.258318918424023991e+00
2.258318918424023991e+00
2.206942350535599839e+00
2.206942350535599839e+00
2.206942350535599839e+00
2.206942350535599839e+00
2.168316171758171151e+00
2.168316171758171151e+00
2.168316171758171151e+00
2.170566240424817828e+00
2.170566240424817828e+00
2.170566240424817828e+00
2.170566240424817828e+00
2.150690633869442259e+00
2.150690633869442259e+00
2.150690633869442259e+00
2.152003173924985191e+00
2.152003173924985191e+00
2.152003173924985191e+00
2.165878597369304437e+00
2.165878597369304437e+00
2.165878597369304437e+00
2.165878597369304437e+00
2.264131595812860720e+00
2.264131595812860720e+00
2.264131595812860720e+00
2.313633106479079604e+00
2.313633106479079604e+00
2.313633106479079604e+00
2.313633106479079604e+00
2.321133335367900674e+00
2.321133335367900674e+00
2.321133335367900674e+00
2.373259926145207199e+00
2.373259926145207199e+00
2.373259926145207199e+00
2.373259926145207199e+00
2.345134067812128187e+00
2.345134067812128187e+00
2.345134067812128187e+00
2.299945188756981285e+00
2.299945188756981285e+00
2.299945188756981285e+00
2.253818781090731527e+00
2.253818781090731527e+00
2.253818781090731527e+00
2.253818781090731527e+00
2.250818689535202921e+00
2.250818689535202921e+00
2.250818689535202921e+00
2.224942899868770141e+00
2.224942899868770141e+00
2.224942899868770141e+00
2.223255348368785356e+00
2.223255348368785356e+00
2.224942899868770141e+00
2.224942899868770141e+00
2.224942899868770141e+00
2.224942899868770141e+00
2.247818597979674760e+00
2.247818597979674760e+00
2.247818597979674760e+00
2.251756218146305777e+00
2.251756218146305777e+00
2.251756218146305777e+00
2.253256263924070080e+00
2.253256263924070080e+00
2.253256263924070080e+00
2.253256263924070080e+00
2.353571825312051669e+00
2.353571825312051669e+00
2.353571825312051669e+00
2.347946653645436310e+00
2.347946653645436310e+00
2.347946653645436310e+00
2.347946653645436310e+00
2.322820886867885459e+00
2.322820886867885459e+00
2.322820886867885459e+00
2.320758323923459709e+00
2.320758323923459709e+00
2.320758323923459709e+00
2.300882717368083696e+00
2.300882717368083696e+00
2.300882717368083696e+00
2.300882717368083696e+00
2.251568712424085295e+00
2.251568712424085295e+00
2.251568712424085295e+00
2.254193792535172935e+00
2.254193792535172935e+00
2.254193792535172935e+00
2.254193792535172935e+00
2.197004547257912055e+00
2.197004547257912055e+00
2.197004547257912055e+00
2.120689718314157535e+00
2.120689718314157535e+00
2.120689718314157535e+00
2.120689718314157535e+00
2.113001983703115982e+00
2.113001983703115982e+00
2.113001983703115982e+00
2.165128574480422063e+00
2.165128574480422063e+00
2.165128574480422063e+00
2.187816766869105756e+00
2.187816766869105756e+00
2.187816766869105756e+00
2.187816766869105756e+00
2.209192419202246516e+00
2.209192419202246516e+00
2.209192419202246516e+00
2.281382122257148648e+00
2.281382122257148648e+00
2.281382122257148648e+00
2.333883724478896582e+00
2.333883724478896582e+00
2.333883724478896582e+00
2.333883724478896582e+00
2.344384044923245813e+00
2.344384044923245813e+00
2.344384044923245813e+00
2.378510086367381593e+00
2.378510086367381593e+00
2.378510086367381593e+00
2.378510086367381593e+00
2.382447706534013054e+00
2.382447706534013054e+00
2.382447706534013054e+00
2.346446607867672007e+00
2.346446607867672007e+00
2.346446607867672007e+00
2.341196447645496725e+00
2.341196447645496725e+00
2.341196447645496725e+00
2.341196447645496725e+00
2.287382305368205859e+00
2.287382305368205859e+00
2.287382305368205859e+00
2.266381664479506952e+00
2.266381664479506952e+00
2.266381664479506952e+00
2.266381664479506952e+00
2.242380932035279439e+00
2.242380932035279439e+00
2.242380932035279439e+00
2.191379375591296252e+00
2.191379375591296252e+00
2.191379375591296252e+00
2.172253791924802613e+00
2.172253791924802613e+00
2.172253791924802613e+00
2.172253791924802613e+00
2.165878597369304437e+00
2.165878597369304437e+00
2.165878597369304437e+00
2.173003814813684542e+00
2.173003814813684542e+00
2.173003814813684542e+00
2.173003814813684542e+00
2.200379650257881181e+00
2.200379650257881181e+00
2.200379650257881181e+00
2.281944639423810539e+00
2.281944639423810539e+00
2.281944639423810539e+00
2.352634296700948813e+00
2.352634296700948813e+00
2.352634296700948813e+00
2.422948942533646566e+00
2.422948942533646566e+00
2.422948942533646566e+00
2.454262398144474666e+00
2.454262398144474666e+00
2.454262398144474666e+00
2.454262398144474666e+00
2.364634662923062791e+00
2.364634662923062791e+00
2.364634662923062791e+00
2.255318826868495830e+00
2.255318826868495830e+00
2.255318826868495830e+00
2.196254524369030126e+00
2.196254524369030126e+00
2.196254524369030126e+00
2.196254524369030126e+00
2.240130863368633207e+00
2.240130863368633207e+00
2.240130863368633207e+00
2.165691091647083955e+00
2.165691091647083955e+00
2.165691091647083955e+00
2.102314157536546269e+00
2.102314157536546269e+00
2.102314157536546269e+00
2.102314157536546269e+00
2.105126743369853504e+00
2.105126743369853504e+00
2.105126743369853504e+00
2.213692556535538980e+00
2.213692556535538980e+00
2.213692556535538980e+00
2.213692556535538980e+00
2.242943449201941331e+00
2.242943449201941331e+00
2.242943449201941331e+00
2.290194891201513983e+00
2.290194891201513983e+00
2.290194891201513983e+00
2.357884456923124095e+00
2.357884456923124095e+00
2.357884456923124095e+00
2.357884456923124095e+00
2.371572374645222414e+00
2.371572374645222414e+00
2.371572374645222414e+00
2.357509445478682686e+00
2.357509445478682686e+00
2.357509445478682686e+00
2.357509445478682686e+00
2.306882900479140464e+00
2.306882900479140464e+00
2.306882900479140464e+00
2.248943632312997654e+00
2.248943632312997654e+00
2.248943632312997654e+00
2.265256630146183614e+00
2.265256630146183614e+00
2.265256630146183614e+00
2.274256904812768987e+00
2.274256904812768987e+00
2.274256904812768987e+00
2.274256904812768987e+00
2.257193884090700653e+00
2.257193884090700653e+00
2.257193884090700653e+00
2.248381115146336207e+00
2.248381115146336207e+00
2.248381115146336207e+00
2.248381115146336207e+00
2.140190313425092139e+00
2.140190313425092139e+00
2.140190313425092139e+00
2.102876674703207716e+00
2.102876674703207716e+00
2.102876674703207716e+00
2.102876674703207716e+00
2.119564683980834197e+00
2.119564683980834197e+00
2.119564683980834197e+00
2.179941526535844165e+00
2.179941526535844165e+00
2.179941526535844165e+00
2.212755027924436124e+00
2.212755027924436124e+00
2.212755027924436124e+00
2.212755027924436124e+00
2.340071413312173831e+00
2.340071413312173831e+00
2.340071413312173831e+00
2.329571092867824156e+00
2.329571092867824156e+00
2.329571092867824156e+00
2.329571092867824156e+00
2.402698324533829588e+00
2.402698324533829588e+00
2.402698324533829588e+00
2.338008850367748082e+00
2.338008850367748082e+00
2.338008850367748082e+00
2.259068941312906365e+00
2.259068941312906365e+00
2.259068941312906365e+00
2.259068941312906365e+00
2.224567888424329176e+00
2.224567888424329176e+00
2.224567888424329176e+00
2.225130405590991067e+00
2.225130405590991067e+00
2.225130405590991067e+00
2.225130405590991067e+00
2.250631183812982439e+00
2.250631183812982439e+00
2.250631183812982439e+00
2.264881618701742649e+00
2.264881618701742649e+00
2.264881618701742649e+00
2.264881618701742649e+00
2.255318826868495830e+00
2.255318826868495830e+00
2.255318826868495830e+00
2.260568987090670667e+00
2.260568987090670667e+00
2.260568987090670667e+00
2.267319193090609808e+00
2.267319193090609808e+00
2.267319193090609808e+00
2.267319193090609808e+00
2.272194341868343237e+00
2.272194341868343237e+00
2.272194341868343237e+00
2.280257087923826198e+00
2.280257087923826198e+00
2.280257087923826198e+00
2.280257087923826198e+00
2.263756584368419311e+00
2.263756584368419311e+00
2.263756584368419311e+00
2.308007934812463802e+00
2.308007934812463802e+00
2.308007934812463802e+00
2.308007934812463802e+00
2.341008941923276243e+00
2.341008941923276243e+00
2.341008941923276243e+00
2.321320841090121156e+00
2.321320841090121156e+00
2.321320841090121156e+00
2.292069948423719250e+00
2.292069948423719250e+00
2.292069948423719250e+00
2.292069948423719250e+00
2.265256630146183614e+00
2.265256630146183614e+00
2.265256630146183614e+00
2.169441206091494490e+00
2.169441206091494490e+00
2.169441206091494490e+00
2.169441206091494490e+00
2.229443037202063049e+00
2.229443037202063049e+00
2.229443037202063049e+00
2.220067751091036712e+00
2.220067751091036712e+00
2.220067751091036712e+00
2.208629902035584625e+00
2.208629902035584625e+00
2.208629902035584625e+00
2.208629902035584625e+00
2.270694296090578934e+00
2.270694296090578934e+00
2.270694296090578934e+00
2.299757683034760802e+00
2.299757683034760802e+00
2.299757683034760802e+00
2.320570818201239227e+00
2.320570818201239227e+00
2.320570818201239227e+00
2.320570818201239227e+00
2.268631733146153184e+00
2.268631733146153184e+00
2.268631733146153184e+00
2.353196813867610704e+00
2.353196813867610704e+00
2.353196813867610704e+00
2.353196813867610704e+00
2.419386333811456957e+00
2.419386333811456957e+00
2.419386333811456957e+00
2.337821344645527599e+00
2.337821344645527599e+00
2.337821344645527599e+00
2.243880977813043742e+00
2.243880977813043742e+00
2.243880977813043742e+00
2.243880977813043742e+00
2.179379009369182274e+00
2.179379009369182274e+00
2.179379009369182274e+00
2.133627613147373925e+00
2.133627613147373925e+00
2.133627613147373925e+00
2.133627613147373925e+00
2.150315622425000850e+00
2.150315622425000850e+00
2.150315622425000850e+00
2.241818414868617992e+00
2.241818414868617992e+00
2.241818414868617992e+00
2.241818414868617992e+00
2.261319009979552597e+00
2.261319009979552597e+00
2.261319009979552597e+00
2.235630726035340299e+00
2.235630726035340299e+00
2.235630726035340299e+00
2.216317636646626177e+00
2.216317636646626177e+00
2.216317636646626177e+00
2.216317636646626177e+00
2.233568163090914993e+00
2.233568163090914993e+00
2.233568163090914993e+00
2.212567522202215642e+00
2.212567522202215642e+00
2.212567522202215642e+00
2.212567522202215642e+00
2.260568987090670667e+00
2.260568987090670667e+00
2.260568987090670667e+00
2.306132877590258534e+00
2.306132877590258534e+00
2.306132877590258534e+00
2.306132877590258534e+00
2.326758507034516477e+00
2.326758507034516477e+00
2.326758507034516477e+00
2.367822260200811879e+00
2.367822260200811879e+00
2.367822260200811879e+00
2.316820703756828248e+00
2.316820703756828248e+00
2.316820703756828248e+00
2.316820703756828248e+00
2.277444502090518075e+00
2.277444502090518075e+00
2.277444502090518075e+00
2.231505600146489243e+00
2.231505600146489243e+00
2.231505600146489243e+00
2.231505600146489243e+00
2.230755577257606870e+00
2.230755577257606870e+00
2.230755577257606870e+00
2.207504867702261730e+00
2.207504867702261730e+00
2.207504867702261730e+00
2.241630909146397510e+00
2.241630909146397510e+00
2.241630909146397510e+00
2.241630909146397510e+00
2.196629535813471090e+00
2.196629535813471090e+00
2.196629535813471090e+00
2.172253791924802613e+00
2.172253791924802613e+00
2.172253791924802613e+00
2.172253791924802613e+00
2.217442670979949515e+00
2.217442670979949515e+00
2.217442670979949515e+00
2.315320657979064389e+00
2.315320657979064389e+00
2.315320657979064389e+00
2.349634205145421095e+00
2.349634205145421095e+00
2.349634205145421095e+00
2.349634205145421095e+00
2.341571459089938134e+00
2.341571459089938134e+00
2.341571459089938134e+00
2.355446882534256936e+00
2.355446882534256936e+00
2.355446882534256936e+00
2.355446882534256936e+00
2.325258461256752618e+00
2.325258461256752618e+00
2.325258461256752618e+00
2.277256996368297592e+00
2.277256996368297592e+00
2.277256996368297592e+00
2.277256996368297592e+00
2.356196905423139309e+00
2.356196905423139309e+00
2.356196905423139309e+00
2.392760521256141804e+00
2.392760521256141804e+00
2.392760521256141804e+00
2.296382580034791232e+00
2.296382580034791232e+00
2.296382580034791232e+00
2.281194616534928166e+00
2.281194616534928166e+00
2.281194616534928166e+00
2.281194616534928166e+00
2.265069124423963132e+00
2.265069124423963132e+00
2.265069124423963132e+00
2.180316537980285130e+00
2.180316537980285130e+00
2.180316537980285130e+00
2.180316537980285130e+00
2.083376079592272667e+00
2.083376079592272667e+00
2.083376079592272667e+00
2.145065462202826012e+00
2.145065462202826012e+00
2.145065462202826012e+00
2.145065462202826012e+00
2.193254432813501520e+00
2.193254432813501520e+00
2.193254432813501520e+00
2.266569170201727434e+00
2.266569170201727434e+00
2.266569170201727434e+00
2.321133335367900674e+00
2.321133335367900674e+00
2.321133335367900674e+00
2.321133335367900674e+00
2.360697042756431774e+00
2.360697042756431774e+00
2.360697042756431774e+00
2.362759605700857524e+00
2.362759605700857524e+00
2.362759605700857524e+00
2.362759605700857524e+00
2.266756675923947917e+00
2.266756675923947917e+00
2.266756675923947917e+00
2.234130680257575996e+00
2.234130680257575996e+00
2.234130680257575996e+00
2.234130680257575996e+00
2.201129673146763555e+00
2.201129673146763555e+00
2.201129673146763555e+00
2.131565050202948175e+00
2.131565050202948175e+00
2.131565050202948175e+00
2.154253242591631867e+00
2.154253242591631867e+00
2.154253242591631867e+00
2.154253242591631867e+00
2.251943723868526259e+00
2.251943723868526259e+00
2.251943723868526259e+00
2.197567064424573946e+00
2.197567064424573946e+00
2.197567064424573946e+00
2.197567064424573946e+00
2.192129398480178182e+00
2.192129398480178182e+00
2.192129398480178182e+00
2.262819055757316900e+00
2.262819055757316900e+00
2.262819055757316900e+00
2.293382488479262626e+00
2.293382488479262626e+00
2.293382488479262626e+00
2.293382488479262626e+00
2.371384868923001932e+00
2.371384868923001932e+00
2.371384868923001932e+00
2.432886745811334794e+00
2.432886745811334794e+00
2.432886745811334794e+00
2.432886745811334794e+00
2.381697683645130681e+00
2.381697683645130681e+00
2.381697683645130681e+00
2.274444410534989469e+00
2.274444410534989469e+00
2.274444410534989469e+00
2.274444410534989469e+00
2.271256813257240381e+00
2.271256813257240381e+00
2.271256813257240381e+00
2.250631183812982439e+00
2.250631183812982439e+00
2.250631183812982439e+00
2.290757408368175430e+00
2.290757408368175430e+00
2.290757408368175430e+00
2.290757408368175430e+00
2.352071779534287366e+00
2.352071779534287366e+00
2.352071779534287366e+00
2.319820795312356854e+00
2.319820795312356854e+00
2.319820795312356854e+00
2.319820795312356854e+00
2.266756675923947917e+00
2.266756675923947917e+00
2.266756675923947917e+00
2.171316263313699757e+00
2.171316263313699757e+00
2.171316263313699757e+00
2.075875850703451597e+00
2.075875850703451597e+00
2.075875850703451597e+00
2.075875850703451597e+00
2.099689077425458628e+00
2.099689077425458628e+00
2.099689077425458628e+00
2.176378917813653668e+00
2.176378917813653668e+00
2.176378917813653668e+00
2.176378917813653668e+00
2.327321024201178368e+00
2.327321024201178368e+00
2.327321024201178368e+00
2.346634113589892490e+00
2.346634113589892490e+00
2.346634113589892490e+00
2.346634113589892490e+00
2.329196081423383191e+00
2.329196081423383191e+00
2.329196081423383191e+00
2.269006744590594149e+00
2.269006744590594149e+00
2.269006744590594149e+00
2.202254707480086449e+00
2.202254707480086449e+00
2.202254707480086449e+00
2.202254707480086449e+00
2.230568071535386387e+00
2.230568071535386387e+00
2.230568071535386387e+00
2.210129947813348927e+00
2.210129947813348927e+00
2.210129947813348927e+00
2.212380016479995160e+00
2.212380016479995160e+00
2.212380016479995160e+00
2.212380016479995160e+00
2.244818506424146598e+00
2.244818506424146598e+00
2.244818506424146598e+00
2.294320017090365038e+00
2.294320017090365038e+00
2.294320017090365038e+00
2.294320017090365038e+00
2.311945554979094819e+00
2.311945554979094819e+00
2.311945554979094819e+00
2.245381023590808045e+00
2.245381023590808045e+00
2.245381023590808045e+00
2.254006286812952009e+00
2.254006286812952009e+00
2.254006286812952009e+00
2.254006286812952009e+00
2.279882076479384789e+00
2.279882076479384789e+00
2.279882076479384789e+00
2.342321481978820064e+00
2.342321481978820064e+00
2.342321481978820064e+00
2.342321481978820064e+00
2.313445600756859122e+00
2.313445600756859122e+00
2.313445600756859122e+00
2.306320383312479017e+00
2.306320383312479017e+00
2.306320383312479017e+00
2.306320383312479017e+00
2.406260933256020085e+00
2.406260933256020085e+00
2.406260933256020085e+00
2.360884548478652700e+00
2.360884548478652700e+00
2.360884548478652700e+00
2.282319650868251504e+00
2.282319650868251504e+00
2.282319650868251504e+00
2.282319650868251504e+00
2.284569719534897736e+00
2.284569719534897736e+00
2.284569719534897736e+00
2.245006012146367080e+00
2.245006012146367080e+00
2.245006012146367080e+00
2.245006012146367080e+00
2.144877956480605530e+00
2.144877956480605530e+00
2.144877956480605530e+00
2.065188024536881883e+00
2.065188024536881883e+00
2.065188024536881883e+00
2.065188024536881883e+00
2.080000976592303541e+00
2.080000976592303541e+00
2.080000976592303541e+00
2.183316629535813735e+00
2.183316629535813735e+00
2.183316629535813735e+00
2.260943998535111632e+00
2.260943998535111632e+00
2.260943998535111632e+00
2.260943998535111632e+00
2.229630542924283532e+00
2.229630542924283532e+00
2.229630542924283532e+00
2.306320383312479017e+00
2.306320383312479017e+00
2.306320383312479017e+00
2.306320383312479017e+00
2.365009674367503756e+00
2.365009674367503756e+00
2.365009674367503756e+00
2.434574297311319135e+00
2.434574297311319135e+00
2.434574297311319135e+00
2.441699514755699685e+00
2.441699514755699685e+00
2.441699514755699685e+00
2.441699514755699685e+00
2.362572099978637485e+00
2.362572099978637485e+00
2.362572099978637485e+00
2.350759239478743989e+00
2.350759239478743989e+00
2.350759239478743989e+00
2.350759239478743989e+00
2.306132877590258534e+00
2.306132877590258534e+00
2.306132877590258534e+00
2.211817499313333268e+00
2.211817499313333268e+00
2.211817499313333268e+00
2.211817499313333268e+00
2.085438642536698417e+00
2.085438642536698417e+00
2.085438642536698417e+00
2.065188024536881883e+00
2.065188024536881883e+00
2.065188024536881883e+00
2.117502121036408447e+00
2.117502121036408447e+00
2.117502121036408447e+00
2.117502121036408447e+00
2.219880245368816230e+00
2.219880245368816230e+00
2.219880245368816230e+00
2.333321207312235135e+00
2.333321207312235135e+00
2.333321207312235135e+00
2.333321207312235135e+00
2.383760246589556875e+00
2.383760246589556875e+00
2.383760246589556875e+00
2.416948759422589799e+00
2.416948759422589799e+00
2.416948759422589799e+00
2.380947660756248752e+00
2.380947660756248752e+00
2.380947660756248752e+00
2.380947660756248752e+00
2.267881710257271255e+00
2.267881710257271255e+00
2.267881710257271255e+00
2.176191412091433186e+00
2.176191412091433186e+00
2.176191412091433186e+00
2.176191412091433186e+00
2.270694296090578934e+00
2.270694296090578934e+00
2.270694296090578934e+00
2.216880153813287624e+00
2.216880153813287624e+00
2.216880153813287624e+00
2.216880153813287624e+00
2.210879970702230857e+00
2.210879970702230857e+00
2.210879970702230857e+00
2.284194708090456771e+00
2.284194708090456771e+00
2.284194708090456771e+00
2.283632190923795324e+00
2.283632190923795324e+00
2.283632190923795324e+00
2.283632190923795324e+00
2.212567522202215642e+00
2.212567522202215642e+00
2.212567522202215642e+00
2.159503402813806705e+00
2.159503402813806705e+00
2.159503402813806705e+00
2.159503402813806705e+00
2.249506149479659545e+00
2.249506149479659545e+00
2.249506149479659545e+00
2.278757042146061895e+00
2.278757042146061895e+00
2.278757042146061895e+00
2.244443494979705633e+00
2.244443494979705633e+00
2.244443494979705633e+00
2.244443494979705633e+00
2.274444410534989469e+00
2.274444410534989469e+00
2.274444410534989469e+00
2.338946378978850937e+00
2.338946378978850937e+00
2.338946378978850937e+00
2.338946378978850937e+00
2.318695760979033516e+00
2.318695760979033516e+00
2.318695760979033516e+00
2.306882900479140464e+00
2.306882900479140464e+00
2.306882900479140464e+00
2.321883358256782603e+00
2.321883358256782603e+00
2.321883358256782603e+00
2.321883358256782603e+00
2.278757042146061895e+00
2.278757042146061895e+00
2.278757042146061895e+00
2.296945097201452679e+00
2.296945097201452679e+00
2.296945097201452679e+00
2.296945097201452679e+00
2.236380748924222672e+00
2.236380748924222672e+00
2.236380748924222672e+00
2.254568803979613900e+00
2.254568803979613900e+00
2.254568803979613900e+00
2.254568803979613900e+00
2.204129764702292160e+00
2.204129764702292160e+00
2.204129764702292160e+00
2.145252967925046494e+00
2.145252967925046494e+00
2.145252967925046494e+00
2.153690725424969976e+00
2.153690725424969976e+00
2.153690725424969976e+00
2.153690725424969976e+00
2.187629261146885273e+00
2.187629261146885273e+00
2.187629261146885273e+00
2.283444685201574842e+00
2.283444685201574842e+00
2.283444685201574842e+00
2.283444685201574842e+00
2.365009674367503756e+00
2.365009674367503756e+00
2.365009674367503756e+00
2.407010956144902014e+00
2.407010956144902014e+00
2.407010956144902014e+00
2.344946562089907705e+00
2.344946562089907705e+00
2.344946562089907705e+00
2.344946562089907705e+00
2.320945829645680192e+00
2.320945829645680192e+00
2.320945829645680192e+00
2.267694204535050773e+00
2.267694204535050773e+00
2.267694204535050773e+00
2.267694204535050773e+00
2.222880336924344391e+00
2.222880336924344391e+00
2.222880336924344391e+00
2.212005005035553751e+00
2.212005005035553751e+00
2.212005005035553751e+00
2.212005005035553751e+00
2.093126377147739969e+00
2.093126377147739969e+00
2.093126377147739969e+00
2.131940061647389140e+00
2.131940061647389140e+00
2.131940061647389140e+00
2.163441022980437278e+00
2.163441022980437278e+00
2.163441022980437278e+00
2.163441022980437278e+00
2.217817682424390480e+00
2.217817682424390480e+00
2.217817682424390480e+00
2.284944730979339145e+00
2.284944730979339145e+00
2.284944730979339145e+00
2.284944730979339145e+00
2.268069215979491737e+00
2.268069215979491737e+00
2.268069215979491737e+00
2.298070131534776017e+00
2.298070131534776017e+00
2.298070131534776017e+00
2.298070131534776017e+00
2.310258003479110034e+00
2.310258003479110034e+00
2.310258003479110034e+00
2.320008301034577336e+00
2.320008301034577336e+00
2.320008301034577336e+00
2.419948850978118404e+00
2.419948850978118404e+00
2.419948850978118404e+00
2.419948850978118404e+00
2.433636768700216724e+00
2.433636768700216724e+00
2.433636768700216724e+00
2.392760521256141804e+00
2.392760521256141804e+00
2.392760521256141804e+00
2.392760521256141804e+00
2.270694296090578934e+00
2.270694296090578934e+00
2.270694296090578934e+00
2.224567888424329176e+00
2.194379467146824858e+00
2.194379467146824858e+00
2.194379467146824858e+00
2.194379467146824858e+00
2.186316721091342341e+00
2.186316721091342341e+00
2.186316721091342341e+00
2.182566606646931362e+00
2.182566606646931362e+00
2.182566606646931362e+00
2.182566606646931362e+00
2.206379833368938392e+00
2.206379833368938392e+00
2.206379833368938392e+00
2.252318735312967224e+00
2.252318735312967224e+00
2.252318735312967224e+00
2.252318735312967224e+00
2.379072603534043484e+00
2.379072603534043484e+00
2.379072603534043484e+00
2.403073335978270997e+00
2.403073335978270997e+00
2.403073335978270997e+00
2.332758690145573244e+00
2.332758690145573244e+00
2.332758690145573244e+00
2.332758690145573244e+00
2.274819421979430434e+00
2.274819421979430434e+00
2.274819421979430434e+00
2.261694021423993561e+00
2.261694021423993561e+00
2.261694021423993561e+00
2.261694021423993561e+00
2.203942258980071234e+00
2.203942258980071234e+00
2.203942258980071234e+00
2.131002533036286284e+00
2.131002533036286284e+00
2.131002533036286284e+00
2.146753013702810797e+00
2.146753013702810797e+00
2.146753013702810797e+00
2.146753013702810797e+00
2.281569627979369130e+00
2.281569627979369130e+00
2.281569627979369130e+00
2.318508255256813033e+00
2.318508255256813033e+00
2.318508255256813033e+00
2.318508255256813033e+00
2.321320841090121156e+00
2.321320841090121156e+00
2.321320841090121156e+00
2.356571916867580274e+00
2.356571916867580274e+00
2.356571916867580274e+00
2.356571916867580274e+00
2.311008026367992407e+00
2.311008026367992407e+00
2.311008026367992407e+00
2.089001251258888470e+00
2.089001251258888470e+00
2.089001251258888470e+00
2.028436902981658463e+00
2.028436902981658463e+00
2.028436902981658463e+00
2.028436902981658463e+00
2.155003265480513797e+00
2.155003265480513797e+00
2.155003265480513797e+00
2.390322946867275089e+00
2.390322946867275089e+00
2.390322946867275089e+00
2.390322946867275089e+00
2.466637775811029609e+00
2.466637775811029609e+00
2.466637775811029609e+00
2.385260292367321178e+00
2.385260292367321178e+00
2.385260292367321178e+00
2.291132419812616394e+00
2.291132419812616394e+00
2.291132419812616394e+00
2.291132419812616394e+00
2.229443037202063049e+00
2.229443037202063049e+00
2.229443037202063049e+00
2.092938871425519931e+00
2.092938871425519931e+00
2.092938871425519931e+00
2.092938871425519931e+00
2.074375804925687294e+00
2.074375804925687294e+00
2.074375804925687294e+00
2.184066652424695665e+00
2.184066652424695665e+00
2.184066652424695665e+00
2.184066652424695665e+00
2.202817224646748340e+00
2.202817224646748340e+00
2.202817224646748340e+00
2.293757499923703591e+00
2.293757499923703591e+00
2.293757499923703591e+00
2.371009857478560967e+00
2.371009857478560967e+00
2.371009857478560967e+00
2.371009857478560967e+00
2.349821710867641578e+00
2.349821710867641578e+00
2.349821710867641578e+00
2.460262581255531433e+00
2.460262581255531433e+00
2.367634754478591397e+00
2.367634754478591397e+00
2.367634754478591397e+00
2.367634754478591397e+00
2.254568803979613900e+00
2.254568803979613900e+00
2.254568803979613900e+00
2.169066194647053525e+00
2.169066194647053525e+00
2.169066194647053525e+00
2.169066194647053525e+00
2.060687887203588975e+00
2.060687887203588975e+00
2.060687887203588975e+00
2.202817224646748340e+00
2.202817224646748340e+00
2.202817224646748340e+00
2.353759331034272151e+00
2.353759331034272151e+00
2.353759331034272151e+00
2.349071687978759204e+00
2.349071687978759204e+00
2.349071687978759204e+00
2.349071687978759204e+00
2.319820795312356854e+00
2.319820795312356854e+00
2.319820795312356854e+00
2.279132053590502860e+00
2.279132053590502860e+00
2.279132053590502860e+00
2.279132053590502860e+00
2.261694021423993561e+00
2.261694021423993561e+00
2.261694021423993561e+00
2.314383129367961978e+00
2.314383129367961978e+00
2.314383129367961978e+00
2.359572008423108880e+00
2.359572008423108880e+00
2.359572008423108880e+00
2.359572008423108880e+00
2.224755394146549659e+00
2.224755394146549659e+00
2.224755394146549659e+00
2.206754844813379357e+00
2.206754844813379357e+00
2.206754844813379357e+00
2.206754844813379357e+00
2.165878597369304437e+00
2.165878597369304437e+00
2.165878597369304437e+00
2.125564867091891408e+00
2.125564867091891408e+00
2.125564867091891408e+00
2.189504318369090985e+00
2.189504318369090985e+00
2.189504318369090985e+00
2.189504318369090985e+00
2.293194982757042144e+00
2.293194982757042144e+00
2.293194982757042144e+00
2.321508346812341639e+00
2.321508346812341639e+00
2.321508346812341639e+00
2.321508346812341639e+00
2.268444227423932702e+00
2.268444227423932702e+00
2.268444227423932702e+00
2.374572466200750576e+00
2.374572466200750576e+00
2.374572466200750576e+00
2.332196172978911797e+00
2.332196172978911797e+00
2.332196172978911797e+00
2.332196172978911797e+00
2.267506698812830290e+00
2.267506698812830290e+00
2.267506698812830290e+00
2.232818140202032620e+00
2.232818140202032620e+00
2.232818140202032620e+00
2.232818140202032620e+00
2.196067018646809643e+00
2.196067018646809643e+00
2.196067018646809643e+00
2.201129673146763555e+00
2.201129673146763555e+00
2.201129673146763555e+00
2.201129673146763555e+00
2.266006653035065987e+00
2.266006653035065987e+00
2.266006653035065987e+00
2.369509811700796664e+00
2.369509811700796664e+00
2.369509811700796664e+00
2.389385418256172233e+00
2.389385418256172233e+00
2.389385418256172233e+00
2.389385418256172233e+00
2.334446241645558029e+00
2.334446241645558029e+00
2.334446241645558029e+00
2.342321481978820064e+00
2.342321481978820064e+00
2.342321481978820064e+00
2.342321481978820064e+00
2.384135258033997840e+00
2.384135258033997840e+00
2.384135258033997840e+00
2.354509353923154524e+00
2.354509353923154524e+00
2.354509353923154524e+00
2.290194891201513983e+00
2.290194891201513983e+00
2.290194891201513983e+00
2.290194891201513983e+00
2.196442030091250608e+00
2.196442030091250608e+00
2.196442030091250608e+00
2.016436536759544484e+00
2.016436536759544484e+00
2.016436536759544484e+00
2.016436536759544484e+00
2.141315347758415477e+00
2.141315347758415477e+00
2.141315347758415477e+00
2.110376903592028786e+00
2.110376903592028786e+00
2.110376903592028786e+00
2.110376903592028786e+00
2.083751091036713632e+00
2.083751091036713632e+00
2.083751091036713632e+00
2.212380016479995160e+00
2.212380016479995160e+00
2.212380016479995160e+00
2.400260750144962874e+00
2.400260750144962874e+00
2.400260750144962874e+00
2.400260750144962874e+00
2.422948942533646566e+00
2.422948942533646566e+00
2.422948942533646566e+00
2.346634113589892490e+00
2.346634113589892490e+00
2.346634113589892490e+00
2.346634113589892490e+00
2.367072237311929506e+00
2.367072237311929506e+00
2.367072237311929506e+00
2.363884640034180418e+00
2.363884640034180418e+00
2.363884640034180418e+00
2.363884640034180418e+00
2.307257911923581428e+00
2.307257911923581428e+00
2.307257911923581428e+00
2.321320841090121156e+00
2.321320841090121156e+00
2.321320841090121156e+00
2.257568895535142062e+00
2.257568895535142062e+00
2.257568895535142062e+00
2.212005005035553751e+00
2.212005005035553751e+00
2.212005005035553751e+00
2.212005005035553751e+00
2.146940519425031280e+00
2.146940519425031280e+00
2.146940519425031280e+00
2.038562211981566730e+00
2.038562211981566730e+00
2.038562211981566730e+00
2.038562211981566730e+00
2.093313882869960452e+00
2.093313882869960452e+00
2.093313882869960452e+00
2.261881527146214044e+00
2.261881527146214044e+00
2.261881527146214044e+00
2.227005462813196335e+00
2.227005462813196335e+00
2.227005462813196335e+00
2.227005462813196335e+00
2.195692007202368234e+00
2.195692007202368234e+00
2.195692007202368234e+00
2.263194067201757864e+00
2.263194067201757864e+00
2.263194067201757864e+00
2.263194067201757864e+00
2.350946745200964472e+00
2.350946745200964472e+00
2.350946745200964472e+00
2.377947569200720146e+00
2.377947569200720146e+00
2.377947569200720146e+00
2.377947569200720146e+00
2.385822809533982625e+00
2.385822809533982625e+00
2.385822809533982625e+00
2.363884640034180418e+00
2.363884640034180418e+00
2.363884640034180418e+00
2.368197271645252844e+00
2.368197271645252844e+00
2.368197271645252844e+00
2.368197271645252844e+00
2.376260017700735361e+00
2.376260017700735361e+00
2.376260017700735361e+00
2.413011139255958781e+00
2.413011139255958781e+00
2.413011139255958781e+00
2.413011139255958781e+00
2.274256904812768987e+00
2.274256904812768987e+00
2.274256904812768987e+00
2.260568987090670667e+00
2.260568987090670667e+00
2.260568987090670667e+00
2.238630817590868904e+00
2.238630817590868904e+00
2.238630817590868904e+00
2.238630817590868904e+00
2.225130405590991067e+00
2.225130405590991067e+00
2.225130405590991067e+00
2.159503402813806705e+00
2.159503402813806705e+00
2.159503402813806705e+00
2.159503402813806705e+00
2.334633747367778511e+00
2.334633747367778511e+00
2.334633747367778511e+00
2.302382763145847999e+00
2.302382763145847999e+00
2.302382763145847999e+00
2.218380199591051927e+00
2.218380199591051927e+00
2.218380199591051927e+00
2.218380199591051927e+00
2.150503128147221332e+00
2.150503128147221332e+00
2.150503128147221332e+00
2.170753746147038310e+00
2.170753746147038310e+00
2.170753746147038310e+00
2.170753746147038310e+00
2.401198278756065729e+00
2.401198278756065729e+00
2.401198278756065729e+00
2.487263405255287552e+00
2.487263405255287552e+00
2.487263405255287552e+00
2.487263405255287552e+00
2.328071047090059853e+00
2.328071047090059853e+00
2.328071047090059853e+00
2.127627430036317158e+00
2.127627430036317158e+00
2.127627430036317158e+00
1.885182531205175982e+00
1.885182531205175982e+00
1.885182531205175982e+00
1.885182531205175982e+00
2.006873744926298109e+00
2.006873744926298109e+00
2.006873744926298109e+00
2.111501937925351680e+00
2.111501937925351680e+00
2.111501937925351680e+00
2.232818140202032620e+00
2.232818140202032620e+00
2.370259834589678594e+00
2.453137363811151772e+00
2.453137363811151772e+00
2.460262581255531433e+00
2.460262581255531433e+00
2.452949858088931290e+00
2.465512741477706271e+00
2.465512741477706271e+00
2.433636768700216724e+00
2.433636768700216724e+00
2.335383770256660885e+00
2.248381115146336207e+00
2.248381115146336207e+00
2.161003448591571008e+00
2.120314706869716570e+00
2.120314706869716570e+00
2.010998870815149164e+00
2.010998870815149164e+00
1.857619190038758417e+00
1.875432233649708458e+00
1.875432233649708458e+00
2.231505600146489243e+00
2.231505600146489243e+00
2.407198461867122496e+00
2.406823450422681532e+00
2.406823450422681532e+00
2.459887569811090469e+00
2.459887569811090469e+00
2.391447981200597983e+00
2.345321573534348669e+00
2.345321573534348669e+00
2.322633381145664977e+00
2.322633381145664977e+00
2.371009857478560967e+00
2.334258735923337547e+00
2.334258735923337547e+00
2.317570726645710621e+00
2.303882808923612302e+00
2.303882808923612302e+00
2.261881527146214044e+00
2.261881527146214044e+00
2.248568620868556689e+00
2.278194524979400004e+00
2.278194524979400004e+00
2.149753105258339403e+00
2.149753105258339403e+00
2.182754112369151844e+00
2.258506424146244473e+00
2.258506424146244473e+00
2.246131046479689974e+00
2.246131046479689974e+00
2.370634846034120002e+00
2.413573656422620228e+00
2.413573656422620228e+00
2.468137821588793912e+00
2.468137821588793912e+00
2.345884090701010116e+00
2.236193243202001746e+00
2.236193243202001746e+00
2.190816858424634361e+00
2.190816858424634361e+00
2.142252876369517889e+00
2.034437086092715230e+00
2.034437086092715230e+00
2.035374614703817642e+00
2.011748893704031538e+00
2.011748893704031538e+00
2.263006561479537382e+00
2.263006561479537382e+00
2.559828119754631537e+00
2.608767113254188974e+00
2.608767113254188974e+00
2.537327433088168327e+00
2.537327433088168327e+00
2.402698324533829588e+00
2.265069124423963132e+00
2.265069124423963132e+00
2.155003265480513797e+00
2.155003265480513797e+00
2.118064638203069894e+00
2.016999053926206376e+00
2.016999053926206376e+00
2.062000427259132795e+00
2.201504684591204519e+00
2.201504684591204519e+00
2.245193517868587563e+00
2.245193517868587563e+00
2.319633289590136371e+00
2.359009491256446989e+00
2.359009491256446989e+00
2.354696859645375007e+00
2.354696859645375007e+00
2.343821527756584366e+00
2.325445966978973100e+00
2.325445966978973100e+00
2.271256813257240381e+00
2.353759331034272151e+00
2.353759331034272151e+00
2.340446424756614796e+00
2.340446424756614796e+00
2.286632282479323930e+00
2.300132694479201767e+00
2.300132694479201767e+00
2.450887295144505096e+00
2.450887295144505096e+00
2.386197820978423145e+00
2.380572649311807787e+00
2.380572649311807787e+00
2.294507522812585520e+00
2.294507522812585520e+00
2.046999969481490211e+00
1.982498001037629409e+00
1.982498001037629409e+00
2.101564134647663895e+00
2.101564134647663895e+00
2.156128299813837135e+00
2.260943998535111632e+00
2.260943998535111632e+00
2.241068391979735619e+00
2.241068391979735619e+00
2.263756584368419311e+00
2.286257271034882521e+00
2.286257271034882521e+00
2.215567613757744247e+00
2.173378826258125951e+00
2.173378826258125951e+00
2.278194524979400004e+00
2.278194524979400004e+00
2.392948026978362286e+00
2.245381023590808045e+00
2.245381023590808045e+00
2.170566240424817828e+00
2.170566240424817828e+00
2.210129947813348927e+00
2.249318643757439062e+00
2.249318643757439062e+00
2.495138645588549586e+00
2.495138645588549586e+00
2.466262764366588645e+00
2.287569811090426342e+00
2.287569811090426342e+00
2.249506149479659545e+00
2.260943998535111632e+00
2.260943998535111632e+00
2.272756859035004684e+00
2.272756859035004684e+00
2.276881984923856628e+00
2.281007110812707683e+00
2.281007110812707683e+00
2.238255806146427940e+00
2.238255806146427940e+00
2.181629078035828950e+00
2.225317911313211550e+00
2.225317911313211550e+00
2.235255714590899334e+00
2.235255714590899334e+00
2.312508072145756710e+00
2.443199560533463544e+00
2.443199560533463544e+00
2.422198919644764192e+00
2.452387340922269399e+00
2.452387340922269399e+00
2.319633289590136371e+00
2.319633289590136371e+00
2.158190862758262885e+00
2.161003448591571008e+00
2.161003448591571008e+00
2.186504226813562823e+00
2.186504226813562823e+00
2.156315805536057617e+00
2.156315805536057617e+00
2.156315805536057617e+00
2.057687795648060813e+00
2.057687795648060813e+00
2.046062440870388244e+00
2.237880794701986531e+00
2.237880794701986531e+00
2.347759147923215384e+00
2.347759147923215384e+00
2.412261116367076408e+00
2.468325327311013950e+00
2.468325327311013950e+00
2.513514206366161297e+00
2.513514206366161297e+00
2.392573015533921321e+00
2.247443586535233351e+00
2.247443586535233351e+00
2.203004730368968822e+00
2.241068391979735619e+00
2.241068391979735619e+00
2.191941892757957699e+00
2.191941892757957699e+00
2.159690908536027187e+00
2.245193517868587563e+00
2.245193517868587563e+00
2.222317819757682944e+00
2.222317819757682944e+00
2.260381481368449741e+00
2.270506790368358452e+00
2.270506790368358452e+00
2.287569811090426342e+00
2.287569811090426342e+00
2.427636585589159957e+00
2.509576586199530279e+00
2.509576586199530279e+00
2.477513107699820250e+00
2.477513107699820250e+00
2.325258461256752618e+00
2.222130314035462462e+00
2.222130314035462462e+00
2.155190771202734279e+00
2.151065645313883223e+00
2.151065645313883223e+00
2.074750816370128703e+00
2.077563402203436382e+00
2.077563402203436382e+00
2.144315439313944083e+00
2.144315439313944083e+00
2.214255073702200427e+00
2.215192602313302839e+00
2.215192602313302839e+00
2.292444959868159771e+00
2.292444959868159771e+00
2.318883266701254442e+00
2.338008850367748082e+00
2.338008850367748082e+00
2.341383953367717208e+00
2.319258278145695407e+00
2.319258278145695407e+00
2.203192236091189304e+00
2.203192236091189304e+00
2.297695120090334608e+00
2.319070772423474924e+00
2.319070772423474924e+00
2.300695211645863214e+00
2.300695211645863214e+00
2.190629352702413879e+00
2.112064455092013571e+00
2.112064455092013571e+00
2.125189855647450443e+00
2.125189855647450443e+00
2.122752281258583285e+00
2.174878872035889810e+00
2.174878872035889810e+00
2.258881435590685438e+00
2.271444318979460864e+00
2.271444318979460864e+00
2.293007477034821662e+00
2.293007477034821662e+00
2.373634937589648164e+00
2.275381939146092325e+00
2.275381939146092325e+00
2.344571550645466296e+00
2.344571550645466296e+00
2.366134708700827094e+00
2.192691915646840073e+00
2.192691915646840073e+00
2.124814844203009478e+00
2.124814844203009478e+00
1.955309671315652809e+00
2.070813196203497242e+00
2.070813196203497242e+00
2.302945280312509890e+00
2.322820886867885459e+00
2.322820886867885459e+00
2.322445875423444495e+00
2.322445875423444495e+00
2.205442304757835537e+00
2.144877956480605530e+00
2.144877956480605530e+00
2.017936582537308787e+00
2.017936582537308787e+00
2.152003173924985191e+00
2.294320017090365038e+00
2.294320017090365038e+00
2.218192693868831444e+00
2.218192693868831444e+00
2.244818506424146598e+00
2.148253059480575100e+00
2.148253059480575100e+00
1.893432782982879203e+00
2.204692281868953607e+00
2.204692281868953607e+00
2.446762169255653596e+00
2.446762169255653596e+00
2.516514297921689458e+00
2.410573564867091623e+00
2.410573564867091623e+00
2.337633838923307117e+00
2.337633838923307117e+00
2.309695486312448587e+00
2.143377910702841227e+00
2.143377910702841227e+00
2.067813104647969080e+00
2.067813104647969080e+00
2.238068300424207457e+00
2.237880794701986531e+00
2.237880794701986531e+00
2.197567064424573946e+00
2.316258186590166801e+00
2.316258186590166801e+00
2.319445783867915889e+00
2.319445783867915889e+00
2.257568895535142062e+00
2.238630817590868904e+00
2.238630817590868904e+00
2.214817590868861874e+00
2.214817590868861874e+00
2.150315622425000850e+00
2.117314615314187964e+00
2.117314615314187964e+00
2.277819513534959039e+00
2.277819513534959039e+00
2.269569261757255596e+00
2.323758415478988315e+00
2.323758415478988315e+00
2.407198461867122496e+00
2.407198461867122496e+00
2.276131962034974254e+00
2.317383220923490139e+00
2.317383220923490139e+00
2.336883816034425188e+00
2.351321756645405436e+00
2.351321756645405436e+00
2.256443861201819168e+00
2.256443861201819168e+00
2.312695577867977192e+00
2.262631550035096417e+00
2.262631550035096417e+00
2.259631458479567812e+00
2.259631458479567812e+00
2.285507248146000592e+00
2.451262306588946061e+00
2.451262306588946061e+00
2.260193975646229259e+00
2.260193975646229259e+00
2.118439649647511303e+00
2.172441297647023095e+00
2.172441297647023095e+00
2.165128574480422063e+00
2.197567064424573946e+00
2.197567064424573946e+00
2.205442304757835537e+00
2.205442304757835537e+00
2.123689809869686140e+00
2.245006012146367080e+00
2.245006012146367080e+00
2.393510544145024177e+00
2.393510544145024177e+00
2.416573747978148834e+00
2.412073610644855925e+00
2.412073610644855925e+00
2.204504776146733125e+00
2.032374523148289480e+00
2.032374523148289480e+00
1.958309762871181414e+00
1.958309762871181414e+00
2.118064638203069894e+00
2.406073427533799602e+00
2.406073427533799602e+00
2.405698416089358194e+00
2.405698416089358194e+00
2.395385601367229444e+00
2.367072237311929506e+00
2.367072237311929506e+00
2.329008575701162709e+00
2.329008575701162709e+00
2.311008026367992407e+00
2.279132053590502860e+00
2.279132053590502860e+00
2.192504409924619146e+00
2.192504409924619146e+00
2.153690725424969976e+00
2.339883907589953349e+00
2.339883907589953349e+00
2.421073885311441742e+00
2.421073885311441742e+00
2.398198187200537124e+00
2.234318185979796478e+00
2.234318185979796478e+00
1.936934110538041542e+00
2.044187383648182976e+00
2.044187383648182976e+00
2.361447065645314147e+00
2.361447065645314147e+00
2.366509720145268059e+00
2.200942167424543072e+00
2.200942167424543072e+00
2.169816217535935454e+00
2.169816217535935454e+00
2.230380565813165905e+00
2.375885006256294396e+00
2.375885006256294396e+00
2.327508529923398850e+00
2.327508529923398850e+00
2.259443952757347329e+00
2.188004272591326682e+00
2.188004272591326682e+00
2.141877864925076924e+00
2.141877864925076924e+00
2.138502761925107798e+00
2.216505142368846659e+00
2.216505142368846659e+00
2.339696401867732423e+00
2.472262947477644968e+00
2.472262947477644968e+00
2.503013885921811621e+00
2.503013885921811621e+00
2.447324686422315043e+00
2.334821253089998994e+00
2.334821253089998994e+00
2.281007110812707683e+00
2.281007110812707683e+00
2.153503219702749494e+00
2.223067842646564873e+00
2.223067842646564873e+00
2.250068666646320992e+00
2.145252967925046494e+00
2.145252967925046494e+00
2.178628986480300345e+00
2.178628986480300345e+00
2.222130314035462462e+00
2.242193426313058957e+00
2.242193426313058957e+00
2.240693380535294654e+00
2.240693380535294654e+00
2.242380932035279439e+00
2.309132969145787140e+00
2.309132969145787140e+00
2.376260017700735361e+00
2.376260017700735361e+00
2.362759605700857524e+00
2.235068208868678852e+00
2.235068208868678852e+00
2.248193609424115724e+00
2.248193609424115724e+00
2.268444227423932702e+00
2.136440198980682048e+00
2.136440198980682048e+00
2.019811639759514499e+00
2.112251960814234053e+00
2.112251960814234053e+00
2.234693197424237443e+00
2.234693197424237443e+00
2.323383404034546906e+00
2.342696493423261028e+00
2.342696493423261028e+00
2.519139378032776655e+00
2.519139378032776655e+00
2.455199926755577522e+00
2.337821344645527599e+00
2.337821344645527599e+00
2.193066927091281038e+00
2.193066927091281038e+00
2.186129215369121415e+00
2.296007568590349823e+00
2.296007568590349823e+00
2.306320383312479017e+00
2.339133884701071420e+00
2.339133884701071420e+00
2.361259559923093665e+00
2.361259559923093665e+00
2.277069490646077110e+00
2.257568895535142062e+00
2.257568895535142062e+00
2.186316721091342341e+00
2.186316721091342341e+00
2.047937498092593067e+00
2.191004364146854844e+00
2.191004364146854844e+00
2.380572649311807787e+00
2.380572649311807787e+00
2.399698232978301426e+00
2.318133243812372069e+00
2.318133243812372069e+00
2.315133152256843907e+00
2.333508713034455617e+00
2.333508713034455617e+00
2.304257820368053267e+00
2.304257820368053267e+00
2.529264687032685366e+00
2.513701712088381779e+00
2.513701712088381779e+00
2.251381206701864812e+00
2.251381206701864812e+00
2.130627521591845319e+00
2.104564226203192501e+00
2.104564226203192501e+00
1.904870632038331291e+00
2.146940519425031280e+00
2.146940519425031280e+00
2.363697134311959935e+00
2.363697134311959935e+00
2.391072969756157018e+00
2.441512009033478758e+00
2.441512009033478758e+00
2.342508987701040546e+00
2.342508987701040546e+00
2.240505874813074172e+00
2.119939695425275605e+00
2.119939695425275605e+00
2.068750633259071936e+00
2.068750633259071936e+00
2.078500930814539238e+00
2.139627796258431136e+00
2.139627796258431136e+00
2.227755485702078264e+00
2.227755485702078264e+00
2.265069124423963132e+00
2.263381572923978347e+00
2.263381572923978347e+00
2.305195348979155678e+00
2.114502029480880285e+00
2.114502029480880285e+00
2.165691091647083955e+00
2.165691091647083955e+00
2.545577684865871326e+00
2.558140568254646752e+00
2.558140568254646752e+00
2.369509811700796664e+00
2.369509811700796664e+00
2.184441663869136629e+00
2.230193060090945423e+00
2.230193060090945423e+00
2.421261391033662225e+00
2.421261391033662225e+00
2.377760063478499664e+00
2.274819421979430434e+00
2.274819421979430434e+00
2.182004089480269915e+00
2.182004089480269915e+00
2.256818872646260132e+00
2.121252235480818982e+00
2.121252235480818982e+00
2.190629352702413879e+00
2.190629352702413879e+00
2.171503769035920239e+00
2.167003631702627775e+00
2.167003631702627775e+00
2.394635578478347071e+00
2.451074800866725578e+00
2.451074800866725578e+00
2.467950315866573430e+00
2.467950315866573430e+00
2.490263496810816157e+00
2.357696951200903612e+00
2.357696951200903612e+00
2.249131138035218136e+00
2.249131138035218136e+00
2.107939329203161627e+00
2.186129215369121415e+00
2.186129215369121415e+00
2.196067018646809643e+00
2.196067018646809643e+00
2.132690084536271069e+00
2.074000793481246330e+00
2.074000793481246330e+00
2.108314340647602592e+00
2.108314340647602592e+00
2.310633014923550999e+00
2.570140934476760286e+00
2.570140934476760286e+00
2.594329172643208281e+00
2.482763267921994643e+00
2.482763267921994643e+00
2.292444959868159771e+00
2.292444959868159771e+00
2.103439191869869163e+00
2.055250221259193655e+00
2.055250221259193655e+00
2.047374980925931620e+00
2.047374980925931620e+00
2.064062990203558545e+00
2.110376903592028786e+00
2.110376903592028786e+00
2.202817224646748340e+00
2.275569444868312807e+00
2.275569444868312807e+00
2.303132786034730373e+00
2.303132786034730373e+00
2.293382488479262626e+00
2.377010040589617734e+00
2.377010040589617734e+00
2.481825739310891787e+00
2.481825739310891787e+00
2.507139011810663121e+00
2.393698049867244659e+00
2.393698049867244659e+00
2.338196356089969008e+00
2.338196356089969008e+00
2.124627338480788552e+00
2.085438642536698417e+00
2.085438642536698417e+00
2.096126468703268575e+00
2.096126468703268575e+00
2.156878322702719064e+00
2.304632831812494231e+00
2.304632831812494231e+00
2.327133518478957885e+00
2.200192144535660699e+00
2.200192144535660699e+00
2.306132877590258534e+00
2.306132877590258534e+00
2.447699697866756008e+00
2.476575579088717394e+00
2.476575579088717394e+00
2.358634479812006024e+00
2.358634479812006024e+00
2.131752555925168657e+00
1.992248298593096711e+00
1.992248298593096711e+00
2.142252876369517889e+00
2.142252876369517889e+00
2.236005737479781263e+00
2.303507797479171337e+00
2.303507797479171337e+00
2.373072420422986717e+00
2.373072420422986717e+00
2.304070314645832784e+00
2.277256996368297592e+00
2.277256996368297592e+00
2.262256538590655452e+00
2.192504409924619146e+00
2.192504409924619146e+00
2.206567339091158875e+00
2.200754661702322146e+00
2.261694021423993561e+00
2.261694021423993561e+00
2.311195532090212890e+00
2.311195532090212890e+00
2.374572466200750576e+00
2.289069856868190644e+00
2.289069856868190644e+00
2.307445417645802355e+00
2.307445417645802355e+00
2.228505508590960638e+00
2.265444135868404540e+00
2.265444135868404540e+00
2.307632923368022837e+00
2.307632923368022837e+00
2.294320017090365038e+00
2.234130680257575996e+00
2.234130680257575996e+00
2.141315347758415477e+00
2.016436536759544484e+00
2.016436536759544484e+00
2.148253059480575100e+00
2.148253059480575100e+00
2.242380932035279439e+00
2.404760887478255782e+00
2.404760887478255782e+00
2.427261574144718992e+00
2.427261574144718992e+00
2.340446424756614796e+00
2.221005279702139568e+00
2.221005279702139568e+00
2.207879879146702695e+00
2.207879879146702695e+00
2.264694112979522167e+00
2.340258919034394314e+00
2.340258919034394314e+00
2.350196722312082542e+00
2.350196722312082542e+00
2.259818964201788294e+00
2.188191778313547164e+00
2.188191778313547164e+00
2.100064088869899592e+00
2.188754295480208611e+00
2.188754295480208611e+00
2.219880245368816230e+00
2.219880245368816230e+00
2.290757408368175430e+00
2.385447798089541660e+00
2.385447798089541660e+00
2.493826105533005766e+00
2.493826105533005766e+00
2.388447889645069822e+00
2.296195074312570750e+00
2.296195074312570750e+00
2.240505874813074172e+00
2.075125827814569668e+00
2.075125827814569668e+00
2.022436719870601696e+00
2.141315347758415477e+00
2.141315347758415477e+00
2.404760887478255782e+00
2.404760887478255782e+00
2.543890133365886541e+00
2.437386883144627259e+00
2.437386883144627259e+00
2.306882900479140464e+00
2.306882900479140464e+00
2.176378917813653668e+00
2.149565599536118921e+00
2.149565599536118921e+00
2.182379100924710880e+00
2.331446150090029423e+00
2.331446150090029423e+00
2.330883632923367976e+00
2.330883632923367976e+00
2.186879238258003344e+00
2.033312051759392336e+00
2.033312051759392336e+00
2.118627155369731785e+00
2.118627155369731785e+00
2.287194799645985377e+00
2.341196447645496725e+00
2.341196447645496725e+00
2.254756309701834383e+00
2.264506607257301685e+00
2.264506607257301685e+00
2.212005005035553751e+00
2.212005005035553751e+00
2.190441846980193397e+00
2.240880886257515137e+00
2.240880886257515137e+00
2.352071779534287366e+00
2.352071779534287366e+00
2.397448164311655194e+00
2.387322855311746483e+00
2.387322855311746483e+00
2.353571825312051669e+00
2.353571825312051669e+00
2.311008026367992407e+00
2.260756492812891150e+00
2.260756492812891150e+00
2.278569536423841413e+00
2.288694845423749680e+00
2.288694845423749680e+00
2.185004181035798521e+00
2.185004181035798521e+00
2.205629810480056463e+00
2.258131412701803509e+00
2.258131412701803509e+00
2.199254615924558287e+00
2.199254615924558287e+00
2.247443586535233351e+00
2.279694570757164307e+00
2.279694570757164307e+00
2.164191045869319652e+00
2.164191045869319652e+00
2.038562211981566730e+00
2.174316354869228363e+00
2.174316354869228363e+00
2.439074434644612044e+00
2.439074434644612044e+00
2.413011139255958781e+00
2.397260658589434712e+00
2.397260658589434712e+00
2.420323862422559369e+00
2.343071504867702437e+00
2.343071504867702437e+00
2.263756584368419311e+00
2.263756584368419311e+00
2.106814294869838289e+00
2.080000976592303541e+00
2.080000976592303541e+00
2.170003723258155937e+00
2.313445600756859122e+00
2.313445600756859122e+00
2.334258735923337547e+00
2.334258735923337547e+00
2.338571367534409973e+00
2.251381206701864812e+00
2.251381206701864812e+00
2.121252235480818982e+00
2.247631092257453833e+00
2.247631092257453833e+00
2.274631916257209951e+00
2.274631916257209951e+00
2.302757774590289408e+00
2.346821619312112972e+00
2.346821619312112972e+00
2.277444502090518075e+00
2.277444502090518075e+00
2.245193517868587563e+00
2.242943449201941331e+00
2.242943449201941331e+00
2.242755943479720404e+00
2.242755943479720404e+00
2.186316721091342341e+00
2.051500106814783120e+00
2.051500106814783120e+00
2.158565874202703849e+00
2.382072695089572090e+00
2.382072695089572090e+00
2.446574663533433114e+00
2.446574663533433114e+00
2.470950407422101591e+00
2.448074709311197417e+00
2.448074709311197417e+00
2.502263863032929692e+00
2.502263863032929692e+00
2.403260841700491479e+00
2.245568529313028083e+00
2.245568529313028083e+00
2.108126834925382109e+00
2.108126834925382109e+00
1.982685506759849892e+00
2.002561113315225683e+00
2.002561113315225683e+00
2.019811639759514499e+00
2.151815668202764709e+00
2.151815668202764709e+00
2.309695486312448587e+00
2.309695486312448587e+00
2.359196996978667915e+00
2.381510177922910199e+00
2.381510177922910199e+00
2.381510177922910199e+00
2.381510177922910199e+00
2.372697408978545752e+00
2.294320017090365038e+00
2.294320017090365038e+00
2.294695028534806447e+00
2.294695028534806447e+00
2.273319376201666131e+00
2.171316263313699757e+00
2.171316263313699757e+00
2.226255439924313961e+00
2.231505600146489243e+00
2.231505600146489243e+00
2.235630726035340299e+00
2.222880336924344391e+00
2.222880336924344391e+00
2.240505874813074172e+00
2.240505874813074172e+00
2.254943815424054865e+00
2.345884090701010116e+00
2.345884090701010116e+00
2.454824915311136557e+00
2.454824915311136557e+00
2.327696035645618888e+00
2.265256630146183614e+00
2.265256630146183614e+00
2.131940061647389140e+00
2.251381206701864812e+00
2.251381206701864812e+00
2.369134800256355700e+00
2.369134800256355700e+00
2.377947569200720146e+00
2.278194524979400004e+00
2.278194524979400004e+00
2.213505050813318054e+00
2.213505050813318054e+00
2.147503036591693171e+00
2.128377452925199087e+00
2.128377452925199087e+00
2.114127018036439321e+00
2.114127018036439321e+00
2.087126194036683202e+00
2.276319467757194737e+00
2.276319467757194737e+00
2.392198004089480357e+00
2.392198004089480357e+00
2.363134617145298488e+00
2.232818140202032620e+00
2.232818140202032620e+00
2.297507614368114126e+00
2.336883816034425188e+00
2.336883816034425188e+00
2.335946287423322332e+00
2.335946287423322332e+00
2.247818597979674760e+00
2.192691915646840073e+00
2.192691915646840073e+00
2.234693197424237443e+00
2.234693197424237443e+00
2.232068117313150690e+00
2.244818506424146598e+00
2.244818506424146598e+00
2.303507797479171337e+00
2.303507797479171337e+00
2.323758415478988315e+00
2.341196447645496725e+00
2.341196447645496725e+00
2.333883724478896582e+00
2.333883724478896582e+00
2.381135166478469234e+00
2.363884640034180418e+00
2.363884640034180418e+00
2.381322672200689716e+00
2.381322672200689716e+00
2.321320841090121156e+00
2.206942350535599839e+00
2.206942350535599839e+00
2.197754570146794428e+00
2.215567613757744247e+00
2.215567613757744247e+00
2.201504684591204519e+00
2.201504684591204519e+00
2.076063356425672080e+00
2.091813837092196593e+00
2.091813837092196593e+00
2.140190313425092139e+00
2.211629993591112786e+00
2.211629993591112786e+00
2.302195257423627517e+00
2.302195257423627517e+00
2.258131412701803509e+00
2.264881618701742649e+00
2.264881618701742649e+00
2.356009399700918827e+00
2.356009399700918827e+00
2.346259102145451525e+00
2.308382946256904766e+00
2.308382946256904766e+00
2.272756859035004684e+00
2.272756859035004684e+00
2.219130222479934300e+00
2.297132602923673161e+00
2.297132602923673161e+00
2.224755394146549659e+00
2.224755394146549659e+00
2.103439191869869163e+00
2.214067567979979945e+00
2.214067567979979945e+00
2.284944730979339145e+00
2.284944730979339145e+00
2.339508896145511940e+00
2.395010589922788480e+00
2.395010589922788480e+00
2.376635029145176325e+00
2.341196447645496725e+00
2.341196447645496725e+00
2.327508529923398850e+00
2.327508529923398850e+00
2.266756675923947917e+00
2.248756126590777171e+00
2.248756126590777171e+00
2.224755394146549659e+00
2.224755394146549659e+00
2.179754020813623683e+00
2.216880153813287624e+00
2.216880153813287624e+00
2.195129490035706787e+00
2.195129490035706787e+00
2.263569078646198829e+00
2.300132694479201767e+00
2.300132694479201767e+00
2.311758049256874337e+00
2.205817316202276945e+00
2.205817316202276945e+00
2.219505233924375265e+00
2.219505233924375265e+00
2.298820154423657947e+00
2.296195074312570750e+00
2.296195074312570750e+00
2.323195898312326424e+00
2.323195898312326424e+00
2.296570085757011714e+00
2.289632374034852091e+00
2.289632374034852091e+00
2.262819055757316900e+00
2.262819055757316900e+00
2.207879879146702695e+00
2.171503769035920239e+00
2.171503769035920239e+00
2.037624683370464318e+00
2.169441206091494490e+00
2.169441206091494490e+00
2.310070497756889552e+00
2.310070497756889552e+00
2.431011688589129527e+00
2.462512649922177665e+00
2.462512649922177665e+00
2.421823908200323228e+00
2.421823908200323228e+00
2.358634479812006024e+00
2.285319742423780109e+00
2.285319742423780109e+00
2.199254615924558287e+00
2.199254615924558287e+00
2.176941434980315559e+00
2.217067659535508550e+00
2.217067659535508550e+00
2.184441663869136629e+00
2.166441114535965884e+00
2.166441114535965884e+00
2.075688344981231115e+00
2.075688344981231115e+00
2.140002807702871657e+00
2.244631000701926116e+00
2.244631000701926116e+00
2.337446333201086635e+00
2.337446333201086635e+00
2.440199468977935382e+00
2.458950041199987613e+00
2.458950041199987613e+00
2.440949491866817311e+00
2.440949491866817311e+00
2.191191869869075770e+00
2.222880336924344391e+00
2.222880336924344391e+00
2.261506515701773079e+00
2.261506515701773079e+00
2.279507065034943825e+00
2.294507522812585520e+00
2.294507522812585520e+00
2.277256996368297592e+00
2.277256996368297592e+00
2.224567888424329176e+00
2.204317270424512643e+00
2.204317270424512643e+00
2.175628894924771739e+00
2.155753288369396170e+00
2.155753288369396170e+00
2.193816949980162967e+00
2.193816949980162967e+00
2.359947019867549844e+00
2.424073976866969904e+00
2.424073976866969904e+00
2.410198553422650658e+00
2.410198553422650658e+00
2.337821344645527599e+00
2.293757499923703591e+00
2.293757499923703591e+00
2.301632740256966070e+00
2.301632740256966070e+00
2.270694296090578934e+00
2.245756035035248566e+00
2.245756035035248566e+00
2.121439741203039464e+00
2.061437910092470904e+00
2.061437910092470904e+00
2.083188573870052185e+00
2.208254890591143660e+00
2.208254890591143660e+00
2.311008026367992407e+00
2.332946195867793726e+00
2.332946195867793726e+00
2.377385052034058699e+00
2.370072328867458111e+00
2.370072328867458111e+00
2.332008667256691314e+00
2.332008667256691314e+00
2.222692831202123909e+00
2.179941526535844165e+00
2.179941526535844165e+00
2.174128849147007880e+00
2.174128849147007880e+00
2.293382488479262626e+00
2.366322214423047576e+00
2.366322214423047576e+00
2.272381847590563719e+00
2.171316263313699757e+00
2.171316263313699757e+00
2.244068483535264225e+00
2.244068483535264225e+00
2.299007660145878429e+00
2.304257820368053267e+00
2.304257820368053267e+00
2.267506698812830290e+00
2.267506698812830290e+00
2.381510177922910199e+00
2.403448347422711961e+00
2.403448347422711961e+00
2.281757133701590057e+00
2.281757133701590057e+00
2.253631275368511044e+00
2.212005005035553751e+00
2.212005005035553751e+00
2.173753837702566916e+00
2.169441206091494490e+00
2.169441206091494490e+00
2.173753837702566916e+00
2.173753837702566916e+00
2.161003448591571008e+00
2.165316080202642990e+00
2.165316080202642990e+00
2.175066377758110736e+00
2.175066377758110736e+00
2.249506149479659545e+00
2.291319925534837321e+00
2.291319925534837321e+00
2.364259651478621826e+00
2.364259651478621826e+00
2.400073244422742391e+00
2.408511001922666317e+00
2.408511001922666317e+00
2.382447706534013054e+00
2.322258369701224012e+00
2.322258369701224012e+00
2.276131962034974254e+00
2.276131962034974254e+00
2.262631550035096417e+00
2.137752739036225869e+00
2.137752739036225869e+00
2.147878048036134135e+00
2.189504318369090985e+00
2.189504318369090985e+00
2.197192052980132537e+00
2.229068025757622085e+00
2.229068025757622085e+00
2.306695394756919981e+00
2.306695394756919981e+00
2.376072511978514878e+00
2.365009674367503756e+00
2.365009674367503756e+00
2.273319376201666131e+00
2.273319376201666131e+00
2.236755760368663637e+00
2.305570360423596643e+00
2.305570360423596643e+00
2.317195715201269657e+00
2.317195715201269657e+00
2.267694204535050773e+00
2.311758049256874337e+00
2.311758049256874337e+00
2.290007385479293500e+00
2.280444593646046680e+00
2.280444593646046680e+00
2.181629078035828950e+00
2.181629078035828950e+00
2.084688619647816488e+00
2.208067384868923178e+00
2.208067384868923178e+00
2.240880886257515137e+00
2.240880886257515137e+00
2.319633289590136371e+00
2.406260933256020085e+00
2.406260933256020085e+00
2.419198828089236475e+00
2.419198828089236475e+00
2.343821527756584366e+00
2.216880153813287624e+00
2.216880153813287624e+00
2.200754661702322146e+00
2.137752739036225869e+00
2.137752739036225869e+00
2.140377819147312621e+00
2.140377819147312621e+00
2.147503036591693171e+00
2.255318826868495830e+00
2.255318826868495830e+00
2.272381847590563719e+00
2.272381847590563719e+00
2.280069582201605716e+00
2.282882168034912951e+00
2.282882168034912951e+00
2.379635120700704931e+00
2.379635120700704931e+00
2.412073610644855925e+00
2.434761803033539618e+00
2.434761803033539618e+00
2.346259102145451525e+00
2.346259102145451525e+00
2.209004913480026033e+00
2.190629352702413879e+00
2.190629352702413879e+00
2.138877773369548763e+00
2.193629444257942485e+00
2.193629444257942485e+00
2.256068849757378203e+00
2.256068849757378203e+00
2.247068575090792386e+00
2.215005096591082356e+00
2.215005096591082356e+00
2.155565782647175688e+00
2.155565782647175688e+00
2.208254890591143660e+00
2.256631366924039650e+00
2.256631366924039650e+00
2.271444318979460864e+00
2.381510177922910199e+00
2.381510177922910199e+00
2.468512833033234433e+00
2.468512833033234433e+00
2.456699972533341381e+00
2.424073976866969904e+00
2.424073976866969904e+00
2.440011963255714900e+00
2.440011963255714900e+00
2.336321298867763296e+00
2.229818048646504014e+00
2.229818048646504014e+00
2.108501846369823074e+00
2.108501846369823074e+00
2.006686239204077182e+00
1.918933561204870797e+00
1.918933561204870797e+00
1.907120700704977745e+00
1.907120700704977745e+00
2.106814294869838289e+00
2.315695669423505798e+00
2.315695669423505798e+00
2.392198004089480357e+00
2.448637226477858864e+00
2.448637226477858864e+00
2.431761711478011456e+00
2.431761711478011456e+00
2.336321298867763296e+00
2.239005829035309869e+00
2.239005829035309869e+00
2.271069307535019899e+00
2.271069307535019899e+00
2.242380932035279439e+00
2.232255623035371173e+00
2.232255623035371173e+00
2.317945738090151586e+00
2.317945738090151586e+00
2.369509811700796664e+00
2.177878963591417971e+00
2.177878963591417971e+00
2.148065553758354618e+00
2.148065553758354618e+00
2.241255897701956545e+00
2.323570909756767389e+00
2.323570909756767389e+00
2.323008392590105942e+00
2.323008392590105942e+00
2.390697958311716054e+00
2.474700521866512126e+00
2.474700521866512126e+00
2.364447157200842309e+00
2.247443586535233351e+00
2.247443586535233351e+00
2.213880062257759462e+00
2.213880062257759462e+00
2.119939695425275605e+00
2.137940244758446351e+00
2.137940244758446351e+00
2.193629444257942485e+00
2.193629444257942485e+00
2.209567430646687480e+00
2.176753929258095077e+00
2.176753929258095077e+00
2.179003997924741309e+00
2.259631458479567812e+00
2.259631458479567812e+00
2.310445509201330516e+00
2.310445509201330516e+00
2.306695394756919981e+00
2.396510635700552783e+00
2.396510635700552783e+00
2.365197180089724238e+00
2.365197180089724238e+00
2.282694662312692468e+00
2.204879787591174090e+00
2.204879787591174090e+00
2.176566423535874595e+00
2.176566423535874595e+00
2.236380748924222672e+00
2.284944730979339145e+00
2.284944730979339145e+00
2.291694936979278285e+00
2.291694936979278285e+00
2.323008392590105942e+00
2.288882351145970162e+00
2.288882351145970162e+00
2.288507339701529197e+00
2.327696035645618888e+00
2.327696035645618888e+00
2.266006653035065987e+00
2.266006653035065987e+00
2.340633930478835278e+00
2.329383587145603673e+00
2.329383587145603673e+00
2.280819605090487201e+00
2.280819605090487201e+00
2.249693655201880027e+00
2.209567430646687480e+00
2.209567430646687480e+00
2.213505050813318054e+00
2.213505050813318054e+00
2.233005645924253102e+00
2.218755211035493335e+00
2.218755211035493335e+00
2.251006195257423848e+00
2.251006195257423848e+00
2.243693472090823260e+00
2.179003997924741309e+00
2.179003997924741309e+00
2.195129490035706787e+00
2.245381023590808045e+00
2.245381023590808045e+00
2.318508255256813033e+00
2.318508255256813033e+00
2.379260109256263966e+00
2.322633381145664977e+00
2.322633381145664977e+00
2.325070955534531691e+00
2.325070955534531691e+00
2.254756309701834383e+00
2.258881435590685438e+00
2.258881435590685438e+00
2.226442945646534444e+00
2.226442945646534444e+00
2.239568346201971760e+00
2.201129673146763555e+00
2.201129673146763555e+00
2.197004547257912055e+00
2.197004547257912055e+00
2.192504409924619146e+00
2.196067018646809643e+00
2.196067018646809643e+00
2.294507522812585520e+00
2.294507522812585520e+00
2.378510086367381593e+00
2.398760704367198571e+00
2.398760704367198571e+00
2.379822626422925413e+00
2.266944181646168399e+00
2.266944181646168399e+00
2.218567705313272853e+00
2.218567705313272853e+00
2.236005737479781263e+00
2.233943174535355514e+00
2.233943174535355514e+00
2.231693105868709726e+00
2.231693105868709726e+00
2.213880062257759462e+00
2.197379558702353020e+00
2.197379558702353020e+00
2.203754753257850751e+00
2.201504684591204519e+00
2.201504684591204519e+00
2.227005462813196335e+00
2.227005462813196335e+00
2.280069582201605716e+00
2.310258003479110034e+00
2.310258003479110034e+00
2.396885647144993747e+00
2.396885647144993747e+00
2.433449262977995797e+00
2.345321573534348669e+00
2.345321573534348669e+00
2.251568712424085295e+00
2.251568712424085295e+00
2.207692373424482213e+00
2.176753929258095077e+00
2.176753929258095077e+00
2.218192693868831444e+00
2.271069307535019899e+00
2.271069307535019899e+00
2.219692739646595747e+00
2.219692739646595747e+00
2.250068666646320992e+00
2.194566972869045340e+00
2.194566972869045340e+00
2.216505142368846659e+00
2.216505142368846659e+00
2.271256813257240381e+00
2.322258369701224012e+00
2.322258369701224012e+00
2.363884640034180418e+00
2.363884640034180418e+00
2.387135349589526001e+00
2.338758873256630455e+00
2.338758873256630455e+00
2.247068575090792386e+00
2.247068575090792386e+00
2.228693014313181120e+00
2.239755851924192243e+00
2.239755851924192243e+00
2.222317819757682944e+00
2.242943449201941331e+00
2.242943449201941331e+00
2.258131412701803509e+00
2.258131412701803509e+00
2.222880336924344391e+00
2.188004272591326682e+00
2.188004272591326682e+00
2.244443494979705633e+00
2.244443494979705633e+00
2.246506057924130939e+00
2.320195806756797818e+00
2.320195806756797818e+00
2.453512375255592737e+00
2.453512375255592737e+00
2.423323953978087530e+00
2.357884456923124095e+00
2.357884456923124095e+00
2.229255531479842567e+00
2.229255531479842567e+00
2.128189947202978605e+00
2.145252967925046494e+00
2.145252967925046494e+00
2.179003997924741309e+00
2.178441480758079862e+00
2.178441480758079862e+00
2.203192236091189304e+00
2.203192236091189304e+00
2.184066652424695665e+00
2.207504867702261730e+00
2.207504867702261730e+00
2.291132419812616394e+00
2.291132419812616394e+00
2.287757316812646824e+00
2.357509445478682686e+00
2.357509445478682686e+00
2.432511734366893830e+00
2.432511734366893830e+00
2.378885097811823002e+00
2.336321298867763296e+00
2.336321298867763296e+00
2.263569078646198829e+00
2.263569078646198829e+00
2.237880794701986531e+00
2.242568437757499922e+00
2.242568437757499922e+00
2.245568529313028083e+00
2.245568529313028083e+00
2.230755577257606870e+00
2.223442854091006282e+00
2.223442854091006282e+00
2.179191503646961792e+00
2.217255165257729033e+00
2.217255165257729033e+00
2.273506881923887057e+00
2.273506881923887057e+00
2.273881893368328022e+00
2.321695852534562121e+00
2.321695852534562121e+00
2.331071138645588459e+00
2.331071138645588459e+00
2.286257271034882521e+00
2.203379741813409787e+00
2.203379741813409787e+00
2.227192968535416817e+00
2.227192968535416817e+00
2.202629718924527857e+00
2.221942808313242423e+00
2.221942808313242423e+00
2.167003631702627775e+00
2.161940977202673420e+00
2.161940977202673420e+00
2.177316446424756524e+00
2.177316446424756524e+00
2.208817407757805107e+00
2.258318918424023991e+00
2.258318918424023991e+00
2.317008209479048730e+00
2.317008209479048730e+00
2.324883449812311209e+00
2.355259376812036454e+00
2.355259376812036454e+00
2.357509445478682686e+00
2.283444685201574842e+00
2.283444685201574842e+00
2.191004364146854844e+00
2.191004364146854844e+00
2.220630268257698603e+00
2.202629718924527857e+00
2.202629718924527857e+00
2.207504867702261730e+00
2.207504867702261730e+00
2.233568163090914993e+00
2.249318643757439062e+00
2.249318643757439062e+00
2.239380840479750834e+00
2.239380840479750834e+00
2.213692556535538980e+00
2.262256538590655452e+00
2.262256538590655452e+00
2.308382946256904766e+00
2.321133335367900674e+00
2.321133335367900674e+00
2.342133976256599581e+00
2.342133976256599581e+00
2.339321390423291458e+00
2.307820429090243319e+00
2.307820429090243319e+00
2.260756492812891150e+00
2.260756492812891150e+00
2.253068758201849597e+00
2.260568987090670667e+00
2.260568987090670667e+00
2.248756126590777171e+00
2.248756126590777171e+00
2.190816858424634361e+00
2.226630451368755370e+00
2.226630451368755370e+00
2.184254158146916147e+00
2.184254158146916147e+00
2.218005188146610962e+00
2.278944547868282378e+00
2.278944547868282378e+00
2.283069673757133433e+00
2.307257911923581428e+00
2.307257911923581428e+00
2.332946195867793726e+00
2.332946195867793726e+00
2.275381939146092325e+00
2.262631550035096417e+00
2.262631550035096417e+00
2.273506881923887057e+00
2.273506881923887057e+00
2.246506057924130939e+00
2.240505874813074172e+00
2.240505874813074172e+00
2.214442579424420909e+00
2.214442579424420909e+00
2.206192327646717910e+00
2.227192968535416817e+00
2.227192968535416817e+00
2.191379375591296252e+00
2.259631458479567812e+00
2.259631458479567812e+00
2.296382580034791232e+00
2.296382580034791232e+00
2.271069307535019899e+00
2.344009033478804849e+00
2.344009033478804849e+00
2.332383678701132279e+00
2.332383678701132279e+00
2.317758232367931104e+00
2.262256538590655452e+00
2.262256538590655452e+00
2.267131687368389326e+00
2.267131687368389326e+00
2.265444135868404540e+00
2.244255989257484707e+00
2.244255989257484707e+00
2.264319101535081202e+00
2.274444410534989469e+00
2.274444410534989469e+00
2.225692922757652514e+00
2.225692922757652514e+00
2.194004455702383449e+00
2.207879879146702695e+00
2.207879879146702695e+00
2.290194891201513983e+00
2.290194891201513983e+00
2.335008758812219920e+00
2.374009949034089573e+00
2.374009949034089573e+00
2.365759697256386129e+00
2.365759697256386129e+00
2.310070497756889552e+00
2.221755302591021497e+00
2.221755302591021497e+00
2.198129581591235393e+00
2.198129581591235393e+00
2.176003906369212704e+00
2.183879146702475182e+00
2.183879146702475182e+00
2.205629810480056463e+00
2.205629810480056463e+00
2.215942625202185212e+00
2.209379924924466998e+00
2.209379924924466998e+00
2.218942716757713818e+00
2.266006653035065987e+00
2.266006653035065987e+00
2.315320657979064389e+00
2.315320657979064389e+00
2.312320566423536228e+00
2.365009674367503756e+00
2.365009674367503756e+00
2.386760338145085036e+00
2.386760338145085036e+00
2.377385052034058699e+00
2.293757499923703591e+00
2.293757499923703591e+00
2.280257087923826198e+00
2.280257087923826198e+00
2.197379558702353020e+00
2.104001709036531054e+00
2.104001709036531054e+00
2.138690267647328280e+00
2.138690267647328280e+00
2.215755119479964730e+00
2.186691732535783306e+00
2.186691732535783306e+00
2.194004455702383449e+00
2.227380474257637299e+00
2.227380474257637299e+00
2.277819513534959039e+00
2.277819513534959039e+00
2.374759971922971058e+00
2.410573564867091623e+00
2.410573564867091623e+00
2.352634296700948813e+00
2.352634296700948813e+00
2.300695211645863214e+00
2.265256630146183614e+00
2.265256630146183614e+00
2.202442213202307375e+00
2.224567888424329176e+00
2.224567888424329176e+00
2.221567796868801015e+00
2.221567796868801015e+00
2.230380565813165905e+00
2.233568163090914993e+00
2.233568163090914993e+00
2.191379375591296252e+00
2.191379375591296252e+00
2.212567522202215642e+00
2.290382396923734465e+00
2.290382396923734465e+00
2.323570909756767389e+00
2.323570909756767389e+00
2.362947111423078006e+00
2.348321665089877275e+00
2.348321665089877275e+00
2.333883724478896582e+00
2.333883724478896582e+00
2.272006836146122755e+00
2.292444959868159771e+00
2.292444959868159771e+00
2.294320017090365038e+00
2.294320017090365038e+00
2.263756584368419311e+00
2.202629718924527857e+00
2.202629718924527857e+00
2.187254249702444309e+00
2.136065187536240639e+00
2.136065187536240639e+00
2.154253242591631867e+00
2.154253242591631867e+00
2.218755211035493335e+00
2.278757042146061895e+00
2.278757042146061895e+00
2.340821436201055761e+00
2.340821436201055761e+00
2.401198278756065729e+00
2.392010498367259874e+00
2.392010498367259874e+00
2.340633930478835278e+00
2.340633930478835278e+00
2.287382305368205859e+00
2.280444593646046680e+00
2.280444593646046680e+00
2.259443952757347329e+00
2.259443952757347329e+00
2.256631366924039650e+00
2.215005096591082356e+00
2.215005096591082356e+00
2.203192236091189304e+00
2.159878414258247670e+00
2.159878414258247670e+00
2.174503860591448845e+00
2.174503860591448845e+00
2.256443861201819168e+00
2.317570726645710621e+00
2.317570726645710621e+00
2.350946745200964472e+00
2.350946745200964472e+00
2.372697408978545752e+00
2.351696768089846401e+00
2.351696768089846401e+00
2.317383220923490139e+00
2.317383220923490139e+00
2.249881160924100509e+00
2.303507797479171337e+00
2.303507797479171337e+00
2.323383404034546906e+00
2.266756675923947917e+00
2.266756675923947917e+00
2.186879238258003344e+00
2.186879238258003344e+00
2.160065919980468152e+00
2.122752281258583285e+00
2.122752281258583285e+00
2.181816583758049433e+00
2.181816583758049433e+00
2.289632374034852091e+00
2.357321939756462204e+00
2.357321939756462204e+00
2.398573198644978088e+00
2.398573198644978088e+00
2.406260933256020085e+00
2.365572191534165203e+00
2.365572191534165203e+00
2.298257637256996500e+00
2.298257637256996500e+00
2.258131412701803509e+00
2.215567613757744247e+00
2.215567613757744247e+00
2.212192510757774677e+00
2.227380474257637299e+00
2.227380474257637299e+00
2.237318277535325084e+00
2.237318277535325084e+00
2.246693563646351421e+00
2.197942075869014911e+00
2.197942075869014911e+00
2.240880886257515137e+00
2.240880886257515137e+00
2.287757316812646824e+00
2.342133976256599581e+00
2.342133976256599581e+00
2.370259834589678594e+00
2.370259834589678594e+00
2.375885006256294396e+00
2.342696493423261028e+00
2.342696493423261028e+00
2.257381389812921579e+00
2.272756859035004684e+00
2.272756859035004684e+00
2.242193426313058957e+00
2.242193426313058957e+00
2.206379833368938392e+00
2.143002899258400262e+00
2.143002899258400262e+00
2.174691366313669327e+00
2.174691366313669327e+00
2.191191869869075770e+00
2.144877956480605530e+00
2.144877956480605530e+00
2.223817865535447247e+00
2.308007934812463802e+00
2.308007934812463802e+00
2.347946653645436310e+00
2.347946653645436310e+00
2.390322946867275089e+00
2.367822260200811879e+00
2.367822260200811879e+00
2.302195257423627517e+00
2.257568895535142062e+00
2.257568895535142062e+00
2.261881527146214044e+00
2.261881527146214044e+00
2.232443128757591655e+00
2.230755577257606870e+00
2.230755577257606870e+00
2.241443403424177028e+00
2.241443403424177028e+00
2.247631092257453833e+00
2.149565599536118921e+00
2.149565599536118921e+00
2.173003814813684542e+00
2.173003814813684542e+00
2.254756309701834383e+00
2.302757774590289408e+00
2.302757774590289408e+00
2.353009308145390222e+00
2.353009308145390222e+00
2.361447065645314147e+00
2.325633472701193583e+00
2.325633472701193583e+00
2.290569902645954947e+00
2.271631824701681346e+00
2.271631824701681346e+00
2.250443678090761956e+00
2.250443678090761956e+00
2.189691824091311467e+00
2.187066743980223826e+00
2.187066743980223826e+00
2.189129306924649576e+00
2.189129306924649576e+00
2.215380108035523765e+00
2.228880520035401602e+00
2.228880520035401602e+00
2.272756859035004684e+00
2.272756859035004684e+00
2.326946012756737403e+00
2.327508529923398850e+00
2.327508529923398850e+00
2.385822809533982625e+00
2.385822809533982625e+00
2.379635120700704931e+00
2.348321665089877275e+00
2.348321665089877275e+00
2.272944364757225166e+00
2.231130588702047834e+00
2.231130588702047834e+00
2.209567430646687480e+00
2.209567430646687480e+00
2.191004364146854844e+00
2.188191778313547164e+00
2.188191778313547164e+00
2.185566698202459968e+00
2.185566698202459968e+00
2.180691549424726094e+00
2.189129306924649576e+00
2.189129306924649576e+00
2.262631550035096417e+00
2.262631550035096417e+00
2.314383129367961978e+00
2.330883632923367976e+00
2.330883632923367976e+00
2.368947294534135217e+00
2.346821619312112972e+00
2.346821619312112972e+00
2.322258369701224012e+00
2.322258369701224012e+00
2.273131870479445649e+00
2.255318826868495830e+00
2.255318826868495830e+00
2.245006012146367080e+00
2.245006012146367080e+00
2.227567979979857782e+00
2.191004364146854844e+00
2.191004364146854844e+00
2.184816675313578038e+00
2.184816675313578038e+00
2.138690267647328280e+00
2.168691183202612560e+00
2.168691183202612560e+00
2.267131687368389326e+00
2.267131687368389326e+00
2.335571275978881367e+00
2.362947111423078006e+00
2.362947111423078006e+00
2.379447614978484449e+00
2.379447614978484449e+00
2.347946653645436310e+00
2.297507614368114126e+00
2.297507614368114126e+00
2.268069215979491737e+00
2.237130771813104602e+00
2.237130771813104602e+00
2.204504776146733125e+00
2.204504776146733125e+00
2.213130039368877089e+00
2.224567888424329176e+00
2.224567888424329176e+00
2.210504959257789892e+00
2.210504959257789892e+00
2.180504043702505612e+00
2.205817316202276945e+00
2.205817316202276945e+00
2.279319559312723342e+00
2.279319559312723342e+00
2.332008667256691314e+00
2.344571550645466296e+00
2.344571550645466296e+00
2.358446974089785542e+00
2.358446974089785542e+00
2.325820978423414065e+00
2.292257454145939732e+00
2.292257454145939732e+00
2.292819971312600735e+00
2.266569170201727434e+00
2.266569170201727434e+00
2.247818597979674760e+00
2.247818597979674760e+00
2.248006103701895242e+00
2.250818689535202921e+00
2.250818689535202921e+00
2.229068025757622085e+00
2.229068025757622085e+00
2.192129398480178182e+00
2.326195989867855030e+00
2.326195989867855030e+00
2.373072420422986717e+00
2.373072420422986717e+00
2.369884823145237629e+00
2.395385601367229444e+00
2.395385601367229444e+00
2.326383495590075512e+00
2.232068117313150690e+00
2.148440565202795582e+00
2.148440565202795582e+00
2.120502212591937052e+00
2.120502212591937052e+00
2.153878231147190458e+00
2.202254707480086449e+00
2.202254707480086449e+00
2.202442213202307375e+00
2.202442213202307375e+00
2.214255073702200427e+00
2.181816583758049433e+00
2.181816583758049433e+00
2.189691824091311467e+00
2.263756584368419311e+00
2.263756584368419311e+00
2.308570451979125249e+00
2.308570451979125249e+00
2.347384136478774419e+00
2.408323496200445835e+00
2.408323496200445835e+00
2.413011139255958781e+00
2.413011139255958781e+00
2.387697866756187448e+00
2.320570818201239227e+00
2.320570818201239227e+00
2.289257362590411127e+00
2.271819330423901828e+00
2.271819330423901828e+00
2.213317545091097571e+00
2.213317545091097571e+00
2.103064180425428198e+00
2.085063631092257452e+00
2.085063631092257452e+00
2.106251777703176842e+00
2.106251777703176842e+00
2.191379375591296252e+00
2.278007019257179522e+00
2.278007019257179522e+00
2.297882625812555535e+00
2.297882625812555535e+00
2.338008850367748082e+00
2.376822534867396808e+00
2.376822534867396808e+00
2.376822534867396808e+00
2.376822534867396808e+00
2.324320932645649762e+00
2.278944547868282378e+00
2.278944547868282378e+00
2.244631000701926116e+00
2.222880336924344391e+00
2.222880336924344391e+00
2.217442670979949515e+00
2.217442670979949515e+00
2.208254890591143660e+00
2.217630176702169997e+00
2.217630176702169997e+00
2.191191869869075770e+00
2.195879512924588717e+00
2.195879512924588717e+00
2.229255531479842567e+00
2.262631550035096417e+00
2.262631550035096417e+00
2.341383953367717208e+00
2.341383953367717208e+00
2.374197454756310055e+00
2.348884182256538722e+00
2.348884182256538722e+00
2.287194799645985377e+00
2.287194799645985377e+00
2.262631550035096417e+00
2.243880977813043742e+00
2.243880977813043742e+00
2.242943449201941331e+00
2.233755668813135031e+00
2.233755668813135031e+00
2.215942625202185212e+00
2.215942625202185212e+00
2.215380108035523765e+00
2.199817133091219734e+00
2.199817133091219734e+00
2.250256172368541474e+00
2.250256172368541474e+00
2.317758232367931104e+00
2.326946012756737403e+00
2.326946012756737403e+00
2.360697042756431774e+00
2.360697042756431774e+00
2.339508896145511940e+00
2.289444868312631609e+00
2.289444868312631609e+00
2.265819147312845505e+00
2.254756309701834383e+00
2.254756309701834383e+00
2.251756218146305777e+00
2.251756218146305777e+00
2.276131962034974254e+00
2.197379558702353020e+00
2.197379558702353020e+00
2.175441389202551257e+00
2.175441389202551257e+00
2.159878414258247670e+00
2.155003265480513797e+00
2.155003265480513797e+00
2.233943174535355514e+00
2.233943174535355514e+00
2.300695211645863214e+00
2.331258644367808941e+00
2.331258644367808941e+00
2.375134983367412023e+00
2.343821527756584366e+00
2.343821527756584366e+00
2.287944822534867306e+00
2.287944822534867306e+00
2.236943266090884119e+00
2.240318369090853690e+00
2.240318369090853690e+00
2.272569353312784202e+00
2.272569353312784202e+00
2.272756859035004684e+00
2.251193700979644330e+00
2.251193700979644330e+00
2.240880886257515137e+00
2.240880886257515137e+00
2.208067384868923178e+00
2.227192968535416817e+00
2.227192968535416817e+00
2.290194891201513983e+00
2.290194891201513983e+00
2.316258186590166801e+00
2.344196539201025331e+00
2.344196539201025331e+00
2.348321665089877275e+00
2.291694936979278285e+00
2.291694936979278285e+00
2.241818414868617992e+00
2.241818414868617992e+00
2.240880886257515137e+00
2.217067659535508550e+00
2.217067659535508550e+00
2.226442945646534444e+00
2.226442945646534444e+00
2.224567888424329176e+00
2.203567247535630269e+00
2.203567247535630269e+00
2.222317819757682944e+00
2.222317819757682944e+00
2.218005188146610962e+00
2.272194341868343237e+00
2.272194341868343237e+00
2.323570909756767389e+00
2.352634296700948813e+00
2.352634296700948813e+00
2.358446974089785542e+00
2.358446974089785542e+00
2.345509079256569152e+00
2.326946012756737403e+00
2.326946012756737403e+00
2.274256904812768987e+00
2.274256904812768987e+00
2.269756767479476078e+00
2.266006653035065987e+00
2.266006653035065987e+00
2.257943906979583026e+00
2.257943906979583026e+00
2.233005645924253102e+00
2.253443769646290562e+00
2.253443769646290562e+00
2.236005737479781263e+00
2.236005737479781263e+00
2.178816492202520827e+00
2.215005096591082356e+00
2.215005096591082356e+00
2.272006836146122755e+00
2.325445966978973100e+00
2.325445966978973100e+00
2.383197729422894984e+00
2.383197729422894984e+00
