2.336696310312204705e+00
2.336696310312204705e+00
2.336696310312204705e+00
2.305570360423596643e+00
2.305570360423596643e+00
2.305570360423596643e+00
2.284194708090456771e+00
2.284194708090456771e+00
2.284194708090456771e+00
2.284194708090456771e+00
2.249881160924100509e+00
2.249881160924100509e+00
2.249881160924100509e+00
2.215755119479964730e+00
2.215755119479964730e+00
2.215755119479964730e+00
2.215755119479964730e+00
2.212192510757774677e+00
2.212192510757774677e+00
2.212192510757774677e+00
2.223067842646564873e+00
2.223067842646564873e+00
2.223067842646564873e+00
2.212005005035553751e+00
2.212005005035553751e+00
2.212005005035553751e+00
2.212005005035553751e+00
2.198129581591235393e+00
2.198129581591235393e+00
2.198129581591235393e+00
2.235630726035340299e+00
2.235630726035340299e+00
2.235630726035340299e+00
2.235630726035340299e+00
2.291319925534837321e+00
2.291319925534837321e+00
2.291319925534837321e+00
2.318508255256813033e+00
2.318508255256813033e+00
2.318508255256813033e+00
2.318508255256813033e+00
2.338196356089969008e+00
2.338196356089969008e+00
2.338196356089969008e+00
2.350946745200964472e+00
2.350946745200964472e+00
2.350946745200964472e+00
2.350946745200964472e+00
2.312320566423536228e+00
2.312320566423536228e+00
2.312320566423536228e+00
2.262444044312875935e+00
2.262444044312875935e+00
2.262444044312875935e+00
2.258693929868464956e+00
2.258693929868464956e+00
2.258693929868464956e+00
2.258693929868464956e+00
2.226067934202093479e+00
2.226067934202093479e+00
2.226067934202093479e+00
2.226817957090975852e+00
2.226817957090975852e+00
2.226817957090975852e+00
2.226817957090975852e+00
2.220817773979919085e+00
2.220817773979919085e+00
2.220817773979919085e+00
2.215755119479964730e+00
2.215755119479964730e+00
2.215755119479964730e+00
2.209942442091128445e+00
2.209942442091128445e+00
2.209942442091128445e+00
2.209942442091128445e+00
2.210129947813348927e+00
2.210129947813348927e+00
2.210129947813348927e+00
2.261881527146214044e+00
2.261881527146214044e+00
2.261881527146214044e+00
2.261881527146214044e+00
2.298257637256996500e+00
2.298257637256996500e+00
2.298257637256996500e+00
2.314758140812402942e+00
2.314758140812402942e+00
2.314758140812402942e+00
2.314758140812402942e+00
2.338196356089969008e+00
2.338196356089969008e+00
2.315508163701284872e+00
2.315508163701284872e+00
2.315508163701284872e+00
2.297695120090334608e+00
2.297695120090334608e+00
2.297695120090334608e+00
2.297695120090334608e+00
2.273131870479445649e+00
2.273131870479445649e+00
2.273131870479445649e+00
2.233943174535355514e+00
2.233943174535355514e+00
2.233943174535355514e+00
2.231693105868709726e+00
2.231693105868709726e+00
2.231693105868709726e+00
2.231693105868709726e+00
2.225505417035432032e+00
2.225505417035432032e+00
2.225505417035432032e+00
2.221005279702139568e+00
2.221005279702139568e+00
2.221005279702139568e+00
2.221005279702139568e+00
2.219692739646595747e+00
2.219692739646595747e+00
2.219692739646595747e+00
2.212567522202215642e+00
2.212567522202215642e+00
2.212567522202215642e+00
2.212567522202215642e+00
2.221755302591021497e+00
2.221755302591021497e+00
2.221755302591021497e+00
2.277069490646077110e+00
2.277069490646077110e+00
2.277069490646077110e+00
2.291694936979278285e+00
2.291694936979278285e+00
2.291694936979278285e+00
2.296382580034791232e+00
2.296382580034791232e+00
2.296382580034791232e+00
2.296382580034791232e+00
2.327133518478957885e+00
2.327133518478957885e+00
2.327133518478957885e+00
2.320570818201239227e+00
2.320570818201239227e+00
2.281382122257148648e+00
2.281382122257148648e+00
2.281382122257148648e+00
2.258131412701803509e+00
2.258131412701803509e+00
2.258131412701803509e+00
2.258131412701803509e+00
2.207504867702261730e+00
2.207504867702261730e+00
2.207504867702261730e+00
2.220817773979919085e+00
2.220817773979919085e+00
2.220817773979919085e+00
2.216692648091067142e+00
2.216692648091067142e+00
2.216692648091067142e+00
2.216692648091067142e+00
2.200754661702322146e+00
2.200754661702322146e+00
2.200754661702322146e+00
2.237505783257545566e+00
2.237505783257545566e+00
2.237505783257545566e+00
2.237505783257545566e+00
2.222505325479903426e+00
2.222505325479903426e+00
2.222505325479903426e+00
2.245381023590808045e+00
2.245381023590808045e+00
2.245381023590808045e+00
2.245381023590808045e+00
2.306882900479140464e+00
2.306882900479140464e+00
2.306882900479140464e+00
2.315133152256843907e+00
2.315133152256843907e+00
2.315133152256843907e+00
2.323758415478988315e+00
2.323758415478988315e+00
2.323758415478988315e+00
2.323758415478988315e+00
2.366509720145268059e+00
2.366509720145268059e+00
2.366509720145268059e+00
2.331633655812249906e+00
2.331633655812249906e+00
2.331633655812249906e+00
2.331633655812249906e+00
2.287944822534867306e+00
2.287944822534867306e+00
2.287944822534867306e+00
2.249506149479659545e+00
2.249506149479659545e+00
2.249506149479659545e+00
2.239005829035309869e+00
2.239005829035309869e+00
2.239005829035309869e+00
2.239005829035309869e+00
2.257381389812921579e+00
2.257381389812921579e+00
2.257381389812921579e+00
2.244443494979705633e+00
2.244443494979705633e+00
2.244443494979705633e+00
2.244443494979705633e+00
2.215380108035523765e+00
2.215380108035523765e+00
2.215380108035523765e+00
2.188191778313547164e+00
2.188191778313547164e+00
2.188191778313547164e+00
2.175066377758110736e+00
2.175066377758110736e+00
2.175066377758110736e+00
2.175066377758110736e+00
2.199442121646778769e+00
2.199442121646778769e+00
2.199442121646778769e+00
2.241068391979735619e+00
2.241068391979735619e+00
2.241068391979735619e+00
2.241068391979735619e+00
2.283819696646015807e+00
2.283819696646015807e+00
2.283819696646015807e+00
2.316633198034607766e+00
2.316633198034607766e+00
2.316633198034607766e+00
2.316633198034607766e+00
2.347384136478774419e+00
2.347384136478774419e+00
2.347384136478774419e+00
2.344946562089907705e+00
2.344946562089907705e+00
2.344946562089907705e+00
2.314945646534623425e+00
2.314945646534623425e+00
2.314945646534623425e+00
2.314945646534623425e+00
2.284382213812677254e+00
2.284382213812677254e+00
2.284382213812677254e+00
2.266194158757286470e+00
2.266194158757286470e+00
2.266194158757286470e+00
2.263569078646198829e+00
2.263569078646198829e+00
2.263569078646198829e+00
2.263569078646198829e+00
2.247256080813012868e+00
2.247256080813012868e+00
2.247256080813012868e+00
2.243693472090823260e+00
2.243693472090823260e+00
2.243693472090823260e+00
2.216692648091067142e+00
2.216692648091067142e+00
2.216692648091067142e+00
2.192129398480178182e+00
2.192129398480178182e+00
2.192129398480178182e+00
2.233193151646474028e+00
2.233193151646474028e+00
2.233193151646474028e+00
2.233193151646474028e+00
2.291319925534837321e+00
2.291319925534837321e+00
2.291319925534837321e+00
2.319633289590136371e+00
2.319633289590136371e+00
2.319633289590136371e+00
2.319633289590136371e+00
2.338758873256630455e+00
2.338758873256630455e+00
2.338758873256630455e+00
2.330321115756706529e+00
2.330321115756706529e+00
2.330321115756706529e+00
2.273506881923887057e+00
2.273506881923887057e+00
2.273506881923887057e+00
2.273506881923887057e+00
2.226442945646534444e+00
2.226442945646534444e+00
2.226442945646534444e+00
2.225505417035432032e+00
2.225505417035432032e+00
2.225505417035432032e+00
2.213130039368877089e+00
2.213130039368877089e+00
2.213130039368877089e+00
2.213130039368877089e+00
2.220067751091036712e+00
2.220067751091036712e+00
2.220067751091036712e+00
2.225505417035432032e+00
2.225505417035432032e+00
2.225505417035432032e+00
2.225505417035432032e+00
2.243880977813043742e+00
2.243880977813043742e+00
2.243880977813043742e+00
2.220817773979919085e+00
2.220817773979919085e+00
2.220817773979919085e+00
2.212942533646656607e+00
2.212942533646656607e+00
2.212942533646656607e+00
2.212942533646656607e+00
2.275944456312753772e+00
2.275944456312753772e+00
2.275944456312753772e+00
2.282507156590471986e+00
2.282507156590471986e+00
2.282507156590471986e+00
2.305757866145817125e+00
2.305757866145817125e+00
2.305757866145817125e+00
2.305757866145817125e+00
2.299195165868098911e+00
2.299195165868098911e+00
2.299195165868098911e+00
2.299570177312540320e+00
2.299570177312540320e+00
2.299570177312540320e+00
2.299570177312540320e+00
2.314383129367961978e+00
2.314383129367961978e+00
2.314383129367961978e+00
2.290569902645954947e+00
2.290569902645954947e+00
2.290569902645954947e+00
2.280444593646046680e+00
2.280444593646046680e+00
2.280444593646046680e+00
2.280444593646046680e+00
2.282132145146031021e+00
2.282132145146031021e+00
2.282132145146031021e+00
2.242005920590838475e+00
2.242005920590838475e+00
2.242005920590838475e+00
2.242005920590838475e+00
2.222130314035462462e+00
2.222130314035462462e+00
2.222130314035462462e+00
2.224755394146549659e+00
2.224755394146549659e+00
2.224755394146549659e+00
2.205629810480056463e+00
2.205629810480056463e+00
2.205629810480056463e+00
2.205629810480056463e+00
2.228880520035401602e+00
2.228880520035401602e+00
2.228880520035401602e+00
2.268819238868374111e+00
2.268819238868374111e+00
2.268819238868374111e+00
2.268819238868374111e+00
2.314008117923521013e+00
2.314008117923521013e+00
2.314008117923521013e+00
2.314195623645741495e+00
2.314195623645741495e+00
2.314195623645741495e+00
2.314195623645741495e+00
2.305195348979155678e+00
2.305195348979155678e+00
2.305195348979155678e+00
2.263194067201757864e+00
2.263194067201757864e+00
2.263194067201757864e+00
2.289819879757073018e+00
2.289819879757073018e+00
2.289819879757073018e+00
2.289819879757073018e+00
2.281382122257148648e+00
2.281382122257148648e+00
2.281382122257148648e+00
2.263194067201757864e+00
2.263194067201757864e+00
2.263194067201757864e+00
2.263194067201757864e+00
2.255318826868495830e+00
2.255318826868495830e+00
2.255318826868495830e+00
2.239005829035309869e+00
2.239005829035309869e+00
2.239005829035309869e+00
2.230005554368724940e+00
2.230005554368724940e+00
2.230005554368724940e+00
2.230005554368724940e+00
2.231318094424268317e+00
2.231318094424268317e+00
2.231318094424268317e+00
2.193066927091281038e+00
2.193066927091281038e+00
2.193066927091281038e+00
2.193066927091281038e+00
2.208817407757805107e+00
2.208817407757805107e+00
2.208817407757805107e+00
2.273694387646107540e+00
2.273694387646107540e+00
2.273694387646107540e+00
2.273694387646107540e+00
2.300695211645863214e+00
2.300695211645863214e+00
2.300695211645863214e+00
2.321508346812341639e+00
2.321508346812341639e+00
2.321508346812341639e+00
2.323195898312326424e+00
2.323195898312326424e+00
2.323195898312326424e+00
2.323195898312326424e+00
2.303695303201391820e+00
2.303695303201391820e+00
2.303695303201391820e+00
2.291319925534837321e+00
2.291319925534837321e+00
2.291319925534837321e+00
2.291319925534837321e+00
2.266194158757286470e+00
2.266194158757286470e+00
2.266194158757286470e+00
2.248006103701895242e+00
2.248006103701895242e+00
2.248006103701895242e+00
2.229818048646504014e+00
2.229818048646504014e+00
2.229818048646504014e+00
2.229818048646504014e+00
2.221192785424360050e+00
2.221192785424360050e+00
2.221192785424360050e+00
2.236380748924222672e+00
2.236380748924222672e+00
2.236380748924222672e+00
2.211629993591112786e+00
2.211629993591112786e+00
2.211629993591112786e+00
2.211629993591112786e+00
2.208629902035584625e+00
2.208629902035584625e+00
2.208629902035584625e+00
2.242380932035279439e+00
2.242380932035279439e+00
2.242380932035279439e+00
2.242380932035279439e+00
2.278569536423841413e+00
2.278569536423841413e+00
2.278569536423841413e+00
2.308195440534684284e+00
2.308195440534684284e+00
2.308195440534684284e+00
2.344196539201025331e+00
2.344196539201025331e+00
2.344196539201025331e+00
2.344196539201025331e+00
2.301632740256966070e+00
2.301632740256966070e+00
2.301632740256966070e+00
2.265069124423963132e+00
2.265069124423963132e+00
2.265069124423963132e+00
2.265069124423963132e+00
2.271444318979460864e+00
2.271444318979460864e+00
2.271444318979460864e+00
2.256818872646260132e+00
2.256818872646260132e+00
2.256818872646260132e+00
2.248943632312997654e+00
2.248943632312997654e+00
2.248943632312997654e+00
2.248943632312997654e+00
2.224380382702108694e+00
2.224380382702108694e+00
2.224380382702108694e+00
2.244443494979705633e+00
2.244443494979705633e+00
2.244443494979705633e+00
2.244443494979705633e+00
2.276694479201635701e+00
2.276694479201635701e+00
2.276694479201635701e+00
2.234880703146458369e+00
2.234880703146458369e+00
2.234880703146458369e+00
2.234880703146458369e+00
2.225317911313211550e+00
2.225317911313211550e+00
2.225317911313211550e+00
2.267319193090609808e+00
2.267319193090609808e+00
2.267319193090609808e+00
2.286069765312662039e+00
2.286069765312662039e+00
2.286069765312662039e+00
2.286069765312662039e+00
2.314570635090182460e+00
2.314570635090182460e+00
2.314570635090182460e+00
2.330696127201147494e+00
2.330696127201147494e+00
2.330696127201147494e+00
2.330696127201147494e+00
2.294882534257026929e+00
2.294882534257026929e+00
2.294882534257026929e+00
2.284382213812677254e+00
2.284382213812677254e+00
2.284382213812677254e+00
2.284382213812677254e+00
2.284382213812677254e+00
2.284382213812677254e+00
2.284382213812677254e+00
2.275006927701650916e+00
2.275006927701650916e+00
2.275006927701650916e+00
2.282882168034912951e+00
2.282882168034912951e+00
2.282882168034912951e+00
2.282882168034912951e+00
2.223067842646564873e+00
2.223067842646564873e+00
2.223067842646564873e+00
2.176941434980315559e+00
2.176941434980315559e+00
2.176941434980315559e+00
2.176941434980315559e+00
2.166066103091524919e+00
2.166066103091524919e+00
2.166066103091524919e+00
2.163628528702658205e+00
2.163628528702658205e+00
2.163628528702658205e+00
2.223442854091006282e+00
2.223442854091006282e+00
2.223442854091006282e+00
2.223442854091006282e+00
2.302757774590289408e+00
2.302757774590289408e+00
2.302757774590289408e+00
2.317383220923490139e+00
2.317383220923490139e+00
2.317383220923490139e+00
2.317383220923490139e+00
2.328633564256721744e+00
2.328633564256721744e+00
2.328633564256721744e+00
2.354884365367595489e+00
2.354884365367595489e+00
2.354884365367595489e+00
2.354884365367595489e+00
2.327508529923398850e+00
2.327508529923398850e+00
2.327508529923398850e+00
2.301632740256966070e+00
2.301632740256966070e+00
2.301632740256966070e+00
2.301632740256966070e+00
2.275944456312753772e+00
2.275944456312753772e+00
2.275944456312753772e+00
2.240318369090853690e+00
2.240318369090853690e+00
2.240318369090853690e+00
2.238255806146427940e+00
2.238255806146427940e+00
2.238255806146427940e+00
2.238255806146427940e+00
2.212005005035553751e+00
2.212005005035553751e+00
2.212005005035553751e+00
2.201504684591204519e+00
2.201504684591204519e+00
2.201504684591204519e+00
2.201504684591204519e+00
2.185191686758019003e+00
2.185191686758019003e+00
2.185191686758019003e+00
2.187441755424664791e+00
2.187441755424664791e+00
2.187441755424664791e+00
2.270319284646137969e+00
2.270319284646137969e+00
2.270319284646137969e+00
2.270319284646137969e+00
2.289819879757073018e+00
2.289819879757073018e+00
2.289819879757073018e+00
2.290382396923734465e+00
2.290382396923734465e+00
2.290382396923734465e+00
2.290382396923734465e+00
2.363322122867518971e+00
2.363322122867518971e+00
2.363322122867518971e+00
2.384510269478438804e+00
2.384510269478438804e+00
2.384510269478438804e+00
2.384510269478438804e+00
2.339133884701071420e+00
2.339133884701071420e+00
2.339133884701071420e+00
2.287007293923764895e+00
2.287007293923764895e+00
2.287007293923764895e+00
2.241818414868617992e+00
2.241818414868617992e+00
2.241818414868617992e+00
2.241818414868617992e+00
2.246506057924130939e+00
2.246506057924130939e+00
2.246506057924130939e+00
2.247631092257453833e+00
2.247631092257453833e+00
2.247631092257453833e+00
2.247631092257453833e+00
2.211067476424451339e+00
2.211067476424451339e+00
2.211067476424451339e+00
2.220817773979919085e+00
2.220817773979919085e+00
2.220817773979919085e+00
2.220817773979919085e+00
2.176003906369212704e+00
2.176003906369212704e+00
2.176003906369212704e+00
2.170566240424817828e+00
2.170566240424817828e+00
2.170566240424817828e+00
2.226817957090975852e+00
2.226817957090975852e+00
2.226817957090975852e+00
2.226817957090975852e+00
2.261131504257332114e+00
2.261131504257332114e+00
2.261131504257332114e+00
2.323758415478988315e+00
2.323758415478988315e+00
2.323758415478988315e+00
2.323758415478988315e+00
2.367822260200811879e+00
2.367822260200811879e+00
2.367822260200811879e+00
2.355259376812036454e+00
2.355259376812036454e+00
2.355259376812036454e+00
2.355259376812036454e+00
2.337821344645527599e+00
2.337821344645527599e+00
2.337821344645527599e+00
2.299007660145878429e+00
2.299007660145878429e+00
2.299007660145878429e+00
2.250818689535202921e+00
2.250818689535202921e+00
2.250818689535202921e+00
2.250818689535202921e+00
2.263006561479537382e+00
2.263006561479537382e+00
2.263006561479537382e+00
2.272569353312784202e+00
2.272569353312784202e+00
2.272569353312784202e+00
2.272569353312784202e+00
2.223630359813226764e+00
2.223630359813226764e+00
2.223630359813226764e+00
2.211067476424451339e+00
2.211067476424451339e+00
2.211067476424451339e+00
2.200192144535660699e+00
2.200192144535660699e+00
2.200192144535660699e+00
2.200192144535660699e+00
2.207504867702261730e+00
2.207504867702261730e+00
2.207504867702261730e+00
2.255506332590716312e+00
2.255506332590716312e+00
2.255506332590716312e+00
2.255506332590716312e+00
2.278007019257179522e+00
2.278007019257179522e+00
2.278007019257179522e+00
2.333508713034455617e+00
2.333508713034455617e+00
2.333508713034455617e+00
2.336696310312204705e+00
2.336696310312204705e+00
2.336696310312204705e+00
2.336696310312204705e+00
2.320383312479018745e+00
2.320383312479018745e+00
2.320383312479018745e+00
2.278382030701620931e+00
2.278382030701620931e+00
2.278382030701620931e+00
2.278382030701620931e+00
2.228693014313181120e+00
2.228693014313181120e+00
2.228693014313181120e+00
2.220817773979919085e+00
2.220817773979919085e+00
2.220817773979919085e+00
2.227567979979857782e+00
2.227567979979857782e+00
2.227567979979857782e+00
2.227567979979857782e+00
2.206004821924497428e+00
2.206004821924497428e+00
2.206004821924497428e+00
2.159503402813806705e+00
2.159503402813806705e+00
2.159503402813806705e+00
2.159503402813806705e+00
2.166628620258186366e+00
2.166628620258186366e+00
2.166628620258186366e+00
2.189129306924649576e+00
2.189129306924649576e+00
2.189129306924649576e+00
2.283069673757133433e+00
2.283069673757133433e+00
2.283069673757133433e+00
2.283069673757133433e+00
2.340446424756614796e+00
2.340446424756614796e+00
2.340446424756614796e+00
2.347384136478774419e+00
2.347384136478774419e+00
2.347384136478774419e+00
2.347384136478774419e+00
2.342883999145481511e+00
2.342883999145481511e+00
2.342883999145481511e+00
2.329571092867824156e+00
2.329571092867824156e+00
2.329571092867824156e+00
2.319258278145695407e+00
2.319258278145695407e+00
2.319258278145695407e+00
2.319258278145695407e+00
2.270131778923917043e+00
2.270131778923917043e+00
2.270131778923917043e+00
2.244631000701926116e+00
2.244631000701926116e+00
2.244631000701926116e+00
2.244631000701926116e+00
2.156690816980498582e+00
2.156690816980498582e+00
2.156690816980498582e+00
2.198317087313455875e+00
2.198317087313455875e+00
2.198317087313455875e+00
2.198317087313455875e+00
2.213692556535538980e+00
2.213692556535538980e+00
2.213692556535538980e+00
2.215942625202185212e+00
2.215942625202185212e+00
2.215942625202185212e+00
2.220067751091036712e+00
2.220067751091036712e+00
2.220067751091036712e+00
2.220067751091036712e+00
2.216692648091067142e+00
2.216692648091067142e+00
2.216692648091067142e+00
2.305382854701376161e+00
2.305382854701376161e+00
2.305382854701376161e+00
2.305382854701376161e+00
2.305945371868038052e+00
2.305945371868038052e+00
2.305945371868038052e+00
2.315883175145725836e+00
2.315883175145725836e+00
2.315883175145725836e+00
2.358259468367565059e+00
2.358259468367565059e+00
2.358259468367565059e+00
2.358259468367565059e+00
2.343259010589922919e+00
2.343259010589922919e+00
2.343259010589922919e+00
2.278757042146061895e+00
2.278757042146061895e+00
2.278757042146061895e+00
2.278757042146061895e+00
2.289444868312631609e+00
2.289444868312631609e+00
2.289444868312631609e+00
2.236943266090884119e+00
2.236943266090884119e+00
2.236943266090884119e+00
2.272381847590563719e+00
2.272381847590563719e+00
2.272381847590563719e+00
2.272381847590563719e+00
2.281194616534928166e+00
2.281194616534928166e+00
2.281194616534928166e+00
2.240693380535294654e+00
2.240693380535294654e+00
2.240693380535294654e+00
2.240693380535294654e+00
2.217255165257729033e+00
2.217255165257729033e+00
2.217255165257729033e+00
2.160440931424909561e+00
2.160440931424909561e+00
2.160440931424909561e+00
2.160440931424909561e+00
2.198129581591235393e+00
2.198129581591235393e+00
2.198129581591235393e+00
2.289257362590411127e+00
2.289257362590411127e+00
2.289257362590411127e+00
2.267694204535050773e+00
2.267694204535050773e+00
2.267694204535050773e+00
2.267694204535050773e+00
2.289257362590411127e+00
2.289257362590411127e+00
2.289257362590411127e+00
2.303695303201391820e+00
2.303695303201391820e+00
2.303695303201391820e+00
2.303695303201391820e+00
2.291507431257057803e+00
2.291507431257057803e+00
2.291507431257057803e+00
2.279882076479384789e+00
2.279882076479384789e+00
2.279882076479384789e+00
2.265819147312845505e+00
2.265819147312845505e+00
2.265819147312845505e+00
2.265819147312845505e+00
2.265256630146183614e+00
2.265256630146183614e+00
2.265256630146183614e+00
2.295820062868129341e+00
2.295820062868129341e+00
2.295820062868129341e+00
2.295820062868129341e+00
2.282319650868251504e+00
2.282319650868251504e+00
2.282319650868251504e+00
2.252318735312967224e+00
2.252318735312967224e+00
2.252318735312967224e+00
2.241443403424177028e+00
2.241443403424177028e+00
2.241443403424177028e+00
2.241443403424177028e+00
2.224567888424329176e+00
2.224567888424329176e+00
2.224567888424329176e+00
2.254006286812952009e+00
2.254006286812952009e+00
2.254006286812952009e+00
2.254006286812952009e+00
2.280257087923826198e+00
2.280257087923826198e+00
2.280257087923826198e+00
2.264506607257301685e+00
2.264506607257301685e+00
2.264506607257301685e+00
2.264506607257301685e+00
2.303882808923612302e+00
2.303882808923612302e+00
2.303882808923612302e+00
2.326008484145634547e+00
2.326008484145634547e+00
2.326008484145634547e+00
2.286257271034882521e+00
2.286257271034882521e+00
2.286257271034882521e+00
2.286257271034882521e+00
2.274069399090548504e+00
2.274069399090548504e+00
2.274069399090548504e+00
2.217255165257729033e+00
2.217255165257729033e+00
2.217255165257729033e+00
2.217255165257729033e+00
2.229443037202063049e+00
2.229443037202063049e+00
2.229443037202063049e+00
2.214067567979979945e+00
2.214067567979979945e+00
2.214067567979979945e+00
2.195504501480147752e+00
2.195504501480147752e+00
2.195504501480147752e+00
2.195504501480147752e+00
2.170941251869258792e+00
2.170941251869258792e+00
2.170941251869258792e+00
2.230943082979827352e+00
2.230943082979827352e+00
2.230943082979827352e+00
2.230943082979827352e+00
2.256256355479598685e+00
2.256256355479598685e+00
2.256256355479598685e+00
2.285694753868221074e+00
2.285694753868221074e+00
2.285694753868221074e+00
2.285694753868221074e+00
2.330696127201147494e+00
2.330696127201147494e+00
2.330696127201147494e+00
2.341946470534379099e+00
2.341946470534379099e+00
2.341946470534379099e+00
2.334258735923337547e+00
2.334258735923337547e+00
2.334258735923337547e+00
2.334258735923337547e+00
2.311008026367992407e+00
2.311008026367992407e+00
2.311008026367992407e+00
2.255131321146275347e+00
2.255131321146275347e+00
2.255131321146275347e+00
2.255131321146275347e+00
2.246318552201910457e+00
2.246318552201910457e+00
2.246318552201910457e+00
2.273131870479445649e+00
2.273131870479445649e+00
2.273131870479445649e+00
2.273131870479445649e+00
2.267131687368389326e+00
2.267131687368389326e+00
2.267131687368389326e+00
2.291507431257057803e+00
2.291507431257057803e+00
2.291507431257057803e+00
2.266569170201727434e+00
2.266569170201727434e+00
2.266569170201727434e+00
2.266569170201727434e+00
2.242943449201941331e+00
2.242943449201941331e+00
2.242943449201941331e+00
2.199254615924558287e+00
2.199254615924558287e+00
2.199254615924558287e+00
2.199254615924558287e+00
2.236005737479781263e+00
2.236005737479781263e+00
2.236005737479781263e+00
2.301257728812525105e+00
2.301257728812525105e+00
2.301257728812525105e+00
2.301070223090304623e+00
2.301070223090304623e+00
2.301070223090304623e+00
2.301070223090304623e+00
2.297132602923673161e+00
2.297132602923673161e+00
2.297132602923673161e+00
2.313820612201300086e+00
2.313820612201300086e+00
2.313820612201300086e+00
2.313820612201300086e+00
2.282882168034912951e+00
2.282882168034912951e+00
2.282882168034912951e+00
2.234318185979796478e+00
2.234318185979796478e+00
2.234318185979796478e+00
2.235443220313119816e+00
2.235443220313119816e+00
2.235443220313119816e+00
2.235443220313119816e+00
2.228880520035401602e+00
2.228880520035401602e+00
2.228880520035401602e+00
2.234130680257575996e+00
2.234130680257575996e+00
2.234130680257575996e+00
2.234130680257575996e+00
2.209004913480026033e+00
2.209004913480026033e+00
2.209004913480026033e+00
2.221567796868801015e+00
2.221567796868801015e+00
2.221567796868801015e+00
2.260943998535111632e+00
2.260943998535111632e+00
2.260943998535111632e+00
2.260943998535111632e+00
2.264506607257301685e+00
2.264506607257301685e+00
2.264506607257301685e+00
2.232255623035371173e+00
2.232255623035371173e+00
2.232255623035371173e+00
2.232255623035371173e+00
2.254943815424054865e+00
2.254943815424054865e+00
2.254943815424054865e+00
2.274069399090548504e+00
2.274069399090548504e+00
2.274069399090548504e+00
2.318883266701254442e+00
2.318883266701254442e+00
2.318883266701254442e+00
2.318883266701254442e+00
2.319633289590136371e+00
2.319633289590136371e+00
2.319633289590136371e+00
2.326571001312295994e+00
2.326571001312295994e+00
2.326571001312295994e+00
2.326571001312295994e+00
2.322258369701224012e+00
2.322258369701224012e+00
2.322258369701224012e+00
2.264319101535081202e+00
2.264319101535081202e+00
2.264319101535081202e+00
2.226630451368755370e+00
2.226630451368755370e+00
2.226630451368755370e+00
2.226630451368755370e+00
2.224567888424329176e+00
2.224567888424329176e+00
2.224567888424329176e+00
2.241068391979735619e+00
2.241068391979735619e+00
2.241068391979735619e+00
2.241068391979735619e+00
2.214067567979979945e+00
2.214067567979979945e+00
2.214067567979979945e+00
2.191941892757957699e+00
2.191941892757957699e+00
2.191941892757957699e+00
2.191941892757957699e+00
2.167566148869289222e+00
2.167566148869289222e+00
2.167566148869289222e+00
2.226255439924313961e+00
2.226255439924313961e+00
2.226255439924313961e+00
2.352446790978728330e+00
2.352446790978728330e+00
2.352446790978728330e+00
2.352446790978728330e+00
2.364822168645283273e+00
2.364822168645283273e+00
2.364822168645283273e+00
2.329196081423383191e+00
2.329196081423383191e+00
2.329196081423383191e+00
2.329196081423383191e+00
2.330133610034486047e+00
2.330133610034486047e+00
2.330133610034486047e+00
2.309507980590228104e+00
2.309507980590228104e+00
2.309507980590228104e+00
2.263569078646198829e+00
2.263569078646198829e+00
2.263569078646198829e+00
2.263569078646198829e+00
2.245193517868587563e+00
2.245193517868587563e+00
2.245193517868587563e+00
2.209192419202246516e+00
2.209192419202246516e+00
2.209192419202246516e+00
2.209192419202246516e+00
2.229255531479842567e+00
2.229255531479842567e+00
2.229255531479842567e+00
2.263006561479537382e+00
2.263006561479537382e+00
2.263006561479537382e+00
2.263006561479537382e+00
2.241630909146397510e+00
2.241630909146397510e+00
2.241630909146397510e+00
2.225317911313211550e+00
2.225317911313211550e+00
2.225317911313211550e+00
2.224567888424329176e+00
2.224567888424329176e+00
2.224567888424329176e+00
2.224567888424329176e+00
2.278007019257179522e+00
2.278007019257179522e+00
2.278007019257179522e+00
2.269006744590594149e+00
2.269006744590594149e+00
2.269006744590594149e+00
2.269006744590594149e+00
2.281569627979369130e+00
2.281569627979369130e+00
2.281569627979369130e+00
2.385822809533982625e+00
2.385822809533982625e+00
2.385822809533982625e+00
2.338383861812189490e+00
2.338383861812189490e+00
2.338383861812189490e+00
2.338383861812189490e+00
2.267506698812830290e+00
2.267506698812830290e+00
2.267506698812830290e+00
2.264131595812860720e+00
2.264131595812860720e+00
2.264131595812860720e+00
2.264131595812860720e+00
2.221942808313242423e+00
2.221942808313242423e+00
2.221942808313242423e+00
2.197004547257912055e+00
2.197004547257912055e+00
2.197004547257912055e+00
2.197004547257912055e+00
2.232818140202032620e+00
2.232818140202032620e+00
2.232818140202032620e+00
2.217067659535508550e+00
2.217067659535508550e+00
2.217067659535508550e+00
2.204129764702292160e+00
2.204129764702292160e+00
2.204129764702292160e+00
2.204129764702292160e+00
2.208254890591143660e+00
2.208254890591143660e+00
2.208254890591143660e+00
2.226630451368755370e+00
2.226630451368755370e+00
2.226630451368755370e+00
2.226630451368755370e+00
2.269756767479476078e+00
2.269756767479476078e+00
2.269756767479476078e+00
2.274631916257209951e+00
2.274631916257209951e+00
2.274631916257209951e+00
2.303507797479171337e+00
2.303507797479171337e+00
2.303507797479171337e+00
2.303507797479171337e+00
2.343821527756584366e+00
2.343821527756584366e+00
2.343821527756584366e+00
2.336696310312204705e+00
2.336696310312204705e+00
2.336696310312204705e+00
2.336696310312204705e+00
2.317945738090151586e+00
2.317945738090151586e+00
2.317945738090151586e+00
2.309507980590228104e+00
2.309507980590228104e+00
2.309507980590228104e+00
2.309507980590228104e+00
2.300695211645863214e+00
2.300695211645863214e+00
2.300695211645863214e+00
2.260943998535111632e+00
2.260943998535111632e+00
2.260943998535111632e+00
2.265819147312845505e+00
2.265819147312845505e+00
2.265819147312845505e+00
2.265819147312845505e+00
2.178066469313638454e+00
2.178066469313638454e+00
2.178066469313638454e+00
2.154253242591631867e+00
2.154253242591631867e+00
2.154253242591631867e+00
2.154253242591631867e+00
2.168691183202612560e+00
2.168691183202612560e+00
2.168691183202612560e+00
2.178066469313638454e+00
2.178066469313638454e+00
2.178066469313638454e+00
2.262819055757316900e+00
2.262819055757316900e+00
2.262819055757316900e+00
2.262819055757316900e+00
2.299757683034760802e+00
2.299757683034760802e+00
2.299757683034760802e+00
2.337446333201086635e+00
2.337446333201086635e+00
2.337446333201086635e+00
2.337446333201086635e+00
2.374759971922971058e+00
2.374759971922971058e+00
2.374759971922971058e+00
2.406823450422681532e+00
2.406823450422681532e+00
2.406823450422681532e+00
2.406823450422681532e+00
2.325820978423414065e+00
2.325820978423414065e+00
2.325820978423414065e+00
2.231693105868709726e+00
2.231693105868709726e+00
2.231693105868709726e+00
2.267131687368389326e+00
2.267131687368389326e+00
2.267131687368389326e+00
2.267131687368389326e+00
2.279694570757164307e+00
2.279694570757164307e+00
2.279694570757164307e+00
2.163253517258217240e+00
2.163253517258217240e+00
2.163253517258217240e+00
2.163253517258217240e+00
2.160815942869350526e+00
2.160815942869350526e+00
2.160815942869350526e+00
2.179754020813623683e+00
2.179754020813623683e+00
2.179754020813623683e+00
2.210129947813348927e+00
2.210129947813348927e+00
2.210129947813348927e+00
2.210129947813348927e+00
2.283819696646015807e+00
2.283819696646015807e+00
2.283819696646015807e+00
2.307070406201360946e+00
2.307070406201360946e+00
2.307070406201360946e+00
2.307070406201360946e+00
2.336696310312204705e+00
2.336696310312204705e+00
2.336696310312204705e+00
2.373822443311869090e+00
2.373822443311869090e+00
2.373822443311869090e+00
2.373822443311869090e+00
2.385447798089541660e+00
2.385447798089541660e+00
2.385447798089541660e+00
2.315883175145725836e+00
2.315883175145725836e+00
2.315883175145725836e+00
2.266006653035065987e+00
2.266006653035065987e+00
2.266006653035065987e+00
2.266006653035065987e+00
2.193629444257942485e+00
2.193629444257942485e+00
2.193629444257942485e+00
2.145252967925046494e+00
2.145252967925046494e+00
2.145252967925046494e+00
2.124627338480788552e+00
2.124627338480788552e+00
2.124627338480788552e+00
2.124627338480788552e+00
2.163441022980437278e+00
2.163441022980437278e+00
2.163441022980437278e+00
2.227755485702078264e+00
2.227755485702078264e+00
2.227755485702078264e+00
2.227755485702078264e+00
2.230005554368724940e+00
2.230005554368724940e+00
2.230005554368724940e+00
2.265069124423963132e+00
2.265069124423963132e+00
2.265069124423963132e+00
2.316258186590166801e+00
2.316258186590166801e+00
2.316258186590166801e+00
2.316258186590166801e+00
2.362197088534196077e+00
2.362197088534196077e+00
2.362197088534196077e+00
2.378697592089602519e+00
2.378697592089602519e+00
2.378697592089602519e+00
2.378697592089602519e+00
2.352259285256507848e+00
2.352259285256507848e+00
2.352259285256507848e+00
2.329008575701162709e+00
2.329008575701162709e+00
2.329008575701162709e+00
2.329008575701162709e+00
2.270131778923917043e+00
2.270131778923917043e+00
2.270131778923917043e+00
2.238255806146427940e+00
2.238255806146427940e+00
2.238255806146427940e+00
2.239380840479750834e+00
2.239380840479750834e+00
2.239380840479750834e+00
2.239380840479750834e+00
2.209379924924466998e+00
2.209379924924466998e+00
2.209379924924466998e+00
2.195692007202368234e+00
2.195692007202368234e+00
2.195692007202368234e+00
2.195692007202368234e+00
2.267881710257271255e+00
2.267881710257271255e+00
2.267881710257271255e+00
2.262256538590655452e+00
2.262256538590655452e+00
2.262256538590655452e+00
2.262256538590655452e+00
2.261694021423993561e+00
2.261694021423993561e+00
2.261694021423993561e+00
2.291882442701498768e+00
2.291882442701498768e+00
2.291882442701498768e+00
2.310070497756889552e+00
2.310070497756889552e+00
2.310070497756889552e+00
2.310070497756889552e+00
2.289444868312631609e+00
2.289444868312631609e+00
2.289444868312631609e+00
2.239755851924192243e+00
2.239755851924192243e+00
2.239755851924192243e+00
2.239755851924192243e+00
2.292819971312600735e+00
2.292819971312600735e+00
2.292819971312600735e+00
2.300695211645863214e+00
2.300695211645863214e+00
2.300695211645863214e+00
2.277819513534959039e+00
2.277819513534959039e+00
2.277819513534959039e+00
2.277819513534959039e+00
2.230568071535386387e+00
2.230568071535386387e+00
2.230568071535386387e+00
2.166066103091524919e+00
2.166066103091524919e+00
2.166066103091524919e+00
2.166066103091524919e+00
2.178628986480300345e+00
2.178628986480300345e+00
2.178628986480300345e+00
2.245381023590808045e+00
2.245381023590808045e+00
2.245381023590808045e+00
2.245381023590808045e+00
2.251193700979644330e+00
2.251193700979644330e+00
2.251193700979644330e+00
2.223630359813226764e+00
2.223630359813226764e+00
2.223630359813226764e+00
2.205817316202276945e+00
2.205817316202276945e+00
2.205817316202276945e+00
2.205817316202276945e+00
2.274069399090548504e+00
2.274069399090548504e+00
2.274069399090548504e+00
2.330321115756706529e+00
2.330321115756706529e+00
2.330321115756706529e+00
2.330321115756706529e+00
2.328446058534500818e+00
2.328446058534500818e+00
2.328446058534500818e+00
2.340821436201055761e+00
2.340821436201055761e+00
2.340821436201055761e+00
2.338758873256630455e+00
2.338758873256630455e+00
2.338758873256630455e+00
2.338758873256630455e+00
2.345696584978789634e+00
2.345696584978789634e+00
2.345696584978789634e+00
2.289819879757073018e+00
2.289819879757073018e+00
2.289819879757073018e+00
2.289819879757073018e+00
2.204129764702292160e+00
2.204129764702292160e+00
2.204129764702292160e+00
2.211067476424451339e+00
2.211067476424451339e+00
2.211067476424451339e+00
2.247068575090792386e+00
2.247068575090792386e+00
2.247068575090792386e+00
2.247068575090792386e+00
2.203942258980071234e+00
2.203942258980071234e+00
2.203942258980071234e+00
2.233568163090914993e+00
2.233568163090914993e+00
2.233568163090914993e+00
2.233568163090914993e+00
2.272006836146122755e+00
2.272006836146122755e+00
2.272006836146122755e+00
2.237130771813104602e+00
2.237130771813104602e+00
2.237130771813104602e+00
2.237130771813104602e+00
2.223630359813226764e+00
2.223630359813226764e+00
2.223630359813226764e+00
2.264319101535081202e+00
2.264319101535081202e+00
2.264319101535081202e+00
2.296195074312570750e+00
2.296195074312570750e+00
2.296195074312570750e+00
2.296195074312570750e+00
2.315320657979064389e+00
2.315320657979064389e+00
2.315320657979064389e+00
2.309507980590228104e+00
2.309507980590228104e+00
2.309507980590228104e+00
2.309507980590228104e+00
2.306507889034699499e+00
2.306507889034699499e+00
2.306507889034699499e+00
2.258693929868464956e+00
2.258693929868464956e+00
2.258693929868464956e+00
2.258693929868464956e+00
2.197942075869014911e+00
2.197942075869014911e+00
2.197942075869014911e+00
2.264881618701742649e+00
2.264881618701742649e+00
2.264881618701742649e+00
2.269006744590594149e+00
2.269006744590594149e+00
2.269006744590594149e+00
2.269006744590594149e+00
2.255131321146275347e+00
2.255131321146275347e+00
2.255131321146275347e+00
2.227567979979857782e+00
2.227567979979857782e+00
2.227567979979857782e+00
2.227567979979857782e+00
2.193254432813501520e+00
2.193254432813501520e+00
2.193254432813501520e+00
2.239005829035309869e+00
2.239005829035309869e+00
2.239005829035309869e+00
2.282882168034912951e+00
2.282882168034912951e+00
2.282882168034912951e+00
2.282882168034912951e+00
2.369322305978576182e+00
2.369322305978576182e+00
2.369322305978576182e+00
2.352259285256507848e+00
2.352259285256507848e+00
2.352259285256507848e+00
2.352259285256507848e+00
2.330508621478927012e+00
2.330508621478927012e+00
2.330508621478927012e+00
2.260193975646229259e+00
2.260193975646229259e+00
2.260193975646229259e+00
2.208629902035584625e+00
2.208629902035584625e+00
2.208629902035584625e+00
2.208629902035584625e+00
2.237880794701986531e+00
2.237880794701986531e+00
2.237880794701986531e+00
2.255881344035157721e+00
2.255881344035157721e+00
2.255881344035157721e+00
2.255881344035157721e+00
2.320195806756797818e+00
2.320195806756797818e+00
2.320195806756797818e+00
2.286632282479323930e+00
2.286632282479323930e+00
2.286632282479323930e+00
2.286632282479323930e+00
2.258693929868464956e+00
2.258693929868464956e+00
2.258693929868464956e+00
2.234318185979796478e+00
2.234318185979796478e+00
2.234318185979796478e+00
2.176378917813653668e+00
2.176378917813653668e+00
2.176378917813653668e+00
2.176378917813653668e+00
2.213692556535538980e+00
2.213692556535538980e+00
2.213692556535538980e+00
2.243880977813043742e+00
2.243880977813043742e+00
2.243880977813043742e+00
2.243880977813043742e+00
2.239568346201971760e+00
2.239568346201971760e+00
2.239568346201971760e+00
2.270881801812799416e+00
2.270881801812799416e+00
2.270881801812799416e+00
2.330508621478927012e+00
2.330508621478927012e+00
2.330508621478927012e+00
2.330508621478927012e+00
2.361259559923093665e+00
2.361259559923093665e+00
2.361259559923093665e+00
2.328446058534500818e+00
2.328446058534500818e+00
2.328446058534500818e+00
2.328446058534500818e+00
2.316070680867946319e+00
2.316070680867946319e+00
2.316070680867946319e+00
2.369509811700796664e+00
2.369509811700796664e+00
2.369509811700796664e+00
2.325633472701193583e+00
2.325633472701193583e+00
2.325633472701193583e+00
2.325633472701193583e+00
2.270319284646137969e+00
2.270319284646137969e+00
2.270319284646137969e+00
2.240693380535294654e+00
2.240693380535294654e+00
2.240693380535294654e+00
2.096876491592150504e+00
2.096876491592150504e+00
2.096876491592150504e+00
2.096876491592150504e+00
2.039312234870449103e+00
2.039312234870449103e+00
2.039312234870449103e+00
2.146940519425031280e+00
2.146940519425031280e+00
2.146940519425031280e+00
2.146940519425031280e+00
2.270131778923917043e+00
2.270131778923917043e+00
2.270131778923917043e+00
2.344384044923245813e+00
2.344384044923245813e+00
2.344384044923245813e+00
2.344384044923245813e+00
2.342508987701040546e+00
2.342508987701040546e+00
2.342508987701040546e+00
2.368009765923032361e+00
2.368009765923032361e+00
2.368009765923032361e+00
2.335008758812219920e+00
2.335008758812219920e+00
2.335008758812219920e+00
2.335008758812219920e+00
2.258881435590685438e+00
2.258881435590685438e+00
2.258881435590685438e+00
2.257006378368480615e+00
2.257006378368480615e+00
2.257006378368480615e+00
2.257006378368480615e+00
2.233943174535355514e+00
2.233943174535355514e+00
2.233943174535355514e+00
2.263944090090640238e+00
2.263944090090640238e+00
2.263944090090640238e+00
2.263944090090640238e+00
2.223067842646564873e+00
2.223067842646564873e+00
2.223067842646564873e+00
2.200567155980101663e+00
2.200567155980101663e+00
2.200567155980101663e+00
2.231505600146489243e+00
2.231505600146489243e+00
2.231505600146489243e+00
2.231505600146489243e+00
2.198879604480116878e+00
2.198879604480116878e+00
2.198879604480116878e+00
2.221567796868801015e+00
2.221567796868801015e+00
2.221567796868801015e+00
2.221567796868801015e+00
2.241630909146397510e+00
2.241630909146397510e+00
2.241630909146397510e+00
2.313070589312418157e+00
2.313070589312418157e+00
2.313070589312418157e+00
2.361822077089755112e+00
2.361822077089755112e+00
2.361822077089755112e+00
2.361822077089755112e+00
2.362197088534196077e+00
2.362197088534196077e+00
2.362197088534196077e+00
2.331258644367808941e+00
2.331258644367808941e+00
2.331258644367808941e+00
2.331258644367808941e+00
2.303132786034730373e+00
2.303132786034730373e+00
2.303132786034730373e+00
2.242193426313058957e+00
2.242193426313058957e+00
2.242193426313058957e+00
2.242193426313058957e+00
2.213317545091097571e+00
2.213317545091097571e+00
2.213317545091097571e+00
2.232255623035371173e+00
2.232255623035371173e+00
2.232255623035371173e+00
2.244068483535264225e+00
2.244068483535264225e+00
2.244068483535264225e+00
2.244068483535264225e+00
2.227192968535416817e+00
2.227192968535416817e+00
2.227192968535416817e+00
2.260943998535111632e+00
2.260943998535111632e+00
2.260943998535111632e+00
2.260943998535111632e+00
2.275569444868312807e+00
2.275569444868312807e+00
2.275569444868312807e+00
2.222317819757682944e+00
2.222317819757682944e+00
2.222317819757682944e+00
2.216317636646626177e+00
2.216317636646626177e+00
2.216317636646626177e+00
2.216317636646626177e+00
2.290194891201513983e+00
2.290194891201513983e+00
2.290194891201513983e+00
2.284944730979339145e+00
2.284944730979339145e+00
2.284944730979339145e+00
2.284944730979339145e+00
2.290007385479293500e+00
2.290007385479293500e+00
2.290007385479293500e+00
2.323945921201208797e+00
2.323945921201208797e+00
2.323945921201208797e+00
2.369697317423017147e+00
2.369697317423017147e+00
2.369697317423017147e+00
2.369697317423017147e+00
2.341196447645496725e+00
2.341196447645496725e+00
2.341196447645496725e+00
2.338946378978850937e+00
2.338946378978850937e+00
2.338946378978850937e+00
2.338946378978850937e+00
2.290007385479293500e+00
2.290007385479293500e+00
2.290007385479293500e+00
2.282882168034912951e+00
2.282882168034912951e+00
2.282882168034912951e+00
2.287569811090426342e+00
2.287569811090426342e+00
2.287569811090426342e+00
2.287569811090426342e+00
2.248756126590777171e+00
2.248756126590777171e+00
2.248756126590777171e+00
2.225317911313211550e+00
2.225317911313211550e+00
2.225317911313211550e+00
2.225317911313211550e+00
2.177878963591417971e+00
2.177878963591417971e+00
2.177878963591417971e+00
2.201129673146763555e+00
2.201129673146763555e+00
2.201129673146763555e+00
2.206567339091158875e+00
2.206567339091158875e+00
2.206567339091158875e+00
2.206567339091158875e+00
2.222130314035462462e+00
2.222130314035462462e+00
2.222130314035462462e+00
2.200942167424543072e+00
2.200942167424543072e+00
2.200942167424543072e+00
2.200942167424543072e+00
2.211067476424451339e+00
2.211067476424451339e+00
2.211067476424451339e+00
2.280444593646046680e+00
2.280444593646046680e+00
2.280444593646046680e+00
2.280444593646046680e+00
2.350946745200964472e+00
2.350946745200964472e+00
2.350946745200964472e+00
2.365197180089724238e+00
2.365197180089724238e+00
2.365197180089724238e+00
2.270506790368358452e+00
2.270506790368358452e+00
2.270506790368358452e+00
2.270506790368358452e+00
2.183504135258034218e+00
2.183504135258034218e+00
2.183504135258034218e+00
2.140752830591753586e+00
2.140752830591753586e+00
2.140752830591753586e+00
2.140752830591753586e+00
2.174503860591448845e+00
2.174503860591448845e+00
2.174503860591448845e+00
2.275569444868312807e+00
2.275569444868312807e+00
2.275569444868312807e+00
2.269381756035035114e+00
2.269381756035035114e+00
2.269381756035035114e+00
2.269381756035035114e+00
2.197567064424573946e+00
2.197567064424573946e+00
2.197567064424573946e+00
2.273881893368328022e+00
2.273881893368328022e+00
2.273881893368328022e+00
2.273881893368328022e+00
2.289069856868190644e+00
2.289069856868190644e+00
2.289069856868190644e+00
2.308570451979125249e+00
2.308570451979125249e+00
2.308570451979125249e+00
2.308570451979125249e+00
2.347571642200994901e+00
2.347571642200994901e+00
2.347571642200994901e+00
2.293945005645924073e+00
2.293945005645924073e+00
2.293945005645924073e+00
2.289257362590411127e+00
2.289257362590411127e+00
2.289257362590411127e+00
2.289257362590411127e+00
2.283632190923795324e+00
2.283632190923795324e+00
2.283632190923795324e+00
2.293194982757042144e+00
2.293194982757042144e+00
2.293194982757042144e+00
2.293194982757042144e+00
2.266194158757286470e+00
2.266194158757286470e+00
2.266194158757286470e+00
2.222317819757682944e+00
2.222317819757682944e+00
2.222317819757682944e+00
2.222317819757682944e+00
2.245381023590808045e+00
2.245381023590808045e+00
2.245381023590808045e+00
2.295070039979247412e+00
2.295070039979247412e+00
2.295070039979247412e+00
2.309132969145787140e+00
2.309132969145787140e+00
2.309132969145787140e+00
2.309132969145787140e+00
2.309882992034669069e+00
2.309882992034669069e+00
2.309882992034669069e+00
2.303882808923612302e+00
2.303882808923612302e+00
2.303882808923612302e+00
2.303882808923612302e+00
2.284944730979339145e+00
2.284944730979339145e+00
2.284944730979339145e+00
2.226817957090975852e+00
2.226817957090975852e+00
2.226817957090975852e+00
2.257943906979583026e+00
2.257943906979583026e+00
2.292069948423719250e+00
2.292069948423719250e+00
2.292069948423719250e+00
2.292069948423719250e+00
2.263381572923978347e+00
2.263381572923978347e+00
2.263381572923978347e+00
2.222880336924344391e+00
2.222880336924344391e+00
2.222880336924344391e+00
2.236755760368663637e+00
2.236755760368663637e+00
2.236755760368663637e+00
2.236755760368663637e+00
2.227942991424298746e+00
2.227942991424298746e+00
2.227942991424298746e+00
2.239380840479750834e+00
2.239380840479750834e+00
2.239380840479750834e+00
2.239380840479750834e+00
2.281757133701590057e+00
2.281757133701590057e+00
2.281757133701590057e+00
2.254756309701834383e+00
2.254756309701834383e+00
2.254756309701834383e+00
2.249693655201880027e+00
2.249693655201880027e+00
2.249693655201880027e+00
2.249693655201880027e+00
2.305382854701376161e+00
2.305382854701376161e+00
2.305382854701376161e+00
2.338571367534409973e+00
2.338571367534409973e+00
2.338571367534409973e+00
2.338571367534409973e+00
2.353571825312051669e+00
2.353571825312051669e+00
2.353571825312051669e+00
2.243130954924161813e+00
2.243130954924161813e+00
2.243130954924161813e+00
2.180316537980285130e+00
2.180316537980285130e+00
2.180316537980285130e+00
2.180316537980285130e+00
2.190629352702413879e+00
2.190629352702413879e+00
2.190629352702413879e+00
2.236380748924222672e+00
2.236380748924222672e+00
2.236380748924222672e+00
2.236380748924222672e+00
2.250818689535202921e+00
2.250818689535202921e+00
2.250818689535202921e+00
2.200004638813440216e+00
2.200004638813440216e+00
2.200004638813440216e+00
2.221567796868801015e+00
2.221567796868801015e+00
2.221567796868801015e+00
2.221567796868801015e+00
2.211629993591112786e+00
2.211629993591112786e+00
2.211629993591112786e+00
2.297695120090334608e+00
2.297695120090334608e+00
2.297695120090334608e+00
2.297695120090334608e+00
2.317008209479048730e+00
2.317008209479048730e+00
2.317008209479048730e+00
2.338946378978850937e+00
2.338946378978850937e+00
2.338946378978850937e+00
2.338946378978850937e+00
2.379822626422925413e+00
2.379822626422925413e+00
2.379822626422925413e+00
2.359572008423108880e+00
2.359572008423108880e+00
2.359572008423108880e+00
2.296757591479232197e+00
2.296757591479232197e+00
2.296757591479232197e+00
2.296757591479232197e+00
2.228880520035401602e+00
2.228880520035401602e+00
2.228880520035401602e+00
2.174878872035889810e+00
2.174878872035889810e+00
2.174878872035889810e+00
2.174878872035889810e+00
2.330508621478927012e+00
2.330508621478927012e+00
2.330508621478927012e+00
2.372509903256325270e+00
2.372509903256325270e+00
2.372509903256325270e+00
2.280444593646046680e+00
2.280444593646046680e+00
2.280444593646046680e+00
2.280444593646046680e+00
2.204129764702292160e+00
2.204129764702292160e+00
2.204129764702292160e+00
2.107751823480941145e+00
2.107751823480941145e+00
2.107751823480941145e+00
2.105126743369853504e+00
2.105126743369853504e+00
2.105126743369853504e+00
2.219692739646595747e+00
2.219692739646595747e+00
2.219692739646595747e+00
2.285507248146000592e+00
2.285507248146000592e+00
2.285507248146000592e+00
2.285507248146000592e+00
2.306507889034699499e+00
2.306507889034699499e+00
2.306507889034699499e+00
2.305382854701376161e+00
2.305382854701376161e+00
2.305382854701376161e+00
2.305382854701376161e+00
2.309695486312448587e+00
2.309695486312448587e+00
2.309695486312448587e+00
2.249881160924100509e+00
2.249881160924100509e+00
2.249881160924100509e+00
2.248756126590777171e+00
2.248756126590777171e+00
2.248756126590777171e+00
2.248756126590777171e+00
2.295445051423688376e+00
2.295445051423688376e+00
2.295445051423688376e+00
2.264694112979522167e+00
2.264694112979522167e+00
2.264694112979522167e+00
2.211442487868892304e+00
2.211442487868892304e+00
2.211442487868892304e+00
2.211442487868892304e+00
2.258506424146244473e+00
2.258506424146244473e+00
2.258506424146244473e+00
2.295632557145908859e+00
2.295632557145908859e+00
2.295632557145908859e+00
2.295632557145908859e+00
2.189504318369090985e+00
2.189504318369090985e+00
2.189504318369090985e+00
2.178628986480300345e+00
2.178628986480300345e+00
2.178628986480300345e+00
2.323008392590105942e+00
2.323008392590105942e+00
2.323008392590105942e+00
2.323008392590105942e+00
2.404198370311593891e+00
2.404198370311593891e+00
2.404198370311593891e+00
2.418261299478133619e+00
2.418261299478133619e+00
2.418261299478133619e+00
2.418261299478133619e+00
2.370259834589678594e+00
2.370259834589678594e+00
2.370259834589678594e+00
2.347196630756553937e+00
2.347196630756553937e+00
2.347196630756553937e+00
2.347196630756553937e+00
2.215755119479964730e+00
2.215755119479964730e+00
2.215755119479964730e+00
2.263194067201757864e+00
2.263194067201757864e+00
2.263194067201757864e+00
2.302382763145847999e+00
2.302382763145847999e+00
2.302382763145847999e+00
2.302382763145847999e+00
2.202254707480086449e+00
2.202254707480086449e+00
2.202254707480086449e+00
2.136815210425123013e+00
2.136815210425123013e+00
2.136815210425123013e+00
2.136815210425123013e+00
2.102501663258766751e+00
2.102501663258766751e+00
2.102501663258766751e+00
2.153315713980529011e+00
2.153315713980529011e+00
2.153315713980529011e+00
2.153315713980529011e+00
2.173191320535905025e+00
2.173191320535905025e+00
2.173191320535905025e+00
2.257568895535142062e+00
2.257568895535142062e+00
2.257568895535142062e+00
2.380760155034028269e+00
2.380760155034028269e+00
2.380760155034028269e+00
2.380760155034028269e+00
2.392385509811700839e+00
2.392385509811700839e+00
2.392385509811700839e+00
2.400635761589403838e+00
2.400635761589403838e+00
2.400635761589403838e+00
2.400635761589403838e+00
2.302945280312509890e+00
2.302945280312509890e+00
2.302945280312509890e+00
2.285507248146000592e+00
2.285507248146000592e+00
2.285507248146000592e+00
2.285507248146000592e+00
2.270506790368358452e+00
2.270506790368358452e+00
2.270506790368358452e+00
2.279507065034943825e+00
2.279507065034943825e+00
2.279507065034943825e+00
2.225880428479872997e+00
2.225880428479872997e+00
2.225880428479872997e+00
2.225880428479872997e+00
2.216130130924405695e+00
2.216130130924405695e+00
2.216130130924405695e+00
2.183504135258034218e+00
2.183504135258034218e+00
2.183504135258034218e+00
2.183504135258034218e+00
2.183879146702475182e+00
2.183879146702475182e+00
2.183879146702475182e+00
2.178066469313638454e+00
2.178066469313638454e+00
2.178066469313638454e+00
2.178066469313638454e+00
2.196254524369030126e+00
2.196254524369030126e+00
2.196254524369030126e+00
2.303882808923612302e+00
2.303882808923612302e+00
2.303882808923612302e+00
2.358446974089785542e+00
2.358446974089785542e+00
2.358446974089785542e+00
2.358446974089785542e+00
2.355259376812036454e+00
2.355259376812036454e+00
2.355259376812036454e+00
2.362947111423078006e+00
2.362947111423078006e+00
2.362947111423078006e+00
2.362947111423078006e+00
2.315883175145725836e+00
2.315883175145725836e+00
2.315883175145725836e+00
2.308945463423566213e+00
2.308945463423566213e+00
2.308945463423566213e+00
2.295257545701467894e+00
2.295257545701467894e+00
2.295257545701467894e+00
2.295257545701467894e+00
2.284757225257118218e+00
2.284757225257118218e+00
2.284757225257118218e+00
2.203754753257850751e+00
2.203754753257850751e+00
2.203754753257850751e+00
2.203754753257850751e+00
2.161940977202673420e+00
2.161940977202673420e+00
2.161940977202673420e+00
2.262444044312875935e+00
2.262444044312875935e+00
2.262444044312875935e+00
2.285132236701559627e+00
2.285132236701559627e+00
2.285132236701559627e+00
2.285132236701559627e+00
2.191379375591296252e+00
2.191379375591296252e+00
2.191379375591296252e+00
2.189316812646870059e+00
2.189316812646870059e+00
2.189316812646870059e+00
2.189316812646870059e+00
2.232255623035371173e+00
2.232255623035371173e+00
2.232255623035371173e+00
2.260943998535111632e+00
2.260943998535111632e+00
2.260943998535111632e+00
2.312695577867977192e+00
2.312695577867977192e+00
2.312695577867977192e+00
2.312695577867977192e+00
2.411511093478194478e+00
2.411511093478194478e+00
2.411511093478194478e+00
2.352634296700948813e+00
2.352634296700948813e+00
2.352634296700948813e+00
2.352634296700948813e+00
2.292632465590380253e+00
2.292632465590380253e+00
2.292632465590380253e+00
2.288882351145970162e+00
2.288882351145970162e+00
2.288882351145970162e+00
2.288882351145970162e+00
2.220442762535478121e+00
2.220442762535478121e+00
2.220442762535478121e+00
2.247443586535233351e+00
2.247443586535233351e+00
2.247443586535233351e+00
2.270319284646137969e+00
2.270319284646137969e+00
2.270319284646137969e+00
2.270319284646137969e+00
2.291694936979278285e+00
2.291694936979278285e+00
2.291694936979278285e+00
2.285507248146000592e+00
2.285507248146000592e+00
2.285507248146000592e+00
2.285507248146000592e+00
2.119752189703054679e+00
2.119752189703054679e+00
2.119752189703054679e+00
2.101939146092104860e+00
2.101939146092104860e+00
2.101939146092104860e+00
2.106064271980956359e+00
2.106064271980956359e+00
2.106064271980956359e+00
2.106064271980956359e+00
2.185004181035798521e+00
2.185004181035798521e+00
2.185004181035798521e+00
2.308945463423566213e+00
2.308945463423566213e+00
2.308945463423566213e+00
2.308945463423566213e+00
2.374572466200750576e+00
2.374572466200750576e+00
2.374572466200750576e+00
2.367259743034150432e+00
2.367259743034150432e+00
2.367259743034150432e+00
2.367259743034150432e+00
2.354509353923154524e+00
2.354509353923154524e+00
2.354509353923154524e+00
2.263381572923978347e+00
2.263381572923978347e+00
2.263381572923978347e+00
2.285507248146000592e+00
2.285507248146000592e+00
2.285507248146000592e+00
2.285507248146000592e+00
2.322445875423444495e+00
2.322445875423444495e+00
2.322445875423444495e+00
2.306132877590258534e+00
2.306132877590258534e+00
2.306132877590258534e+00
2.306132877590258534e+00
2.259068941312906365e+00
2.259068941312906365e+00
2.259068941312906365e+00
2.204129764702292160e+00
2.204129764702292160e+00
2.204129764702292160e+00
2.204129764702292160e+00
2.167941160313730187e+00
2.167941160313730187e+00
2.167941160313730187e+00
2.209192419202246516e+00
2.209192419202246516e+00
2.209192419202246516e+00
2.248193609424115724e+00
2.248193609424115724e+00
2.248193609424115724e+00
2.248193609424115724e+00
2.355821893978697901e+00
2.355821893978697901e+00
2.355821893978697901e+00
2.416948759422589799e+00
2.416948759422589799e+00
2.416948759422589799e+00
2.416948759422589799e+00
2.377197546311838217e+00
2.377197546311838217e+00
2.377197546311838217e+00
2.342321481978820064e+00
2.342321481978820064e+00
2.342321481978820064e+00
2.305945371868038052e+00
2.305945371868038052e+00
2.305945371868038052e+00
2.305945371868038052e+00
2.288694845423749680e+00
2.288694845423749680e+00
2.288694845423749680e+00
2.300882717368083696e+00
2.300882717368083696e+00
2.300882717368083696e+00
2.300882717368083696e+00
2.191191869869075770e+00
2.191191869869075770e+00
2.191191869869075770e+00
2.103251686147648680e+00
2.103251686147648680e+00
2.103251686147648680e+00
2.159878414258247670e+00
2.159878414258247670e+00
2.159878414258247670e+00
2.159878414258247670e+00
2.204504776146733125e+00
2.204504776146733125e+00
2.204504776146733125e+00
2.225880428479872997e+00
2.225880428479872997e+00
2.225880428479872997e+00
2.225880428479872997e+00
2.275569444868312807e+00
2.275569444868312807e+00
2.275569444868312807e+00
2.248006103701895242e+00
2.248006103701895242e+00
2.248006103701895242e+00
2.248006103701895242e+00
2.276694479201635701e+00
2.276694479201635701e+00
2.276694479201635701e+00
2.330321115756706529e+00
2.330321115756706529e+00
2.330321115756706529e+00
2.357321939756462204e+00
2.357321939756462204e+00
2.357321939756462204e+00
2.357321939756462204e+00
2.347384136478774419e+00
2.347384136478774419e+00
2.347384136478774419e+00
2.339883907589953349e+00
2.339883907589953349e+00
2.339883907589953349e+00
2.339883907589953349e+00
2.370072328867458111e+00
2.370072328867458111e+00
2.370072328867458111e+00
2.293194982757042144e+00
2.293194982757042144e+00
2.293194982757042144e+00
2.293194982757042144e+00
2.241818414868617992e+00
2.241818414868617992e+00
2.241818414868617992e+00
2.116564592425305591e+00
2.116564592425305591e+00
2.116564592425305591e+00
2.043062349314859638e+00
2.043062349314859638e+00
2.043062349314859638e+00
2.043062349314859638e+00
2.159878414258247670e+00
2.159878414258247670e+00
2.159878414258247670e+00
2.326195989867855030e+00
2.326195989867855030e+00
2.326195989867855030e+00
2.326195989867855030e+00
2.377010040589617734e+00
2.377010040589617734e+00
2.377010040589617734e+00
2.265069124423963132e+00
2.265069124423963132e+00
2.265069124423963132e+00
2.265069124423963132e+00
2.250818689535202921e+00
2.250818689535202921e+00
2.250818689535202921e+00
2.255318826868495830e+00
2.255318826868495830e+00
2.255318826868495830e+00
2.239193334757530351e+00
2.239193334757530351e+00
2.239193334757530351e+00
2.239193334757530351e+00
2.194941984313486305e+00
2.194941984313486305e+00
2.194941984313486305e+00
2.250818689535202921e+00
2.250818689535202921e+00
2.250818689535202921e+00
2.250818689535202921e+00
2.429324137089144742e+00
2.429324137089144742e+00
2.429324137089144742e+00
2.369697317423017147e+00
2.369697317423017147e+00
2.369697317423017147e+00
2.199067110202337361e+00
2.199067110202337361e+00
2.199067110202337361e+00
2.199067110202337361e+00
2.181441572313608468e+00
2.181441572313608468e+00
2.181441572313608468e+00
2.267131687368389326e+00
2.267131687368389326e+00
2.267131687368389326e+00
2.267131687368389326e+00
2.203379741813409787e+00
2.203379741813409787e+00
2.203379741813409787e+00
2.280069582201605716e+00
2.280069582201605716e+00
2.280069582201605716e+00
2.280069582201605716e+00
2.366884731589709023e+00
2.366884731589709023e+00
2.366884731589709023e+00
2.358634479812006024e+00
2.358634479812006024e+00
2.358634479812006024e+00
2.386197820978423145e+00
2.386197820978423145e+00
2.386197820978423145e+00
2.386197820978423145e+00
2.309882992034669069e+00
2.309882992034669069e+00
2.309882992034669069e+00
2.283444685201574842e+00
2.283444685201574842e+00
2.283444685201574842e+00
2.283444685201574842e+00
2.157440839869380955e+00
2.157440839869380955e+00
2.157440839869380955e+00
2.195504501480147752e+00
2.195504501480147752e+00
2.195504501480147752e+00
2.231505600146489243e+00
2.231505600146489243e+00
2.231505600146489243e+00
2.231505600146489243e+00
2.241068391979735619e+00
2.241068391979735619e+00
2.241068391979735619e+00
2.250256172368541474e+00
2.250256172368541474e+00
2.250256172368541474e+00
2.250256172368541474e+00
2.212567522202215642e+00
2.212567522202215642e+00
2.212567522202215642e+00
2.171503769035920239e+00
2.171503769035920239e+00
2.171503769035920239e+00
2.169441206091494490e+00
2.169441206091494490e+00
2.169441206091494490e+00
2.169441206091494490e+00
2.312133060701315301e+00
2.312133060701315301e+00
2.312133060701315301e+00
2.361447065645314147e+00
2.361447065645314147e+00
2.361447065645314147e+00
2.361447065645314147e+00
2.287757316812646824e+00
2.287757316812646824e+00
2.287757316812646824e+00
2.348696676534318240e+00
2.348696676534318240e+00
2.348696676534318240e+00
2.348696676534318240e+00
2.300132694479201767e+00
2.300132694479201767e+00
2.300132694479201767e+00
2.326008484145634547e+00
2.326008484145634547e+00
2.326008484145634547e+00
2.400073244422742391e+00
2.400073244422742391e+00
2.400073244422742391e+00
2.400073244422742391e+00
2.257943906979583026e+00
2.257943906979583026e+00
2.257943906979583026e+00
2.288319833979308715e+00
2.288319833979308715e+00
2.288319833979308715e+00
2.288319833979308715e+00
2.184816675313578038e+00
2.184816675313578038e+00
2.184816675313578038e+00
2.206754844813379357e+00
2.206754844813379357e+00
2.206754844813379357e+00
2.251943723868526259e+00
2.251943723868526259e+00
2.251943723868526259e+00
2.251943723868526259e+00
2.146753013702810797e+00
2.146753013702810797e+00
2.146753013702810797e+00
2.188379284035767647e+00
2.188379284035767647e+00
2.188379284035767647e+00
2.188379284035767647e+00
2.382635212256233537e+00
2.382635212256233537e+00
2.382635212256233537e+00
2.395010589922788480e+00
2.395010589922788480e+00
2.395010589922788480e+00
2.395010589922788480e+00
2.316820703756828248e+00
2.316820703756828248e+00
2.316820703756828248e+00
2.300507705923642732e+00
2.300507705923642732e+00
2.300507705923642732e+00
2.351509262367625919e+00
2.351509262367625919e+00
2.351509262367625919e+00
2.351509262367625919e+00
2.259256447035126847e+00
2.259256447035126847e+00
2.259256447035126847e+00
2.192691915646840073e+00
2.192691915646840073e+00
2.192691915646840073e+00
2.192691915646840073e+00
2.118627155369731785e+00
2.118627155369731785e+00
2.118627155369731785e+00
2.240130863368633207e+00
2.240130863368633207e+00
2.240130863368633207e+00
2.227192968535416817e+00
2.227192968535416817e+00
2.227192968535416817e+00
2.227192968535416817e+00
2.274069399090548504e+00
2.274069399090548504e+00
2.274069399090548504e+00
2.268631733146153184e+00
2.268631733146153184e+00
2.268631733146153184e+00
2.268631733146153184e+00
2.200567155980101663e+00
2.200567155980101663e+00
2.200567155980101663e+00
2.201317178868984037e+00
2.201317178868984037e+00
2.201317178868984037e+00
2.201317178868984037e+00
2.277069490646077110e+00
2.277069490646077110e+00
2.277069490646077110e+00
2.264506607257301685e+00
2.264506607257301685e+00
2.264506607257301685e+00
2.371572374645222414e+00
2.371572374645222414e+00
2.371572374645222414e+00
2.371572374645222414e+00
2.350946745200964472e+00
2.350946745200964472e+00
2.350946745200964472e+00
2.334821253089998994e+00
2.334821253089998994e+00
2.334821253089998994e+00
2.334821253089998994e+00
2.128939970091860534e+00
2.128939970091860534e+00
2.128939970091860534e+00
2.201692190313425002e+00
2.201692190313425002e+00
2.201692190313425002e+00
2.392573015533921321e+00
2.392573015533921321e+00
2.392573015533921321e+00
2.392573015533921321e+00
2.333696218756676100e+00
2.333696218756676100e+00
2.333696218756676100e+00
2.235630726035340299e+00
2.235630726035340299e+00
2.235630726035340299e+00
2.235630726035340299e+00
2.198317087313455875e+00
2.198317087313455875e+00
2.198317087313455875e+00
2.149190588091677956e+00
2.149190588091677956e+00
2.149190588091677956e+00
2.149190588091677956e+00
2.220442762535478121e+00
2.220442762535478121e+00
2.220442762535478121e+00
2.320945829645680192e+00
2.320945829645680192e+00
2.320945829645680192e+00
2.305382854701376161e+00
2.305382854701376161e+00
2.305382854701376161e+00
2.305382854701376161e+00
2.245943540757469048e+00
2.245943540757469048e+00
2.245943540757469048e+00
2.381135166478469234e+00
2.381135166478469234e+00
2.381135166478469234e+00
2.381135166478469234e+00
2.364447157200842309e+00
2.364447157200842309e+00
2.364447157200842309e+00
2.256818872646260132e+00
2.256818872646260132e+00
2.256818872646260132e+00
2.256818872646260132e+00
2.200567155980101663e+00
2.200567155980101663e+00
2.200567155980101663e+00
2.258881435590685438e+00
2.258881435590685438e+00
2.258881435590685438e+00
2.294882534257026929e+00
2.294882534257026929e+00
2.294882534257026929e+00
2.294882534257026929e+00
2.216130130924405695e+00
2.216130130924405695e+00
2.216130130924405695e+00
2.237505783257545566e+00
2.237505783257545566e+00
2.237505783257545566e+00
2.212192510757774677e+00
2.212192510757774677e+00
2.212192510757774677e+00
2.212192510757774677e+00
2.241443403424177028e+00
2.241443403424177028e+00
2.241443403424177028e+00
2.147878048036134135e+00
2.147878048036134135e+00
2.147878048036134135e+00
2.147878048036134135e+00
2.241818414868617992e+00
2.241818414868617992e+00
2.241818414868617992e+00
2.392198004089480357e+00
2.392198004089480357e+00
2.392198004089480357e+00
2.392198004089480357e+00
2.269006744590594149e+00
2.269006744590594149e+00
2.269006744590594149e+00
2.225505417035432032e+00
2.225505417035432032e+00
2.225505417035432032e+00
2.306695394756919981e+00
2.306695394756919981e+00
2.306695394756919981e+00
2.306695394756919981e+00
2.279882076479384789e+00
2.279882076479384789e+00
2.279882076479384789e+00
2.277819513534959039e+00
2.277819513534959039e+00
2.332383678701132279e+00
2.332383678701132279e+00
2.333321207312235135e+00
2.333321207312235135e+00
2.310445509201330516e+00
2.272569353312784202e+00
2.272569353312784202e+00
2.209942442091128445e+00
2.209942442091128445e+00
2.029749443037202283e+00
2.025624317148350340e+00
2.025624317148350340e+00
2.252318735312967224e+00
2.252318735312967224e+00
2.362009582811975594e+00
2.434574297311319135e+00
2.434574297311319135e+00
2.447699697866756008e+00
2.375885006256294396e+00
2.375885006256294396e+00
2.304257820368053267e+00
2.304257820368053267e+00
2.321508346812341639e+00
2.156690816980498582e+00
2.173753837702566916e+00
2.173753837702566916e+00
2.151253151036103706e+00
2.151253151036103706e+00
2.309507980590228104e+00
2.394073061311685624e+00
2.394073061311685624e+00
2.146002990813928868e+00
2.086563676870021755e+00
2.086563676870021755e+00
2.212380016479995160e+00
2.212380016479995160e+00
2.373072420422986717e+00
2.446574663533433114e+00
2.446574663533433114e+00
2.464387707144383377e+00
2.464387707144383377e+00
2.433074251533554833e+00
2.400073244422742391e+00
2.400073244422742391e+00
2.311383037812433372e+00
2.311383037812433372e+00
2.173941343424787398e+00
2.005561204870754288e+00
2.005561204870754288e+00
2.029749443037202283e+00
2.029749443037202283e+00
2.039687246314890068e+00
2.088251228370006540e+00
2.088251228370006540e+00
2.197754570146794428e+00
2.197754570146794428e+00
2.386385326700643628e+00
2.296757591479232197e+00
2.296757591479232197e+00
2.354321848200934042e+00
2.467575304422132465e+00
2.467575304422132465e+00
2.415823725089266905e+00
2.415823725089266905e+00
2.287757316812646824e+00
2.225505417035432032e+00
2.225505417035432032e+00
2.261506515701773079e+00
2.261506515701773079e+00
2.243318460646382295e+00
2.201879696035645484e+00
2.201879696035645484e+00
2.331633655812249906e+00
2.331633655812249906e+00
2.189129306924649576e+00
2.183691640980254700e+00
2.183691640980254700e+00
2.247443586535233351e+00
2.247443586535233351e+00
2.361634571367534630e+00
2.384135258033997840e+00
2.241818414868617992e+00
2.241818414868617992e+00
2.302945280312509890e+00
2.302945280312509890e+00
2.344009033478804849e+00
2.253256263924070080e+00
2.253256263924070080e+00
2.295632557145908859e+00
2.358071962645344577e+00
2.358071962645344577e+00
2.307820429090243319e+00
2.307820429090243319e+00
2.186504226813562823e+00
2.259818964201788294e+00
2.259818964201788294e+00
2.137565233314004942e+00
2.137565233314004942e+00
2.053750175481429796e+00
2.095563951536606684e+00
2.095563951536606684e+00
2.150503128147221332e+00
2.215942625202185212e+00
2.215942625202185212e+00
2.483513290810876573e+00
2.483513290810876573e+00
2.536202398754844989e+00
2.445449629200109776e+00
2.445449629200109776e+00
2.289632374034852091e+00
2.289632374034852091e+00
2.198317087313455875e+00
2.191566881313516735e+00
2.191566881313516735e+00
2.174128849147007880e+00
2.239380840479750834e+00
2.239380840479750834e+00
2.307257911923581428e+00
2.307257911923581428e+00
2.194754478591265823e+00
2.152190679647205673e+00
2.152190679647205673e+00
2.300882717368083696e+00
2.300882717368083696e+00
2.362572099978637485e+00
2.357321939756462204e+00
2.357321939756462204e+00
2.144315439313944083e+00
2.144315439313944083e+00
2.207129856257820322e+00
2.251568712424085295e+00
2.251568712424085295e+00
2.331258644367808941e+00
2.325820978423414065e+00
2.325820978423414065e+00
2.295445051423688376e+00
2.295445051423688376e+00
2.210504959257789892e+00
2.253068758201849597e+00
2.253068758201849597e+00
2.249318643757439062e+00
2.249318643757439062e+00
2.066500564592425260e+00
2.055812738425855546e+00
2.055812738425855546e+00
2.315695669423505798e+00
2.315695669423505798e+00
2.362384594256416559e+00
2.464387707144383377e+00
2.464387707144383377e+00
2.479763176366466482e+00
2.270319284646137969e+00
2.270319284646137969e+00
2.138127750480666833e+00
2.138127750480666833e+00
2.254943815424054865e+00
2.293382488479262626e+00
2.293382488479262626e+00
2.271444318979460864e+00
2.271444318979460864e+00
2.227567979979857782e+00
2.340446424756614796e+00
2.340446424756614796e+00
2.329383587145603673e+00
2.270319284646137969e+00
2.270319284646137969e+00
2.341383953367717208e+00
2.341383953367717208e+00
2.294507522812585520e+00
2.116002075258644588e+00
2.116002075258644588e+00
2.267131687368389326e+00
2.267131687368389326e+00
2.202817224646748340e+00
2.370072328867458111e+00
2.370072328867458111e+00
2.374947477645191540e+00
2.374947477645191540e+00
2.305382854701376161e+00
2.001623584704122827e+00
2.001623584704122827e+00
2.176753929258095077e+00
2.389947935422834124e+00
2.389947935422834124e+00
2.277444502090518075e+00
2.277444502090518075e+00
2.128002441480758122e+00
2.188379284035767647e+00
2.188379284035767647e+00
2.389197912533951751e+00
2.389197912533951751e+00
2.381322672200689716e+00
2.137002716147343495e+00
2.137002716147343495e+00
2.081876033814508364e+00
2.081876033814508364e+00
2.205629810480056463e+00
2.224755394146549659e+00
2.224755394146549659e+00
2.406448438978240567e+00
2.208254890591143660e+00
2.208254890591143660e+00
2.278757042146061895e+00
2.278757042146061895e+00
2.466262764366588645e+00
2.332383678701132279e+00
2.332383678701132279e+00
2.230568071535386387e+00
2.230568071535386387e+00
2.236943266090884119e+00
2.361634571367534630e+00
2.361634571367534630e+00
2.305757866145817125e+00
2.305757866145817125e+00
2.258693929868464956e+00
2.080188482314524023e+00
2.080188482314524023e+00
2.147878048036134135e+00
2.147878048036134135e+00
2.337821344645527599e+00
2.329571092867824156e+00
2.329571092867824156e+00
2.271256813257240381e+00
2.248381115146336207e+00
2.248381115146336207e+00
2.379447614978484449e+00
2.379447614978484449e+00
2.381885189367351607e+00
2.211254982146671821e+00
2.211254982146671821e+00
2.236380748924222672e+00
2.236380748924222672e+00
2.108314340647602592e+00
2.129502487258521981e+00
2.129502487258521981e+00
2.268069215979491737e+00
2.268069215979491737e+00
2.327321024201178368e+00
2.443199560533463544e+00
2.443199560533463544e+00
2.391260475478377501e+00
2.391260475478377501e+00
2.343259010589922919e+00
2.298820154423657947e+00
2.298820154423657947e+00
2.352821802423169739e+00
2.311008026367992407e+00
2.311008026367992407e+00
2.198317087313455875e+00
2.198317087313455875e+00
2.241630909146397510e+00
2.124814844203009478e+00
2.124814844203009478e+00
2.193254432813501520e+00
2.193254432813501520e+00
2.207879879146702695e+00
2.037437177648243392e+00
2.037437177648243392e+00
2.155753288369396170e+00
2.155753288369396170e+00
2.298445142979216982e+00
2.279132053590502860e+00
2.279132053590502860e+00
2.349071687978759204e+00
2.562828211310159254e+00
2.562828211310159254e+00
2.538639973143711703e+00
2.538639973143711703e+00
2.211629993591112786e+00
1.944059327982421204e+00
1.944059327982421204e+00
2.200754661702322146e+00
2.200754661702322146e+00
2.320945829645680192e+00
2.336133793145542814e+00
2.336133793145542814e+00
2.360884548478652700e+00
2.360884548478652700e+00
2.337633838923307117e+00
2.352446790978728330e+00
2.352446790978728330e+00
2.155565782647175688e+00
2.155565782647175688e+00
2.181629078035828950e+00
2.357884456923124095e+00
2.357884456923124095e+00
2.385260292367321178e+00
2.407948484756004870e+00
2.407948484756004870e+00
2.214067567979979945e+00
2.214067567979979945e+00
2.122939786980803767e+00
2.147315530869472244e+00
2.147315530869472244e+00
2.152003173924985191e+00
2.152003173924985191e+00
2.260756492812891150e+00
2.419386333811456957e+00
2.419386333811456957e+00
2.407198461867122496e+00
2.312133060701315301e+00
2.312133060701315301e+00
2.265069124423963132e+00
2.265069124423963132e+00
2.282507156590471986e+00
2.236380748924222672e+00
2.236380748924222672e+00
2.231693105868709726e+00
2.231693105868709726e+00
2.161003448591571008e+00
2.198317087313455875e+00
2.198317087313455875e+00
2.259818964201788294e+00
2.259818964201788294e+00
2.159878414258247670e+00
2.198692098757896396e+00
2.198692098757896396e+00
2.456512466811120898e+00
2.439261940366832526e+00
2.439261940366832526e+00
2.340446424756614796e+00
2.340446424756614796e+00
2.203942258980071234e+00
2.177316446424756524e+00
2.177316446424756524e+00
2.165316080202642990e+00
2.165316080202642990e+00
2.100626606036561483e+00
2.297695120090334608e+00
2.297695120090334608e+00
2.328821069978942226e+00
2.328821069978942226e+00
2.286257271034882521e+00
2.254193792535172935e+00
2.254193792535172935e+00
2.326758507034516477e+00
2.326758507034516477e+00
2.335008758812219920e+00
2.386760338145085036e+00
2.386760338145085036e+00
2.342883999145481511e+00
2.342883999145481511e+00
2.298445142979216982e+00
2.291132419812616394e+00
2.291132419812616394e+00
2.173191320535905025e+00
2.305757866145817125e+00
2.305757866145817125e+00
2.291319925534837321e+00
2.291319925534837321e+00
2.527014618366038690e+00
2.473762993255409270e+00
2.473762993255409270e+00
2.360134525589770327e+00
2.360134525589770327e+00
1.932433973204748634e+00
1.810555253761406247e+00
1.810555253761406247e+00
2.274444410534989469e+00
2.274444410534989469e+00
2.401385784478286212e+00
2.241443403424177028e+00
2.241443403424177028e+00
2.161940977202673420e+00
2.260006469924008776e+00
2.260006469924008776e+00
2.279694570757164307e+00
2.279694570757164307e+00
2.305945371868038052e+00
2.309695486312448587e+00
2.309695486312448587e+00
2.318883266701254442e+00
2.318883266701254442e+00
2.081501022370067400e+00
2.229630542924283532e+00
2.229630542924283532e+00
2.354884365367595489e+00
2.354884365367595489e+00
2.331633655812249906e+00
2.306695394756919981e+00
2.306695394756919981e+00
2.275194433423871843e+00
2.275194433423871843e+00
2.185566698202459968e+00
2.376072511978514878e+00
2.376072511978514878e+00
2.583828852198858606e+00
2.401948301644947659e+00
2.401948301644947659e+00
2.231505600146489243e+00
2.231505600146489243e+00
2.181629078035828950e+00
2.270694296090578934e+00
2.270694296090578934e+00
2.369322305978576182e+00
2.369322305978576182e+00
2.363322122867518971e+00
2.252506241035188150e+00
2.252506241035188150e+00
2.139815301980651618e+00
2.139815301980651618e+00
2.244255989257484707e+00
2.325258461256752618e+00
2.325258461256752618e+00
2.507514023255104085e+00
2.507514023255104085e+00
2.484825830866420393e+00
2.293007477034821662e+00
2.293007477034821662e+00
2.191004364146854844e+00
2.042499832148198191e+00
2.042499832148198191e+00
2.200379650257881181e+00
2.200379650257881181e+00
2.294320017090365038e+00
2.322820886867885459e+00
2.322820886867885459e+00
2.379260109256263966e+00
2.379260109256263966e+00
2.303695303201391820e+00
2.399698232978301426e+00
2.399698232978301426e+00
2.368759788811914291e+00
2.368759788811914291e+00
2.226630451368755370e+00
2.183316629535813735e+00
2.183316629535813735e+00
2.223817865535447247e+00
2.057875301370280852e+00
2.057875301370280852e+00
2.143940427869502674e+00
2.143940427869502674e+00
2.205442304757835537e+00
2.272756859035004684e+00
2.272756859035004684e+00
2.239943357646412725e+00
2.239943357646412725e+00
2.247818597979674760e+00
2.222505325479903426e+00
2.222505325479903426e+00
2.184629169591357556e+00
2.184629169591357556e+00
2.430074159978026671e+00
2.682831873531296818e+00
2.682831873531296818e+00
2.477325601977599767e+00
2.218005188146610962e+00
2.218005188146610962e+00
2.313820612201300086e+00
2.313820612201300086e+00
2.272569353312784202e+00
2.173566331980346433e+00
2.173566331980346433e+00
2.244631000701926116e+00
2.244631000701926116e+00
2.404948393200476264e+00
2.276131962034974254e+00
2.276131962034974254e+00
2.107751823480941145e+00
2.107751823480941145e+00
2.245943540757469048e+00
2.306695394756919981e+00
2.306695394756919981e+00
2.167191137424848257e+00
2.167191137424848257e+00
2.407198461867122496e+00
2.207317361980041248e+00
2.207317361980041248e+00
2.022624225592822178e+00
2.146378002258369833e+00
2.146378002258369833e+00
2.402885830256050514e+00
2.402885830256050514e+00
2.339696401867732423e+00
2.305382854701376161e+00
2.305382854701376161e+00
2.210317453535568966e+00
2.210317453535568966e+00
2.200004638813440216e+00
2.179941526535844165e+00
2.179941526535844165e+00
2.141877864925076924e+00
2.141877864925076924e+00
2.390322946867275089e+00
2.389010406811731269e+00
2.389010406811731269e+00
2.438136906033509188e+00
2.438136906033509188e+00
2.530952238532670151e+00
2.279319559312723342e+00
2.279319559312723342e+00
2.259068941312906365e+00
2.327508529923398850e+00
2.327508529923398850e+00
2.387697866756187448e+00
2.387697866756187448e+00
2.302382763145847999e+00
2.030686971648304695e+00
2.030686971648304695e+00
1.979685415204321286e+00
1.979685415204321286e+00
2.043812372203741567e+00
2.010248847926267679e+00
2.010248847926267679e+00
2.159315897091586223e+00
2.159315897091586223e+00
2.321133335367900674e+00
2.547640247810297076e+00
2.547640247810297076e+00
2.472450453199865894e+00
2.344571550645466296e+00
2.344571550645466296e+00
2.327133518478957885e+00
2.327133518478957885e+00
2.374947477645191540e+00
2.092001342814417075e+00
2.092001342814417075e+00
2.076250862147892562e+00
2.076250862147892562e+00
2.361447065645314147e+00
2.461762627033295736e+00
2.461762627033295736e+00
2.393885555589465142e+00
2.393885555589465142e+00
2.253631275368511044e+00
2.191379375591296252e+00
2.191379375591296252e+00
2.135877681814020157e+00
2.135877681814020157e+00
1.895682851649525658e+00
2.027686880092776089e+00
2.027686880092776089e+00
2.419011322367015993e+00
2.686394482253486871e+00
2.686394482253486871e+00
2.579516220587786623e+00
2.579516220587786623e+00
2.246506057924130939e+00
2.133065095980712478e+00
2.133065095980712478e+00
2.170753746147038310e+00
2.170753746147038310e+00
2.312320566423536228e+00
2.306320383312479017e+00
2.306320383312479017e+00
2.355446882534256936e+00
2.355446882534256936e+00
2.249693655201880027e+00
2.275006927701650916e+00
2.275006927701650916e+00
2.160628437147130043e+00
2.286632282479323930e+00
2.286632282479323930e+00
2.403260841700491479e+00
2.403260841700491479e+00
2.363322122867518971e+00
2.251568712424085295e+00
2.251568712424085295e+00
2.197942075869014911e+00
2.197942075869014911e+00
2.081876033814508364e+00
2.149003082369457029e+00
2.149003082369457029e+00
2.237130771813104602e+00
2.237130771813104602e+00
2.278194524979400004e+00
2.446574663533433114e+00
2.446574663533433114e+00
2.419011322367015993e+00
2.155378276924954761e+00
2.155378276924954761e+00
2.127627430036317158e+00
2.127627430036317158e+00
2.262256538590655452e+00
2.261881527146214044e+00
2.261881527146214044e+00
2.045687429425947279e+00
2.045687429425947279e+00
2.308007934812463802e+00
2.522139469588305261e+00
2.522139469588305261e+00
2.533952330088198757e+00
2.533952330088198757e+00
2.309507980590228104e+00
2.177878963591417971e+00
2.177878963591417971e+00
2.242755943479720404e+00
2.319820795312356854e+00
2.319820795312356854e+00
2.119189672536393232e+00
2.119189672536393232e+00
2.018686605426191161e+00
2.229068025757622085e+00
2.229068025757622085e+00
2.233943174535355514e+00
2.233943174535355514e+00
2.349259193700979687e+00
2.462887661366619074e+00
2.462887661366619074e+00
2.507514023255104085e+00
2.507514023255104085e+00
2.324133426923429280e+00
2.175253883480330774e+00
2.175253883480330774e+00
2.142815393536179780e+00
2.142815393536179780e+00
2.202442213202307375e+00
2.236005737479781263e+00
2.236005737479781263e+00
2.128189947202978605e+00
2.140565324869533104e+00
2.140565324869533104e+00
2.193816949980162967e+00
2.193816949980162967e+00
2.361072054200873183e+00
2.424261482589190386e+00
2.424261482589190386e+00
2.306882900479140464e+00
2.306882900479140464e+00
2.249131138035218136e+00
2.385635303811762142e+00
2.385635303811762142e+00
2.481638233588671305e+00
2.481638233588671305e+00
2.264506607257301685e+00
2.081501022370067400e+00
2.081501022370067400e+00
2.078313425092318756e+00
2.078313425092318756e+00
2.044187383648182976e+00
2.216880153813287624e+00
2.216880153813287624e+00
2.466637775811029609e+00
2.547265236365856111e+00
2.547265236365856111e+00
2.488575945310831372e+00
2.488575945310831372e+00
2.279319559312723342e+00
2.047937498092593067e+00
2.047937498092593067e+00
2.004436170537430950e+00
2.004436170537430950e+00
2.345884090701010116e+00
2.491951048310800498e+00
2.491951048310800498e+00
2.311008026367992407e+00
2.311008026367992407e+00
2.232630634479812137e+00
2.296195074312570750e+00
2.296195074312570750e+00
2.159315897091586223e+00
2.159315897091586223e+00
2.110939420758690233e+00
2.310258003479110034e+00
2.310258003479110034e+00
2.345884090701010116e+00
2.255693838312936794e+00
2.255693838312936794e+00
2.190441846980193397e+00
2.190441846980193397e+00
2.110189397869807859e+00
2.169441206091494490e+00
2.169441206091494490e+00
2.371197363200781449e+00
2.371197363200781449e+00
2.435324320200201509e+00
2.368947294534135217e+00
2.368947294534135217e+00
2.338571367534409973e+00
2.338571367534409973e+00
2.266381664479506952e+00
2.248381115146336207e+00
2.248381115146336207e+00
2.231318094424268317e+00
2.193816949980162967e+00
2.193816949980162967e+00
2.275006927701650916e+00
2.275006927701650916e+00
2.272569353312784202e+00
2.265444135868404540e+00
2.265444135868404540e+00
2.146002990813928868e+00
2.146002990813928868e+00
2.075688344981231115e+00
2.325633472701193583e+00
2.325633472701193583e+00
2.380010132145145896e+00
2.380010132145145896e+00
2.447324686422315043e+00
2.311570543534653854e+00
2.311570543534653854e+00
2.514639240699484635e+00
2.514639240699484635e+00
2.343446516312143402e+00
2.215005096591082356e+00
2.215005096591082356e+00
2.281757133701590057e+00
2.330883632923367976e+00
2.330883632923367976e+00
2.356009399700918827e+00
2.356009399700918827e+00
2.182379100924710880e+00
2.034437086092715230e+00
2.034437086092715230e+00
2.080188482314524023e+00
2.080188482314524023e+00
2.173003814813684542e+00
2.333696218756676100e+00
2.333696218756676100e+00
2.210317453535568966e+00
2.090501297036652772e+00
2.090501297036652772e+00
2.275569444868312807e+00
2.275569444868312807e+00
2.471325418866542556e+00
2.480513199255348411e+00
2.480513199255348411e+00
2.375697500534073914e+00
2.375697500534073914e+00
2.357884456923124095e+00
2.186316721091342341e+00
2.186316721091342341e+00
2.217255165257729033e+00
2.217255165257729033e+00
2.128564958647419569e+00
2.146002990813928868e+00
2.146002990813928868e+00
2.227755485702078264e+00
2.227755485702078264e+00
2.269944273201696561e+00
2.254568803979613900e+00
2.254568803979613900e+00
2.251193700979644330e+00
2.251193700979644330e+00
2.316070680867946319e+00
2.278757042146061895e+00
2.278757042146061895e+00
2.419198828089236475e+00
2.372509903256325270e+00
2.372509903256325270e+00
2.337446333201086635e+00
2.337446333201086635e+00
2.184629169591357556e+00
2.140377819147312621e+00
2.140377819147312621e+00
2.172816309091464060e+00
2.172816309091464060e+00
2.316070680867946319e+00
2.394448072756126589e+00
2.394448072756126589e+00
2.293945005645924073e+00
2.293945005645924073e+00
2.168691183202612560e+00
2.290757408368175430e+00
2.290757408368175430e+00
2.160815942869350526e+00
2.160815942869350526e+00
2.269381756035035114e+00
2.426324045533616136e+00
2.426324045533616136e+00
2.379635120700704931e+00
2.196817041535691573e+00
2.196817041535691573e+00
2.252131229590746742e+00
2.252131229590746742e+00
2.352446790978728330e+00
2.378697592089602519e+00
2.378697592089602519e+00
2.177878963591417971e+00
2.177878963591417971e+00
2.169628711813714972e+00
2.293194982757042144e+00
2.257943906979583026e+00
2.155378276924954761e+00
2.155378276924954761e+00
2.257006378368480615e+00
2.206192327646717910e+00
2.206192327646717910e+00
2.152190679647205673e+00
2.152190679647205673e+00
2.153128208258308529e+00
2.129314981536301499e+00
2.129314981536301499e+00
2.294507522812585520e+00
2.541452558977019383e+00
2.541452558977019383e+00
2.547077730643635629e+00
2.547077730643635629e+00
2.347384136478774419e+00
2.126314889980773337e+00
2.126314889980773337e+00
2.130440015869624837e+00
2.130440015869624837e+00
2.233943174535355514e+00
2.330321115756706529e+00
2.330321115756706529e+00
2.258693929868464956e+00
2.258693929868464956e+00
2.225880428479872997e+00
2.307257911923581428e+00
2.307257911923581428e+00
2.314195623645741495e+00
2.314195623645741495e+00
2.353196813867610704e+00
2.448074709311197417e+00
2.448074709311197417e+00
2.328071047090059853e+00
2.252131229590746742e+00
2.252131229590746742e+00
2.176941434980315559e+00
2.176941434980315559e+00
2.237318277535325084e+00
2.323945921201208797e+00
2.323945921201208797e+00
2.269194250312814631e+00
2.269194250312814631e+00
2.129689992980742907e+00
2.153503219702749494e+00
2.153503219702749494e+00
2.239380840479750834e+00
2.239380840479750834e+00
2.211067476424451339e+00
2.358634479812006024e+00
2.358634479812006024e+00
2.392573015533921321e+00
2.354884365367595489e+00
2.354884365367595489e+00
2.347571642200994901e+00
2.347571642200994901e+00
2.326758507034516477e+00
2.266569170201727434e+00
2.266569170201727434e+00
2.217630176702169997e+00
2.217630176702169997e+00
2.244068483535264225e+00
2.222880336924344391e+00
2.134752647480697263e+00
2.134752647480697263e+00
2.161003448591571008e+00
2.201129673146763555e+00
2.201129673146763555e+00
2.296945097201452679e+00
2.296945097201452679e+00
2.278757042146061895e+00
2.290757408368175430e+00
2.290757408368175430e+00
2.345321573534348669e+00
2.398385692922757606e+00
2.398385692922757606e+00
2.482200750755333196e+00
2.482200750755333196e+00
2.397448164311655194e+00
2.268069215979491737e+00
2.268069215979491737e+00
2.161940977202673420e+00
2.161940977202673420e+00
2.047937498092593067e+00
1.995998413037507468e+00
1.995998413037507468e+00
2.092188848536637558e+00
2.092188848536637558e+00
2.282319650868251504e+00
2.248756126590777171e+00
2.248756126590777171e+00
2.285132236701559627e+00
2.442074526200140649e+00
2.442074526200140649e+00
2.446574663533433114e+00
2.446574663533433114e+00
2.378885097811823002e+00
2.311008026367992407e+00
2.311008026367992407e+00
2.410386059144871140e+00
2.410386059144871140e+00
2.194004455702383449e+00
2.189504318369090985e+00
2.189504318369090985e+00
2.210129947813348927e+00
2.210129947813348927e+00
2.075875850703451597e+00
2.113752006591998356e+00
2.113752006591998356e+00
2.281194616534928166e+00
2.281194616534928166e+00
2.345321573534348669e+00
2.322445875423444495e+00
2.322445875423444495e+00
2.376822534867396808e+00
2.328071047090059853e+00
2.328071047090059853e+00
2.293757499923703591e+00
2.293757499923703591e+00
2.380385143589587305e+00
2.380197637867366822e+00
2.380197637867366822e+00
2.276694479201635701e+00
2.114314523758659803e+00
2.114314523758659803e+00
2.105876766258735877e+00
2.122564775536362802e+00
2.122564775536362802e+00
2.285694753868221074e+00
2.476575579088717394e+00
2.476575579088717394e+00
2.303695303201391820e+00
2.303695303201391820e+00
2.046812463759269729e+00
2.070813196203497242e+00
2.070813196203497242e+00
2.340633930478835278e+00
2.340633930478835278e+00
2.444512100589007364e+00
2.431011688589129527e+00
2.431011688589129527e+00
2.381135166478469234e+00
2.381135166478469234e+00
2.325445966978973100e+00
2.307632923368022837e+00
2.307632923368022837e+00
2.248381115146336207e+00
2.189691824091311467e+00
2.189691824091311467e+00
2.135502670369579192e+00
2.135502670369579192e+00
2.221380291146580532e+00
2.227380474257637299e+00
2.227380474257637299e+00
2.235255714590899334e+00
2.235255714590899334e+00
2.233568163090914993e+00
2.296757591479232197e+00
2.296757591479232197e+00
2.228130497146519229e+00
2.228130497146519229e+00
2.237505783257545566e+00
2.428574114200262368e+00
2.428574114200262368e+00
2.393323038422803695e+00
2.393323038422803695e+00
2.278194524979400004e+00
2.182566606646931362e+00
2.182566606646931362e+00
2.220630268257698603e+00
2.338946378978850937e+00
2.338946378978850937e+00
2.232818140202032620e+00
2.232818140202032620e+00
2.339508896145511940e+00
2.340446424756614796e+00
2.340446424756614796e+00
2.239380840479750834e+00
2.239380840479750834e+00
2.298632648701437464e+00
2.305195348979155678e+00
2.305195348979155678e+00
2.306320383312479017e+00
2.306320383312479017e+00
2.154440748313852350e+00
2.185754203924680450e+00
2.185754203924680450e+00
2.180691549424726094e+00
2.275756950590533290e+00
2.275756950590533290e+00
2.302382763145847999e+00
2.302382763145847999e+00
2.324133426923429280e+00
2.347571642200994901e+00
2.347571642200994901e+00
2.069125644703512901e+00
2.218005188146610962e+00
2.218005188146610962e+00
2.320570818201239227e+00
2.320570818201239227e+00
2.337821344645527599e+00
2.259443952757347329e+00
2.259443952757347329e+00
2.247443586535233351e+00
2.314383129367961978e+00
2.314383129367961978e+00
2.375134983367412023e+00
2.375134983367412023e+00
2.243880977813043742e+00
2.177503952146977007e+00
2.177503952146977007e+00
2.254943815424054865e+00
2.254943815424054865e+00
2.378135074922940628e+00
2.281194616534928166e+00
2.281194616534928166e+00
2.339133884701071420e+00
2.339133884701071420e+00
2.221942808313242423e+00
2.245193517868587563e+00
2.245193517868587563e+00
2.334258735923337547e+00
2.334258735923337547e+00
2.344384044923245813e+00
2.158753379924924776e+00
2.158753379924924776e+00
2.131752555925168657e+00
2.131752555925168657e+00
2.368947294534135217e+00
2.351509262367625919e+00
2.351509262367625919e+00
2.391260475478377501e+00
2.269194250312814631e+00
2.269194250312814631e+00
2.191754387035737217e+00
2.191754387035737217e+00
2.118814661091952267e+00
2.109626880703146412e+00
2.109626880703146412e+00
2.198317087313455875e+00
2.198317087313455875e+00
2.309132969145787140e+00
2.298632648701437464e+00
2.298632648701437464e+00
2.251006195257423848e+00
2.251006195257423848e+00
2.264506607257301685e+00
2.302757774590289408e+00
2.302757774590289408e+00
2.358821985534226506e+00
2.358821985534226506e+00
2.278007019257179522e+00
2.205442304757835537e+00
2.205442304757835537e+00
2.353384319589831186e+00
2.387510361033966966e+00
2.387510361033966966e+00
2.390510452589495571e+00
2.390510452589495571e+00
2.252693746757408633e+00
2.155565782647175688e+00
2.155565782647175688e+00
2.157815851313821920e+00
2.157815851313821920e+00
2.236755760368663637e+00
2.066875576036866669e+00
2.066875576036866669e+00
2.198692098757896396e+00
2.198692098757896396e+00
2.407385967589342979e+00
2.427261574144718992e+00
2.427261574144718992e+00
2.293007477034821662e+00
2.317195715201269657e+00
2.317195715201269657e+00
2.447699697866756008e+00
2.447699697866756008e+00
2.349071687978759204e+00
2.157628345591601438e+00
2.157628345591601438e+00
2.150503128147221332e+00
2.150503128147221332e+00
2.266194158757286470e+00
2.267506698812830290e+00
2.267506698812830290e+00
2.327696035645618888e+00
2.327696035645618888e+00
2.288132328257088233e+00
2.290194891201513983e+00
2.290194891201513983e+00
2.179191503646961792e+00
2.179191503646961792e+00
2.173566331980346433e+00
2.266194158757286470e+00
2.266194158757286470e+00
2.327696035645618888e+00
2.327696035645618888e+00
2.335758781701101849e+00
2.353571825312051669e+00
2.353571825312051669e+00
2.330321115756706529e+00
2.333321207312235135e+00
2.333321207312235135e+00
2.305007843256935196e+00
2.305007843256935196e+00
2.210879970702230857e+00
2.134940153202917745e+00
2.134940153202917745e+00
2.112064455092013571e+00
2.112064455092013571e+00
2.149565599536118921e+00
2.194004455702383449e+00
2.194004455702383449e+00
2.359947019867549844e+00
2.359947019867549844e+00
2.377010040589617734e+00
2.242943449201941331e+00
2.242943449201941331e+00
2.150878139591662741e+00
2.327696035645618888e+00
2.327696035645618888e+00
2.361072054200873183e+00
2.361072054200873183e+00
2.355634388256477418e+00
2.331258644367808941e+00
2.331258644367808941e+00
2.301632740256966070e+00
2.301632740256966070e+00
2.306507889034699499e+00
2.196817041535691573e+00
2.196817041535691573e+00
2.181441572313608468e+00
2.186129215369121415e+00
2.186129215369121415e+00
2.149003082369457029e+00
2.149003082369457029e+00
2.256631366924039650e+00
2.260381481368449741e+00
2.260381481368449741e+00
2.319633289590136371e+00
2.319633289590136371e+00
2.389385418256172233e+00
2.409261024811548246e+00
2.409261024811548246e+00
2.403635853144932444e+00
2.307070406201360946e+00
2.307070406201360946e+00
2.267131687368389326e+00
2.267131687368389326e+00
2.212005005035553751e+00
2.054875209814752690e+00
2.054875209814752690e+00
2.063125461592455689e+00
2.063125461592455689e+00
2.288319833979308715e+00
2.273506881923887057e+00
2.273506881923887057e+00
2.363134617145298488e+00
2.363134617145298488e+00
2.351509262367625919e+00
2.338008850367748082e+00
2.338008850367748082e+00
2.455199926755577522e+00
2.322633381145664977e+00
2.322633381145664977e+00
2.174316354869228363e+00
2.174316354869228363e+00
2.203379741813409787e+00
2.220630268257698603e+00
2.220630268257698603e+00
2.248756126590777171e+00
2.248756126590777171e+00
2.291507431257057803e+00
2.278382030701620931e+00
2.278382030701620931e+00
2.364822168645283273e+00
2.364822168645283273e+00
2.323383404034546906e+00
2.209567430646687480e+00
2.209567430646687480e+00
2.238443311868648422e+00
2.238443311868648422e+00
2.110376903592028786e+00
2.259443952757347329e+00
2.259443952757347329e+00
2.327696035645618888e+00
2.327696035645618888e+00
2.326758507034516477e+00
2.274819421979430434e+00
2.274819421979430434e+00
2.305007843256935196e+00
2.235818231757560781e+00
2.235818231757560781e+00
2.206942350535599839e+00
2.206942350535599839e+00
2.278007019257179522e+00
2.270319284646137969e+00
2.270319284646137969e+00
2.194004455702383449e+00
2.194004455702383449e+00
2.211067476424451339e+00
2.292819971312600735e+00
2.292819971312600735e+00
2.335571275978881367e+00
2.335571275978881367e+00
2.366509720145268059e+00
2.336321298867763296e+00
2.336321298867763296e+00
2.360134525589770327e+00
2.325070955534531691e+00
2.325070955534531691e+00
2.255693838312936794e+00
2.255693838312936794e+00
2.220442762535478121e+00
2.218942716757713818e+00
2.218942716757713818e+00
2.238068300424207457e+00
2.238068300424207457e+00
2.275006927701650916e+00
2.231130588702047834e+00
2.231130588702047834e+00
2.196254524369030126e+00
2.196254524369030126e+00
2.197004547257912055e+00
2.173378826258125951e+00
2.173378826258125951e+00
2.197567064424573946e+00
2.197567064424573946e+00
2.368947294534135217e+00
2.543140110477004168e+00
2.543140110477004168e+00
2.331821161534470832e+00
2.331821161534470832e+00
2.192879421369060555e+00
2.336133793145542814e+00
2.336133793145542814e+00
2.328633564256721744e+00
2.175628894924771739e+00
2.175628894924771739e+00
2.161753471480452937e+00
2.161753471480452937e+00
2.181254066591387542e+00
2.186879238258003344e+00
2.186879238258003344e+00
2.221005279702139568e+00
2.221005279702139568e+00
2.200942167424543072e+00
2.164191045869319652e+00
2.164191045869319652e+00
2.328258552812280335e+00
2.328258552812280335e+00
2.429511642811365224e+00
2.461762627033295736e+00
2.461762627033295736e+00
2.380197637867366822e+00
2.380197637867366822e+00
2.368947294534135217e+00
2.315695669423505798e+00
2.315695669423505798e+00
2.371197363200781449e+00
2.235443220313119816e+00
2.235443220313119816e+00
2.242755943479720404e+00
2.242755943479720404e+00
2.144690450758385047e+00
2.019436628315073090e+00
2.019436628315073090e+00
2.041937314981536300e+00
2.261131504257332114e+00
2.261131504257332114e+00
2.344384044923245813e+00
2.325820978423414065e+00
2.325820978423414065e+00
2.276881984923856628e+00
2.349446699423200169e+00
2.349446699423200169e+00
2.347946653645436310e+00
2.347946653645436310e+00
2.321695852534562121e+00
2.331446150090029423e+00
2.331446150090029423e+00
2.257381389812921579e+00
2.257381389812921579e+00
2.247256080813012868e+00
2.243318460646382295e+00
2.243318460646382295e+00
2.227192968535416817e+00
2.165691091647083955e+00
2.165691091647083955e+00
2.171503769035920239e+00
2.171503769035920239e+00
2.202442213202307375e+00
2.348884182256538722e+00
2.348884182256538722e+00
2.459700064088869986e+00
2.459700064088869986e+00
2.395948118533890892e+00
2.375885006256294396e+00
2.375885006256294396e+00
2.326008484145634547e+00
2.326008484145634547e+00
2.279882076479384789e+00
2.256818872646260132e+00
2.256818872646260132e+00
2.193066927091281038e+00
2.193066927091281038e+00
2.170753746147038310e+00
2.180316537980285130e+00
2.180316537980285130e+00
2.316070680867946319e+00
2.312320566423536228e+00
2.312320566423536228e+00
2.219317728202154782e+00
2.219317728202154782e+00
2.196442030091250608e+00
2.274256904812768987e+00
2.274256904812768987e+00
2.123314798425245176e+00
2.123314798425245176e+00
2.339696401867732423e+00
2.370822351756340485e+00
2.370822351756340485e+00
2.351321756645405436e+00
2.402885830256050514e+00
2.402885830256050514e+00
2.330133610034486047e+00
2.277256996368297592e+00
2.277256996368297592e+00
2.237318277535325084e+00
2.237318277535325084e+00
2.209379924924466998e+00
2.191004364146854844e+00
2.191004364146854844e+00
2.107189306314279698e+00
2.073813287759025847e+00
2.073813287759025847e+00
2.283257179479354360e+00
2.283257179479354360e+00
2.375697500534073914e+00
2.380010132145145896e+00
2.380010132145145896e+00
2.408886013367107282e+00
2.408886013367107282e+00
2.332571184423352761e+00
2.298820154423657947e+00
2.298820154423657947e+00
2.259256447035126847e+00
2.259256447035126847e+00
2.229443037202063049e+00
2.248006103701895242e+00
2.248006103701895242e+00
2.164191045869319652e+00
2.164191045869319652e+00
2.166066103091524919e+00
2.191191869869075770e+00
2.191191869869075770e+00
2.260756492812891150e+00
2.271069307535019899e+00
2.271069307535019899e+00
2.322633381145664977e+00
2.322633381145664977e+00
2.288132328257088233e+00
2.252131229590746742e+00
2.252131229590746742e+00
2.384322763756218322e+00
2.379635120700704931e+00
2.379635120700704931e+00
2.374947477645191540e+00
2.374947477645191540e+00
2.328446058534500818e+00
2.191379375591296252e+00
2.191379375591296252e+00
2.189316812646870059e+00
2.189316812646870059e+00
2.180129032258064647e+00
2.150503128147221332e+00
2.150503128147221332e+00
2.228130497146519229e+00
2.228130497146519229e+00
2.262256538590655452e+00
2.255693838312936794e+00
2.255693838312936794e+00
2.316633198034607766e+00
2.285507248146000592e+00
2.285507248146000592e+00
2.337446333201086635e+00
2.337446333201086635e+00
2.333508713034455617e+00
2.296757591479232197e+00
2.296757591479232197e+00
2.197379558702353020e+00
2.197379558702353020e+00
2.316070680867946319e+00
2.341196447645496725e+00
2.341196447645496725e+00
2.277632007812738557e+00
2.277632007812738557e+00
2.258318918424023991e+00
2.180691549424726094e+00
2.180691549424726094e+00
2.235255714590899334e+00
2.204317270424512643e+00
2.204317270424512643e+00
2.287569811090426342e+00
2.287569811090426342e+00
2.303507797479171337e+00
2.309132969145787140e+00
2.309132969145787140e+00
2.361259559923093665e+00
2.361259559923093665e+00
2.364447157200842309e+00
2.253818781090731527e+00
2.253818781090731527e+00
2.299195165868098911e+00
2.299195165868098911e+00
2.176003906369212704e+00
2.136065187536240639e+00
2.136065187536240639e+00
2.236005737479781263e+00
2.225317911313211550e+00
2.225317911313211550e+00
2.322820886867885459e+00
2.322820886867885459e+00
2.254193792535172935e+00
2.298445142979216982e+00
2.298445142979216982e+00
2.326571001312295994e+00
2.326571001312295994e+00
2.269194250312814631e+00
2.244818506424146598e+00
2.244818506424146598e+00
2.272006836146122755e+00
2.272006836146122755e+00
2.208817407757805107e+00
2.320570818201239227e+00
2.320570818201239227e+00
2.275944456312753772e+00
2.275944456312753772e+00
2.309132969145787140e+00
2.320008301034577336e+00
2.320008301034577336e+00
2.244255989257484707e+00
2.244255989257484707e+00
2.183129123813593253e+00
2.252318735312967224e+00
2.252318735312967224e+00
2.217630176702169997e+00
2.193441938535722002e+00
2.193441938535722002e+00
2.278382030701620931e+00
2.278382030701620931e+00
2.379260109256263966e+00
2.382635212256233537e+00
2.382635212256233537e+00
2.401760795922727176e+00
2.401760795922727176e+00
2.320945829645680192e+00
2.269006744590594149e+00
2.269006744590594149e+00
2.314945646534623425e+00
2.314945646534623425e+00
2.189129306924649576e+00
2.219130222479934300e+00
2.219130222479934300e+00
2.200942167424543072e+00
2.200942167424543072e+00
2.117314615314187964e+00
2.179191503646961792e+00
2.179191503646961792e+00
2.255693838312936794e+00
2.288132328257088233e+00
2.288132328257088233e+00
2.289444868312631609e+00
2.289444868312631609e+00
2.336321298867763296e+00
2.407385967589342979e+00
2.407385967589342979e+00
2.369134800256355700e+00
2.369134800256355700e+00
2.382072695089572090e+00
2.305382854701376161e+00
2.305382854701376161e+00
2.194754478591265823e+00
2.194754478591265823e+00
2.192129398480178182e+00
2.233755668813135031e+00
2.233755668813135031e+00
2.189316812646870059e+00
2.208442396313364142e+00
2.208442396313364142e+00
2.185379192480239485e+00
2.185379192480239485e+00
2.207129856257820322e+00
2.329946104312265120e+00
2.329946104312265120e+00
2.323758415478988315e+00
2.323758415478988315e+00
2.283444685201574842e+00
2.299570177312540320e+00
2.299570177312540320e+00
2.253068758201849597e+00
2.253068758201849597e+00
2.155565782647175688e+00
2.296007568590349823e+00
2.296007568590349823e+00
2.360884548478652700e+00
2.360884548478652700e+00
2.307820429090243319e+00
2.305945371868038052e+00
2.305945371868038052e+00
2.217817682424390480e+00
2.157440839869380955e+00
2.157440839869380955e+00
2.070813196203497242e+00
2.070813196203497242e+00
2.258506424146244473e+00
2.384885280922879769e+00
2.384885280922879769e+00
2.399885738700521909e+00
2.399885738700521909e+00
2.373634937589648164e+00
2.335946287423322332e+00
2.335946287423322332e+00
2.251381206701864812e+00
2.251381206701864812e+00
2.271256813257240381e+00
2.231880611590930208e+00
2.231880611590930208e+00
2.187629261146885273e+00
2.187629261146885273e+00
2.205442304757835537e+00
2.239943357646412725e+00
2.239943357646412725e+00
2.334446241645558029e+00
2.311195532090212890e+00
2.311195532090212890e+00
2.203004730368968822e+00
2.203004730368968822e+00
2.248568620868556689e+00
2.176753929258095077e+00
2.176753929258095077e+00
2.194191961424603932e+00
2.194191961424603932e+00
2.388072878200628413e+00
2.301445234534745587e+00
2.301445234534745587e+00
2.299195165868098911e+00
2.380572649311807787e+00
2.380572649311807787e+00
2.394260567033906106e+00
2.394260567033906106e+00
2.384885280922879769e+00
2.283819696646015807e+00
2.283819696646015807e+00
2.125752372814111890e+00
2.125752372814111890e+00
2.102126651814325342e+00
2.192504409924619146e+00
2.192504409924619146e+00
2.182566606646931362e+00
2.182566606646931362e+00
2.229630542924283532e+00
2.309695486312448587e+00
2.309695486312448587e+00
2.323758415478988315e+00
2.323758415478988315e+00
2.394448072756126589e+00
2.301257728812525105e+00
2.301257728812525105e+00
2.145252967925046494e+00
2.145252967925046494e+00
2.186691732535783306e+00
2.371572374645222414e+00
2.371572374645222414e+00
2.354321848200934042e+00
2.345884090701010116e+00
2.345884090701010116e+00
2.260381481368449741e+00
2.260381481368449741e+00
2.220630268257698603e+00
2.204317270424512643e+00
2.204317270424512643e+00
2.270881801812799416e+00
2.270881801812799416e+00
2.284944730979339145e+00
2.282882168034912951e+00
2.282882168034912951e+00
2.259443952757347329e+00
2.259443952757347329e+00
2.313258095034638639e+00
2.291507431257057803e+00
2.291507431257057803e+00
2.271631824701681346e+00
2.271631824701681346e+00
2.181066560869167059e+00
2.194004455702383449e+00
2.194004455702383449e+00
2.167003631702627775e+00
2.232630634479812137e+00
2.232630634479812137e+00
2.346446607867672007e+00
2.346446607867672007e+00
2.307070406201360946e+00
2.343821527756584366e+00
2.343821527756584366e+00
2.308757957701345731e+00
2.308757957701345731e+00
2.285132236701559627e+00
2.280257087923826198e+00
2.280257087923826198e+00
2.229443037202063049e+00
2.229443037202063049e+00
2.235443220313119816e+00
2.217067659535508550e+00
2.217067659535508550e+00
2.288694845423749680e+00
2.374384960478530537e+00
2.374384960478530537e+00
2.360134525589770327e+00
2.360134525589770327e+00
2.316258186590166801e+00
2.233193151646474028e+00
2.233193151646474028e+00
2.215942625202185212e+00
2.215942625202185212e+00
2.198692098757896396e+00
2.140377819147312621e+00
2.140377819147312621e+00
2.213130039368877089e+00
2.213130039368877089e+00
2.336508804589983779e+00
2.363134617145298488e+00
2.363134617145298488e+00
2.330133610034486047e+00
2.330133610034486047e+00
2.293382488479262626e+00
2.229630542924283532e+00
2.229630542924283532e+00
2.136065187536240639e+00
2.241630909146397510e+00
2.241630909146397510e+00
2.342696493423261028e+00
2.342696493423261028e+00
2.353571825312051669e+00
2.275006927701650916e+00
2.275006927701650916e+00
2.227005462813196335e+00
2.227005462813196335e+00
2.177691457869197489e+00
2.210317453535568966e+00
2.210317453535568966e+00
2.260193975646229259e+00
2.260193975646229259e+00
2.284757225257118218e+00
2.302757774590289408e+00
2.302757774590289408e+00
2.361634571367534630e+00
2.290007385479293500e+00
2.290007385479293500e+00
2.260568987090670667e+00
2.260568987090670667e+00
2.199067110202337361e+00
2.230943082979827352e+00
2.230943082979827352e+00
2.308757957701345731e+00
2.308757957701345731e+00
2.379447614978484449e+00
2.285507248146000592e+00
2.285507248146000592e+00
2.244255989257484707e+00
2.244255989257484707e+00
2.159690908536027187e+00
2.199254615924558287e+00
2.199254615924558287e+00
2.249318643757439062e+00
2.249506149479659545e+00
2.249506149479659545e+00
2.235818231757560781e+00
2.235818231757560781e+00
2.367634754478591397e+00
2.403635853144932444e+00
2.403635853144932444e+00
2.326195989867855030e+00
2.326195989867855030e+00
2.330883632923367976e+00
2.189129306924649576e+00
2.189129306924649576e+00
2.068375621814630971e+00
2.068375621814630971e+00
2.193441938535722002e+00
2.226067934202093479e+00
2.226067934202093479e+00
2.294132511368144556e+00
2.248756126590777171e+00
2.248756126590777171e+00
2.329008575701162709e+00
2.329008575701162709e+00
2.293382488479262626e+00
2.270881801812799416e+00
2.270881801812799416e+00
2.282882168034912951e+00
2.282882168034912951e+00
2.358446974089785542e+00
2.308007934812463802e+00
2.308007934812463802e+00
2.327508529923398850e+00
2.327508529923398850e+00
2.303132786034730373e+00
2.309507980590228104e+00
2.309507980590228104e+00
2.310258003479110034e+00
2.310258003479110034e+00
2.294132511368144556e+00
2.248193609424115724e+00
2.248193609424115724e+00
2.091251319925535146e+00
1.986623126926480909e+00
1.986623126926480909e+00
2.230380565813165905e+00
2.230380565813165905e+00
2.347384136478774419e+00
2.352634296700948813e+00
2.352634296700948813e+00
2.372884914700766235e+00
2.372884914700766235e+00
2.371197363200781449e+00
2.218192693868831444e+00
2.218192693868831444e+00
2.267694204535050773e+00
2.267694204535050773e+00
2.257193884090700653e+00
2.249131138035218136e+00
2.249131138035218136e+00
2.216130130924405695e+00
2.216130130924405695e+00
2.197754570146794428e+00
2.260381481368449741e+00
2.260381481368449741e+00
2.157065828424939546e+00
2.157065828424939546e+00
2.229630542924283532e+00
2.309132969145787140e+00
2.309132969145787140e+00
2.303320291756950855e+00
2.372322397534104788e+00
2.372322397534104788e+00
2.227192968535416817e+00
2.227192968535416817e+00
2.172253791924802613e+00
2.448637226477858864e+00
2.448637226477858864e+00
2.409073519089327764e+00
2.409073519089327764e+00
2.293757499923703591e+00
2.270694296090578934e+00
2.270694296090578934e+00
2.288882351145970162e+00
2.288882351145970162e+00
2.293569994201483109e+00
2.184816675313578038e+00
2.184816675313578038e+00
2.157253334147160473e+00
2.155940794091616652e+00
2.155940794091616652e+00
2.248381115146336207e+00
2.248381115146336207e+00
2.293194982757042144e+00
2.332196172978911797e+00
2.332196172978911797e+00
2.319445783867915889e+00
2.319445783867915889e+00
2.271819330423901828e+00
2.294507522812585520e+00
2.294507522812585520e+00
2.267881710257271255e+00
2.267881710257271255e+00
2.109439374980925930e+00
2.305757866145817125e+00
2.305757866145817125e+00
2.388072878200628413e+00
2.388072878200628413e+00
2.295257545701467894e+00
2.172628803369243577e+00
2.172628803369243577e+00
2.068188116092410045e+00
2.068188116092410045e+00
2.227005462813196335e+00
2.361072054200873183e+00
2.361072054200873183e+00
2.373447431867427682e+00
2.388072878200628413e+00
2.388072878200628413e+00
2.356196905423139309e+00
2.356196905423139309e+00
2.308007934812463802e+00
2.236380748924222672e+00
2.236380748924222672e+00
2.310258003479110034e+00
2.310258003479110034e+00
2.282882168034912951e+00
2.240505874813074172e+00
2.240505874813074172e+00
2.237130771813104602e+00
2.237130771813104602e+00
2.183316629535813735e+00
1.978560380870998392e+00
1.978560380870998392e+00
2.221567796868801015e+00
2.352446790978728330e+00
2.352446790978728330e+00
2.328633564256721744e+00
2.328633564256721744e+00
2.324695944090090727e+00
2.339321390423291458e+00
2.339321390423291458e+00
2.344759056367687222e+00
2.344759056367687222e+00
2.344009033478804849e+00
2.322633381145664977e+00
2.322633381145664977e+00
2.261694021423993561e+00
2.242943449201941331e+00
2.242943449201941331e+00
2.215755119479964730e+00
2.215755119479964730e+00
2.203942258980071234e+00
2.227567979979857782e+00
2.227567979979857782e+00
2.236380748924222672e+00
2.236380748924222672e+00
2.248756126590777171e+00
2.273881893368328022e+00
2.273881893368328022e+00
2.095376445814386202e+00
2.095376445814386202e+00
2.286069765312662039e+00
2.434011780144657688e+00
2.434011780144657688e+00
2.390510452589495571e+00
2.390510452589495571e+00
2.291882442701498768e+00
2.219505233924375265e+00
2.219505233924375265e+00
2.225130405590991067e+00
2.358634479812006024e+00
2.358634479812006024e+00
2.307445417645802355e+00
2.307445417645802355e+00
2.268631733146153184e+00
2.232255623035371173e+00
2.232255623035371173e+00
2.160628437147130043e+00
2.160628437147130043e+00
2.170378734702597345e+00
2.258318918424023991e+00
2.258318918424023991e+00
2.338571367534409973e+00
2.338571367534409973e+00
2.389010406811731269e+00
2.350946745200964472e+00
2.350946745200964472e+00
2.340446424756614796e+00
2.340446424756614796e+00
2.231880611590930208e+00
2.314383129367961978e+00
2.314383129367961978e+00
2.251756218146305777e+00
2.225880428479872997e+00
2.225880428479872997e+00
2.154065736869411385e+00
2.154065736869411385e+00
2.147128025147251762e+00
2.217067659535508550e+00
2.217067659535508550e+00
2.247256080813012868e+00
2.247256080813012868e+00
2.290007385479293500e+00
2.321883358256782603e+00
2.321883358256782603e+00
2.330696127201147494e+00
2.341383953367717208e+00
2.341383953367717208e+00
2.334633747367778511e+00
2.334633747367778511e+00
2.331446150090029423e+00
2.276131962034974254e+00
2.276131962034974254e+00
2.250256172368541474e+00
2.250256172368541474e+00
2.281569627979369130e+00
2.308007934812463802e+00
2.308007934812463802e+00
2.236943266090884119e+00
2.236943266090884119e+00
2.107001800592058771e+00
2.113001983703115982e+00
2.113001983703115982e+00
2.207317361980041248e+00
2.207317361980041248e+00
2.339133884701071420e+00
2.365384685811944721e+00
2.365384685811944721e+00
2.285694753868221074e+00
2.292257454145939732e+00
2.292257454145939732e+00
2.288694845423749680e+00
2.288694845423749680e+00
2.293382488479262626e+00
2.284757225257118218e+00
2.284757225257118218e+00
2.246693563646351421e+00
2.246693563646351421e+00
2.221942808313242423e+00
2.200942167424543072e+00
2.200942167424543072e+00
2.155190771202734279e+00
2.155190771202734279e+00
2.155565782647175688e+00
2.259443952757347329e+00
2.259443952757347329e+00
2.292819971312600735e+00
2.329758598590044638e+00
2.329758598590044638e+00
2.343071504867702437e+00
2.343071504867702437e+00
2.315508163701284872e+00
2.334633747367778511e+00
2.334633747367778511e+00
2.334446241645558029e+00
2.334446241645558029e+00
2.276319467757194737e+00
2.274256904812768987e+00
2.274256904812768987e+00
2.166066103091524919e+00
2.166066103091524919e+00
2.132127567369609622e+00
2.172253791924802613e+00
2.172253791924802613e+00
2.255506332590716312e+00
2.255506332590716312e+00
2.284757225257118218e+00
2.284944730979339145e+00
2.284944730979339145e+00
2.313258095034638639e+00
2.344759056367687222e+00
2.344759056367687222e+00
2.324695944090090727e+00
2.324695944090090727e+00
2.321883358256782603e+00
2.326383495590075512e+00
2.326383495590075512e+00
2.293569994201483109e+00
2.293569994201483109e+00
2.236755760368663637e+00
2.231318094424268317e+00
2.231318094424268317e+00
2.215380108035523765e+00
2.215380108035523765e+00
2.221942808313242423e+00
2.210692464980010374e+00
2.210692464980010374e+00
2.255881344035157721e+00
2.322633381145664977e+00
2.322633381145664977e+00
2.247443586535233351e+00
2.247443586535233351e+00
2.240318369090853690e+00
2.227005462813196335e+00
2.227005462813196335e+00
2.193066927091281038e+00
2.193066927091281038e+00
2.220630268257698603e+00
2.230755577257606870e+00
2.230755577257606870e+00
2.370259834589678594e+00
2.370259834589678594e+00
2.383385235145115466e+00
2.321133335367900674e+00
2.321133335367900674e+00
2.295632557145908859e+00
2.295632557145908859e+00
2.261881527146214044e+00
2.240505874813074172e+00
2.240505874813074172e+00
2.251193700979644330e+00
2.251193700979644330e+00
2.190629352702413879e+00
2.171691274758141166e+00
2.171691274758141166e+00
2.282507156590471986e+00
2.319820795312356854e+00
2.319820795312356854e+00
2.330133610034486047e+00
2.330133610034486047e+00
2.310820520645771925e+00
2.319633289590136371e+00
2.319633289590136371e+00
2.240880886257515137e+00
2.240880886257515137e+00
2.252693746757408633e+00
2.279882076479384789e+00
2.279882076479384789e+00
2.268444227423932702e+00
2.268444227423932702e+00
2.201692190313425002e+00
2.180504043702505612e+00
2.180504043702505612e+00
2.180691549424726094e+00
2.171691274758141166e+00
2.171691274758141166e+00
2.149003082369457029e+00
2.149003082369457029e+00
2.227755485702078264e+00
2.274256904812768987e+00
2.274256904812768987e+00
2.308570451979125249e+00
2.308570451979125249e+00
2.328258552812280335e+00
2.326195989867855030e+00
2.326195989867855030e+00
2.296570085757011714e+00
2.296570085757011714e+00
2.275569444868312807e+00
2.249693655201880027e+00
2.249693655201880027e+00
2.229818048646504014e+00
2.229818048646504014e+00
2.212380016479995160e+00
2.207879879146702695e+00
2.207879879146702695e+00
2.247631092257453833e+00
2.249131138035218136e+00
2.249131138035218136e+00
2.260568987090670667e+00
2.260568987090670667e+00
2.271444318979460864e+00
2.259818964201788294e+00
2.259818964201788294e+00
2.290757408368175430e+00
2.290757408368175430e+00
2.280069582201605716e+00
2.294507522812585520e+00
2.294507522812585520e+00
2.245756035035248566e+00
2.245756035035248566e+00
2.245006012146367080e+00
2.270881801812799416e+00
2.270881801812799416e+00
2.300132694479201767e+00
2.300132694479201767e+00
2.232443128757591655e+00
2.240130863368633207e+00
2.240130863368633207e+00
2.215755119479964730e+00
2.204317270424512643e+00
2.204317270424512643e+00
2.241818414868617992e+00
2.241818414868617992e+00
2.266006653035065987e+00
2.317008209479048730e+00
2.317008209479048730e+00
2.339133884701071420e+00
2.339133884701071420e+00
2.276881984923856628e+00
2.282132145146031021e+00
2.282132145146031021e+00
2.338008850367748082e+00
2.338008850367748082e+00
2.245381023590808045e+00
2.268444227423932702e+00
2.268444227423932702e+00
2.244255989257484707e+00
2.244255989257484707e+00
2.247256080813012868e+00
2.200567155980101663e+00
2.200567155980101663e+00
2.199442121646778769e+00
2.272381847590563719e+00
2.272381847590563719e+00
2.300882717368083696e+00
2.300882717368083696e+00
2.333696218756676100e+00
2.219505233924375265e+00
2.241630909146397510e+00
2.241630909146397510e+00
2.328633564256721744e+00
2.316633198034607766e+00
2.316633198034607766e+00
2.296007568590349823e+00
2.296007568590349823e+00
2.269756767479476078e+00
2.247631092257453833e+00
2.247631092257453833e+00
2.248756126590777171e+00
2.248756126590777171e+00
2.254193792535172935e+00
2.257568895535142062e+00
2.257568895535142062e+00
2.219692739646595747e+00
2.219692739646595747e+00
2.221005279702139568e+00
2.278757042146061895e+00
2.278757042146061895e+00
2.311008026367992407e+00
2.311008026367992407e+00
2.215192602313302839e+00
2.222692831202123909e+00
2.222692831202123909e+00
2.365197180089724238e+00
2.315133152256843907e+00
2.315133152256843907e+00
2.263569078646198829e+00
2.263569078646198829e+00
2.253443769646290562e+00
2.255318826868495830e+00
2.255318826868495830e+00
2.235255714590899334e+00
2.235255714590899334e+00
2.190254341257972914e+00
2.185941709646900932e+00
2.185941709646900932e+00
2.249693655201880027e+00
2.249693655201880027e+00
2.275944456312753772e+00
2.288319833979308715e+00
2.288319833979308715e+00
2.297507614368114126e+00
2.297507614368114126e+00
2.245756035035248566e+00
2.242380932035279439e+00
2.242380932035279439e+00
2.241818414868617992e+00
2.241818414868617992e+00
2.329008575701162709e+00
2.356196905423139309e+00
2.356196905423139309e+00
2.314008117923521013e+00
2.266194158757286470e+00
2.266194158757286470e+00
2.252131229590746742e+00
2.254943815424054865e+00
2.254943815424054865e+00
2.238255806146427940e+00
2.234880703146458369e+00
2.234880703146458369e+00
2.319070772423474924e+00
2.319070772423474924e+00
2.319445783867915889e+00
2.286444776757103448e+00
2.286444776757103448e+00
2.274069399090548504e+00
2.274069399090548504e+00
2.249693655201880027e+00
2.278569536423841413e+00
2.278569536423841413e+00
2.273881893368328022e+00
2.273881893368328022e+00
2.238255806146427940e+00
2.210129947813348927e+00
2.210129947813348927e+00
2.216505142368846659e+00
2.238630817590868904e+00
2.238630817590868904e+00
2.255131321146275347e+00
2.255131321146275347e+00
2.234880703146458369e+00
2.235443220313119816e+00
2.235443220313119816e+00
2.264506607257301685e+00
2.264506607257301685e+00
2.257568895535142062e+00
2.308007934812463802e+00
2.308007934812463802e+00
2.341758964812158617e+00
2.341758964812158617e+00
2.330508621478927012e+00
2.297695120090334608e+00
2.297695120090334608e+00
2.276881984923856628e+00
2.245006012146367080e+00
2.245006012146367080e+00
2.291319925534837321e+00
2.291319925534837321e+00
2.290382396923734465e+00
2.206192327646717910e+00
2.206192327646717910e+00
2.195692007202368234e+00
2.195692007202368234e+00
2.208817407757805107e+00
2.255318826868495830e+00
2.255318826868495830e+00
2.313820612201300086e+00
2.313820612201300086e+00
2.360697042756431774e+00
2.331633655812249906e+00
2.331633655812249906e+00
2.273881893368328022e+00
2.227380474257637299e+00
2.227380474257637299e+00
2.245756035035248566e+00
2.245756035035248566e+00
2.242380932035279439e+00
2.219880245368816230e+00
2.219880245368816230e+00
2.229255531479842567e+00
