2.266944181646168399e+00
2.266944181646168399e+00
2.266944181646168399e+00
2.256443861201819168e+00
2.256443861201819168e+00
2.256443861201819168e+00
2.239005829035309869e+00
2.239005829035309869e+00
2.239005829035309869e+00
2.239005829035309869e+00
2.220067751091036712e+00
2.220067751091036712e+00
2.220067751091036712e+00
2.205067293313394572e+00
2.205067293313394572e+00
2.205067293313394572e+00
2.205067293313394572e+00
2.197567064424573946e+00
2.197567064424573946e+00
2.197567064424573946e+00
2.265256630146183614e+00
2.265256630146183614e+00
2.265256630146183614e+00
2.265256630146183614e+00
2.299382671590319838e+00
2.299382671590319838e+00
2.299382671590319838e+00
2.311758049256874337e+00
2.311758049256874337e+00
2.311758049256874337e+00
2.341946470534379099e+00
2.341946470534379099e+00
2.341946470534379099e+00
2.341946470534379099e+00
2.329946104312265120e+00
2.329946104312265120e+00
2.329946104312265120e+00
2.277444502090518075e+00
2.277444502090518075e+00
2.277444502090518075e+00
2.277444502090518075e+00
2.239005829035309869e+00
2.239005829035309869e+00
2.239005829035309869e+00
2.240880886257515137e+00
2.240880886257515137e+00
2.240880886257515137e+00
2.235255714590899334e+00
2.235255714590899334e+00
2.235255714590899334e+00
2.235255714590899334e+00
2.224380382702108694e+00
2.224380382702108694e+00
2.224380382702108694e+00
2.209192419202246516e+00
2.209192419202246516e+00
2.209192419202246516e+00
2.209192419202246516e+00
2.211629993591112786e+00
2.211629993591112786e+00
2.211629993591112786e+00
2.207504867702261730e+00
2.207504867702261730e+00
2.207504867702261730e+00
2.207504867702261730e+00
2.219317728202154782e+00
2.219317728202154782e+00
2.219317728202154782e+00
2.248381115146336207e+00
2.248381115146336207e+00
2.248381115146336207e+00
2.267881710257271255e+00
2.267881710257271255e+00
2.267881710257271255e+00
2.267881710257271255e+00
2.304632831812494231e+00
2.304632831812494231e+00
2.304632831812494231e+00
2.343446516312143402e+00
2.343446516312143402e+00
2.343446516312143402e+00
2.343446516312143402e+00
2.332946195867793726e+00
2.332946195867793726e+00
2.332946195867793726e+00
2.300132694479201767e+00
2.300132694479201767e+00
2.300132694479201767e+00
2.286257271034882521e+00
2.286257271034882521e+00
2.286257271034882521e+00
2.286257271034882521e+00
2.265819147312845505e+00
2.265819147312845505e+00
2.234880703146458369e+00
2.234880703146458369e+00
2.234880703146458369e+00
2.234880703146458369e+00
2.212567522202215642e+00
2.212567522202215642e+00
2.212567522202215642e+00
2.190629352702413879e+00
2.190629352702413879e+00
2.190629352702413879e+00
2.185941709646900932e+00
2.185941709646900932e+00
2.185941709646900932e+00
2.185941709646900932e+00
2.164753563035981099e+00
2.164753563035981099e+00
2.164753563035981099e+00
2.201504684591204519e+00
2.201504684591204519e+00
2.201504684591204519e+00
2.278194524979400004e+00
2.278194524979400004e+00
2.278194524979400004e+00
2.278194524979400004e+00
2.296945097201452679e+00
2.296945097201452679e+00
2.296945097201452679e+00
2.330133610034486047e+00
2.330133610034486047e+00
2.330133610034486047e+00
2.330133610034486047e+00
2.344571550645466296e+00
2.344571550645466296e+00
2.344571550645466296e+00
2.319820795312356854e+00
2.319820795312356854e+00
2.319820795312356854e+00
2.292632465590380253e+00
2.292632465590380253e+00
2.292632465590380253e+00
2.292632465590380253e+00
2.280632099368266719e+00
2.280632099368266719e+00
2.280632099368266719e+00
2.239380840479750834e+00
2.239380840479750834e+00
2.239380840479750834e+00
2.231318094424268317e+00
2.231318094424268317e+00
2.231318094424268317e+00
2.231318094424268317e+00
2.214255073702200427e+00
2.214255073702200427e+00
2.214255073702200427e+00
2.222505325479903426e+00
2.222505325479903426e+00
2.222505325479903426e+00
2.244255989257484707e+00
2.244255989257484707e+00
2.244255989257484707e+00
2.244255989257484707e+00
2.220442762535478121e+00
2.220442762535478121e+00
2.220442762535478121e+00
2.250256172368541474e+00
2.250256172368541474e+00
2.250256172368541474e+00
2.250256172368541474e+00
2.284757225257118218e+00
2.284757225257118218e+00
2.284757225257118218e+00
2.289257362590411127e+00
2.289257362590411127e+00
2.289257362590411127e+00
2.311008026367992407e+00
2.311008026367992407e+00
2.311008026367992407e+00
2.311008026367992407e+00
2.323758415478988315e+00
2.323758415478988315e+00
2.323758415478988315e+00
2.292444959868159771e+00
2.292444959868159771e+00
2.292444959868159771e+00
2.292444959868159771e+00
2.253818781090731527e+00
2.253818781090731527e+00
2.253818781090731527e+00
2.224567888424329176e+00
2.224567888424329176e+00
2.224567888424329176e+00
2.224567888424329176e+00
2.230005554368724940e+00
2.230005554368724940e+00
2.230005554368724940e+00
2.236193243202001746e+00
2.236193243202001746e+00
2.236193243202001746e+00
2.234318185979796478e+00
2.234318185979796478e+00
2.234318185979796478e+00
2.234318185979796478e+00
2.241255897701956545e+00
2.241255897701956545e+00
2.241255897701956545e+00
2.218755211035493335e+00
2.218755211035493335e+00
2.218755211035493335e+00
2.218755211035493335e+00
2.216317636646626177e+00
2.216317636646626177e+00
2.216317636646626177e+00
2.257006378368480615e+00
2.257006378368480615e+00
2.257006378368480615e+00
2.278569536423841413e+00
2.278569536423841413e+00
2.278569536423841413e+00
2.278569536423841413e+00
2.299570177312540320e+00
2.299570177312540320e+00
2.299570177312540320e+00
2.333133701590014208e+00
2.333133701590014208e+00
2.333133701590014208e+00
2.333133701590014208e+00
2.314758140812402942e+00
2.314758140812402942e+00
2.314758140812402942e+00
2.269569261757255596e+00
2.269569261757255596e+00
2.269569261757255596e+00
2.255693838312936794e+00
2.255693838312936794e+00
2.255693838312936794e+00
2.255693838312936794e+00
2.259068941312906365e+00
2.259068941312906365e+00
2.259068941312906365e+00
2.246693563646351421e+00
2.246693563646351421e+00
2.246693563646351421e+00
2.246693563646351421e+00
2.227380474257637299e+00
2.227380474257637299e+00
2.227380474257637299e+00
2.222880336924344391e+00
2.222880336924344391e+00
2.222880336924344391e+00
2.222880336924344391e+00
2.223255348368785356e+00
2.223255348368785356e+00
2.223255348368785356e+00
2.211817499313333268e+00
2.211817499313333268e+00
2.211817499313333268e+00
2.227380474257637299e+00
2.227380474257637299e+00
2.227380474257637299e+00
2.227380474257637299e+00
2.271819330423901828e+00
2.271819330423901828e+00
2.271819330423901828e+00
2.299945188756981285e+00
2.299945188756981285e+00
2.299945188756981285e+00
2.299945188756981285e+00
2.318695760979033516e+00
2.318695760979033516e+00
2.318695760979033516e+00
2.337446333201086635e+00
2.337446333201086635e+00
2.337446333201086635e+00
2.308570451979125249e+00
2.308570451979125249e+00
2.308570451979125249e+00
2.308570451979125249e+00
2.268444227423932702e+00
2.268444227423932702e+00
2.268444227423932702e+00
2.259443952757347329e+00
2.259443952757347329e+00
2.259443952757347329e+00
2.259443952757347329e+00
2.239943357646412725e+00
2.239943357646412725e+00
2.239943357646412725e+00
2.236005737479781263e+00
2.236005737479781263e+00
2.236005737479781263e+00
2.208442396313364142e+00
2.208442396313364142e+00
2.208442396313364142e+00
2.208442396313364142e+00
2.209567430646687480e+00
2.209567430646687480e+00
2.209567430646687480e+00
2.222317819757682944e+00
2.222317819757682944e+00
2.222317819757682944e+00
2.222317819757682944e+00
2.212380016479995160e+00
2.212380016479995160e+00
2.212380016479995160e+00
2.236380748924222672e+00
2.236380748924222672e+00
2.236380748924222672e+00
2.236380748924222672e+00
2.271631824701681346e+00
2.271631824701681346e+00
2.271631824701681346e+00
2.284944730979339145e+00
2.284944730979339145e+00
2.284944730979339145e+00
2.317945738090151586e+00
2.317945738090151586e+00
2.317945738090151586e+00
2.317945738090151586e+00
2.334446241645558029e+00
2.334446241645558029e+00
2.334446241645558029e+00
2.301445234534745587e+00
2.301445234534745587e+00
2.301445234534745587e+00
2.301445234534745587e+00
2.271069307535019899e+00
2.271069307535019899e+00
2.271069307535019899e+00
2.264506607257301685e+00
2.264506607257301685e+00
2.264506607257301685e+00
2.254006286812952009e+00
2.254006286812952009e+00
2.254006286812952009e+00
2.254006286812952009e+00
2.251756218146305777e+00
2.251756218146305777e+00
2.251756218146305777e+00
2.227755485702078264e+00
2.227755485702078264e+00
2.227755485702078264e+00
2.227755485702078264e+00
2.210504959257789892e+00
2.210504959257789892e+00
2.210504959257789892e+00
2.201879696035645484e+00
2.201879696035645484e+00
2.201879696035645484e+00
2.192504409924619146e+00
2.192504409924619146e+00
2.192504409924619146e+00
2.192504409924619146e+00
2.235443220313119816e+00
2.235443220313119816e+00
2.235443220313119816e+00
2.278757042146061895e+00
2.278757042146061895e+00
2.278757042146061895e+00
2.278757042146061895e+00
2.302007751701407035e+00
2.302007751701407035e+00
2.302007751701407035e+00
2.330133610034486047e+00
2.330133610034486047e+00
2.330133610034486047e+00
2.330133610034486047e+00
2.322445875423444495e+00
2.322445875423444495e+00
2.322445875423444495e+00
2.282132145146031021e+00
2.282132145146031021e+00
2.282132145146031021e+00
2.227755485702078264e+00
2.227755485702078264e+00
2.227755485702078264e+00
2.227755485702078264e+00
2.230568071535386387e+00
2.230568071535386387e+00
2.230568071535386387e+00
2.241630909146397510e+00
2.241630909146397510e+00
2.241630909146397510e+00
2.241630909146397510e+00
2.243505966368602778e+00
2.243505966368602778e+00
2.243505966368602778e+00
2.235443220313119816e+00
2.235443220313119816e+00
2.235443220313119816e+00
2.246318552201910457e+00
2.246318552201910457e+00
2.246318552201910457e+00
2.246318552201910457e+00
2.209192419202246516e+00
2.209192419202246516e+00
2.209192419202246516e+00
2.195504501480147752e+00
2.195504501480147752e+00
2.195504501480147752e+00
2.195504501480147752e+00
2.268819238868374111e+00
2.268819238868374111e+00
2.268819238868374111e+00
2.302757774590289408e+00
2.302757774590289408e+00
2.302757774590289408e+00
2.302757774590289408e+00
2.308757957701345731e+00
2.308757957701345731e+00
2.308757957701345731e+00
2.345134067812128187e+00
2.345134067812128187e+00
2.345134067812128187e+00
2.319445783867915889e+00
2.319445783867915889e+00
2.319445783867915889e+00
2.319445783867915889e+00
2.275006927701650916e+00
2.275006927701650916e+00
2.275006927701650916e+00
2.267881710257271255e+00
2.267881710257271255e+00
2.267881710257271255e+00
2.267881710257271255e+00
2.260006469924008776e+00
2.260006469924008776e+00
2.260006469924008776e+00
2.275194433423871843e+00
2.275194433423871843e+00
2.275194433423871843e+00
2.259818964201788294e+00
2.259818964201788294e+00
2.259818964201788294e+00
2.259818964201788294e+00
2.229443037202063049e+00
2.229443037202063049e+00
2.229443037202063049e+00
2.200942167424543072e+00
2.200942167424543072e+00
2.200942167424543072e+00
2.174878872035889810e+00
2.174878872035889810e+00
2.174878872035889810e+00
2.174878872035889810e+00
2.164191045869319652e+00
2.164191045869319652e+00
2.164191045869319652e+00
2.220442762535478121e+00
2.220442762535478121e+00
2.220442762535478121e+00
2.220442762535478121e+00
2.267506698812830290e+00
2.267506698812830290e+00
2.267506698812830290e+00
2.316258186590166801e+00
2.316258186590166801e+00
2.316258186590166801e+00
2.330133610034486047e+00
2.330133610034486047e+00
2.330133610034486047e+00
2.330133610034486047e+00
2.309320474868007622e+00
2.309320474868007622e+00
2.309320474868007622e+00
2.300695211645863214e+00
2.300695211645863214e+00
2.300695211645863214e+00
2.300695211645863214e+00
2.284007202368236289e+00
2.284007202368236289e+00
2.284007202368236289e+00
2.270881801812799416e+00
2.270881801812799416e+00
2.270881801812799416e+00
2.270881801812799416e+00
2.271069307535019899e+00
2.271069307535019899e+00
2.271069307535019899e+00
2.236193243202001746e+00
2.236193243202001746e+00
2.236193243202001746e+00
2.238068300424207457e+00
2.238068300424207457e+00
2.238068300424207457e+00
2.238068300424207457e+00
2.220442762535478121e+00
2.220442762535478121e+00
2.220442762535478121e+00
2.170753746147038310e+00
2.170753746147038310e+00
2.170753746147038310e+00
2.170753746147038310e+00
2.201129673146763555e+00
2.201129673146763555e+00
2.201129673146763555e+00
2.250818689535202921e+00
2.250818689535202921e+00
2.250818689535202921e+00
2.286632282479323930e+00
2.286632282479323930e+00
2.286632282479323930e+00
2.286632282479323930e+00
2.336321298867763296e+00
2.336321298867763296e+00
2.336321298867763296e+00
2.353571825312051669e+00
2.353571825312051669e+00
2.353571825312051669e+00
2.353571825312051669e+00
2.331071138645588459e+00
2.331071138645588459e+00
2.331071138645588459e+00
2.294507522812585520e+00
2.294507522812585520e+00
2.294507522812585520e+00
2.294507522812585520e+00
2.249881160924100509e+00
2.249881160924100509e+00
2.249881160924100509e+00
2.228130497146519229e+00
2.228130497146519229e+00
2.228130497146519229e+00
2.230005554368724940e+00
2.230005554368724940e+00
2.230005554368724940e+00
2.230005554368724940e+00
2.219317728202154782e+00
2.219317728202154782e+00
2.219317728202154782e+00
2.218942716757713818e+00
2.218942716757713818e+00
2.218942716757713818e+00
2.218942716757713818e+00
2.206754844813379357e+00
2.206754844813379357e+00
2.206754844813379357e+00
2.203754753257850751e+00
2.203754753257850751e+00
2.203754753257850751e+00
2.203754753257850751e+00
2.261881527146214044e+00
2.261881527146214044e+00
2.261881527146214044e+00
2.281757133701590057e+00
2.281757133701590057e+00
2.281757133701590057e+00
2.286069765312662039e+00
2.286069765312662039e+00
2.286069765312662039e+00
2.286069765312662039e+00
2.336696310312204705e+00
2.336696310312204705e+00
2.336696310312204705e+00
2.334446241645558029e+00
2.334446241645558029e+00
2.334446241645558029e+00
2.334446241645558029e+00
2.300132694479201767e+00
2.300132694479201767e+00
2.300132694479201767e+00
2.284007202368236289e+00
2.284007202368236289e+00
2.284007202368236289e+00
2.253631275368511044e+00
2.253631275368511044e+00
2.253631275368511044e+00
2.253631275368511044e+00
2.214442579424420909e+00
2.214442579424420909e+00
2.214442579424420909e+00
2.191004364146854844e+00
2.191004364146854844e+00
2.191004364146854844e+00
2.191004364146854844e+00
2.195129490035706787e+00
2.195129490035706787e+00
2.195129490035706787e+00
2.197192052980132537e+00
2.197192052980132537e+00
2.197192052980132537e+00
2.197192052980132537e+00
2.197379558702353020e+00
2.197379558702353020e+00
2.197379558702353020e+00
2.208442396313364142e+00
2.208442396313364142e+00
2.208442396313364142e+00
2.272756859035004684e+00
2.272756859035004684e+00
2.272756859035004684e+00
2.272756859035004684e+00
2.306695394756919981e+00
2.306695394756919981e+00
2.306695394756919981e+00
2.320383312479018745e+00
2.320383312479018745e+00
2.320383312479018745e+00
2.320383312479018745e+00
2.322445875423444495e+00
2.322445875423444495e+00
2.322445875423444495e+00
2.289819879757073018e+00
2.289819879757073018e+00
2.289819879757073018e+00
2.289819879757073018e+00
2.277444502090518075e+00
2.277444502090518075e+00
2.277444502090518075e+00
2.280632099368266719e+00
2.280632099368266719e+00
2.280632099368266719e+00
2.252131229590746742e+00
2.252131229590746742e+00
2.252131229590746742e+00
2.252131229590746742e+00
2.245756035035248566e+00
2.245756035035248566e+00
2.245756035035248566e+00
2.231318094424268317e+00
2.231318094424268317e+00
2.231318094424268317e+00
2.231318094424268317e+00
2.232818140202032620e+00
2.232818140202032620e+00
2.232818140202032620e+00
2.254943815424054865e+00
2.254943815424054865e+00
2.254943815424054865e+00
2.231505600146489243e+00
2.231505600146489243e+00
2.231505600146489243e+00
2.231505600146489243e+00
2.247818597979674760e+00
2.247818597979674760e+00
2.247818597979674760e+00
2.294695028534806447e+00
2.294695028534806447e+00
2.294695028534806447e+00
2.294695028534806447e+00
2.311195532090212890e+00
2.311195532090212890e+00
2.311195532090212890e+00
2.302382763145847999e+00
2.302382763145847999e+00
2.302382763145847999e+00
2.302382763145847999e+00
2.302382763145847999e+00
2.302382763145847999e+00
2.302382763145847999e+00
2.288319833979308715e+00
2.288319833979308715e+00
2.288319833979308715e+00
2.279882076479384789e+00
2.279882076479384789e+00
2.279882076479384789e+00
2.279882076479384789e+00
2.254943815424054865e+00
2.254943815424054865e+00
2.254943815424054865e+00
2.248943632312997654e+00
2.248943632312997654e+00
2.248943632312997654e+00
2.248943632312997654e+00
2.274631916257209951e+00
2.274631916257209951e+00
2.274631916257209951e+00
2.260943998535111632e+00
2.260943998535111632e+00
2.260943998535111632e+00
2.218567705313272853e+00
2.218567705313272853e+00
2.218567705313272853e+00
2.218567705313272853e+00
2.213317545091097571e+00
2.213317545091097571e+00
2.213317545091097571e+00
2.187254249702444309e+00
2.187254249702444309e+00
2.187254249702444309e+00
2.187254249702444309e+00
2.223817865535447247e+00
2.223817865535447247e+00
2.223817865535447247e+00
2.280632099368266719e+00
2.280632099368266719e+00
2.280632099368266719e+00
2.280632099368266719e+00
2.306882900479140464e+00
2.306882900479140464e+00
2.306882900479140464e+00
2.316820703756828248e+00
2.316820703756828248e+00
2.316820703756828248e+00
2.297882625812555535e+00
2.297882625812555535e+00
2.297882625812555535e+00
2.297882625812555535e+00
2.290007385479293500e+00
2.290007385479293500e+00
2.290007385479293500e+00
2.275006927701650916e+00
2.275006927701650916e+00
2.275006927701650916e+00
2.275006927701650916e+00
2.252693746757408633e+00
2.252693746757408633e+00
2.252693746757408633e+00
2.243130954924161813e+00
2.243130954924161813e+00
2.243130954924161813e+00
2.239755851924192243e+00
2.239755851924192243e+00
2.239755851924192243e+00
2.239755851924192243e+00
2.203942258980071234e+00
2.203942258980071234e+00
2.203942258980071234e+00
2.175441389202551257e+00
2.175441389202551257e+00
2.175441389202551257e+00
2.158378368480483367e+00
2.158378368480483367e+00
2.158378368480483367e+00
2.158378368480483367e+00
2.186316721091342341e+00
2.186316721091342341e+00
2.186316721091342341e+00
2.270131778923917043e+00
2.270131778923917043e+00
2.270131778923917043e+00
2.270131778923917043e+00
2.308757957701345731e+00
2.308757957701345731e+00
2.308757957701345731e+00
2.337258827478866152e+00
2.337258827478866152e+00
2.337258827478866152e+00
2.328258552812280335e+00
2.328258552812280335e+00
2.328258552812280335e+00
2.328258552812280335e+00
2.327133518478957885e+00
2.327133518478957885e+00
2.327133518478957885e+00
2.291507431257057803e+00
2.291507431257057803e+00
2.291507431257057803e+00
2.291507431257057803e+00
2.263569078646198829e+00
2.263569078646198829e+00
2.263569078646198829e+00
2.262444044312875935e+00
2.262444044312875935e+00
2.262444044312875935e+00
2.262444044312875935e+00
2.272569353312784202e+00
2.272569353312784202e+00
2.272569353312784202e+00
2.242755943479720404e+00
2.242755943479720404e+00
2.242755943479720404e+00
2.234318185979796478e+00
2.234318185979796478e+00
2.234318185979796478e+00
2.234318185979796478e+00
2.229255531479842567e+00
2.229255531479842567e+00
2.229255531479842567e+00
2.202442213202307375e+00
2.202442213202307375e+00
2.202442213202307375e+00
2.202442213202307375e+00
2.208629902035584625e+00
2.208629902035584625e+00
2.208629902035584625e+00
2.273694387646107540e+00
2.273694387646107540e+00
2.273694387646107540e+00
2.310820520645771925e+00
2.310820520645771925e+00
2.310820520645771925e+00
2.310820520645771925e+00
2.310633014923550999e+00
2.310633014923550999e+00
2.310633014923550999e+00
2.311195532090212890e+00
2.311195532090212890e+00
2.311195532090212890e+00
2.311195532090212890e+00
2.289444868312631609e+00
2.289444868312631609e+00
2.289444868312631609e+00
2.228880520035401602e+00
2.228880520035401602e+00
2.228880520035401602e+00
2.228880520035401602e+00
2.213692556535538980e+00
2.213692556535538980e+00
2.213692556535538980e+00
2.225505417035432032e+00
2.225505417035432032e+00
2.225505417035432032e+00
2.265631641590625023e+00
2.265631641590625023e+00
2.265631641590625023e+00
2.265631641590625023e+00
2.260006469924008776e+00
2.260006469924008776e+00
2.260006469924008776e+00
2.250256172368541474e+00
2.250256172368541474e+00
2.250256172368541474e+00
2.250256172368541474e+00
2.240318369090853690e+00
2.240318369090853690e+00
2.240318369090853690e+00
2.227380474257637299e+00
2.227380474257637299e+00
2.227380474257637299e+00
2.246506057924130939e+00
2.246506057924130939e+00
2.246506057924130939e+00
2.246506057924130939e+00
2.270319284646137969e+00
2.270319284646137969e+00
2.270319284646137969e+00
2.266569170201727434e+00
2.266569170201727434e+00
2.266569170201727434e+00
2.266569170201727434e+00
2.302757774590289408e+00
2.302757774590289408e+00
2.302757774590289408e+00
2.320383312479018745e+00
2.320383312479018745e+00
2.320383312479018745e+00
2.320383312479018745e+00
2.288882351145970162e+00
2.288882351145970162e+00
2.288882351145970162e+00
2.272756859035004684e+00
2.272756859035004684e+00
2.272756859035004684e+00
2.258131412701803509e+00
2.258131412701803509e+00
2.258131412701803509e+00
2.258131412701803509e+00
2.245006012146367080e+00
2.245006012146367080e+00
2.245006012146367080e+00
2.270131778923917043e+00
2.270131778923917043e+00
2.270131778923917043e+00
2.236943266090884119e+00
2.236943266090884119e+00
2.236943266090884119e+00
2.236943266090884119e+00
2.220067751091036712e+00
2.220067751091036712e+00
2.220067751091036712e+00
2.227005462813196335e+00
2.227005462813196335e+00
2.227005462813196335e+00
2.227005462813196335e+00
2.173941343424787398e+00
2.173941343424787398e+00
2.173941343424787398e+00
2.209567430646687480e+00
2.209567430646687480e+00
2.209567430646687480e+00
2.209567430646687480e+00
2.265069124423963132e+00
2.265069124423963132e+00
2.265069124423963132e+00
2.301070223090304623e+00
2.301070223090304623e+00
2.301070223090304623e+00
2.350196722312082542e+00
2.350196722312082542e+00
2.350196722312082542e+00
2.350196722312082542e+00
2.348884182256538722e+00
2.348884182256538722e+00
2.348884182256538722e+00
2.308570451979125249e+00
2.308570451979125249e+00
2.308570451979125249e+00
2.308570451979125249e+00
2.277632007812738557e+00
2.277632007812738557e+00
2.277632007812738557e+00
2.256818872646260132e+00
2.256818872646260132e+00
2.256818872646260132e+00
2.240505874813074172e+00
2.240505874813074172e+00
2.240505874813074172e+00
2.240505874813074172e+00
2.258881435590685438e+00
2.258881435590685438e+00
2.258881435590685438e+00
2.224755394146549659e+00
2.224755394146549659e+00
2.224755394146549659e+00
2.224755394146549659e+00
2.213692556535538980e+00
2.213692556535538980e+00
2.213692556535538980e+00
2.210692464980010374e+00
2.210692464980010374e+00
2.210692464980010374e+00
2.210692464980010374e+00
2.207504867702261730e+00
2.207504867702261730e+00
2.207504867702261730e+00
2.245006012146367080e+00
2.245006012146367080e+00
2.245006012146367080e+00
2.303695303201391820e+00
2.303695303201391820e+00
2.303695303201391820e+00
2.303695303201391820e+00
2.316258186590166801e+00
2.316258186590166801e+00
2.316258186590166801e+00
2.347946653645436310e+00
2.347946653645436310e+00
2.347946653645436310e+00
2.347946653645436310e+00
2.311008026367992407e+00
2.311008026367992407e+00
2.311008026367992407e+00
2.300695211645863214e+00
2.300695211645863214e+00
2.300695211645863214e+00
2.300695211645863214e+00
2.294132511368144556e+00
2.294132511368144556e+00
2.294132511368144556e+00
2.286069765312662039e+00
2.286069765312662039e+00
2.286069765312662039e+00
2.240505874813074172e+00
2.240505874813074172e+00
2.240505874813074172e+00
2.240505874813074172e+00
2.219692739646595747e+00
2.219692739646595747e+00
2.219692739646595747e+00
2.198692098757896396e+00
2.198692098757896396e+00
2.198692098757896396e+00
2.198692098757896396e+00
2.189691824091311467e+00
2.189691824091311467e+00
2.189691824091311467e+00
2.138877773369548763e+00
2.138877773369548763e+00
2.138877773369548763e+00
2.163253517258217240e+00
2.163253517258217240e+00
2.163253517258217240e+00
2.163253517258217240e+00
2.227192968535416817e+00
2.227192968535416817e+00
2.227192968535416817e+00
2.260943998535111632e+00
2.260943998535111632e+00
2.260943998535111632e+00
2.260943998535111632e+00
2.309132969145787140e+00
2.309132969145787140e+00
2.309132969145787140e+00
2.371384868923001932e+00
2.371384868923001932e+00
2.371384868923001932e+00
2.381885189367351607e+00
2.381885189367351607e+00
2.381885189367351607e+00
2.381885189367351607e+00
2.335196264534440402e+00
2.335196264534440402e+00
2.335196264534440402e+00
2.298632648701437464e+00
2.298632648701437464e+00
2.298632648701437464e+00
2.298632648701437464e+00
2.247818597979674760e+00
2.247818597979674760e+00
2.247818597979674760e+00
2.225880428479872997e+00
2.225880428479872997e+00
2.225880428479872997e+00
2.224380382702108694e+00
2.224380382702108694e+00
2.224380382702108694e+00
2.224380382702108694e+00
2.185754203924680450e+00
2.185754203924680450e+00
2.185754203924680450e+00
2.208254890591143660e+00
2.208254890591143660e+00
2.208254890591143660e+00
2.182754112369151844e+00
2.182754112369151844e+00
2.182754112369151844e+00
2.182754112369151844e+00
2.204879787591174090e+00
2.204879787591174090e+00
2.204879787591174090e+00
2.238818323313089387e+00
2.238818323313089387e+00
2.238818323313089387e+00
2.238818323313089387e+00
2.269944273201696561e+00
2.269944273201696561e+00
2.269944273201696561e+00
2.350759239478743989e+00
2.350759239478743989e+00
2.350759239478743989e+00
2.328071047090059853e+00
2.328071047090059853e+00
2.328071047090059853e+00
2.328071047090059853e+00
2.309507980590228104e+00
2.309507980590228104e+00
2.309507980590228104e+00
2.273506881923887057e+00
2.273506881923887057e+00
2.273506881923887057e+00
2.273506881923887057e+00
2.264881618701742649e+00
2.264881618701742649e+00
2.264881618701742649e+00
2.272006836146122755e+00
2.272006836146122755e+00
2.272006836146122755e+00
2.272006836146122755e+00
2.246318552201910457e+00
2.246318552201910457e+00
2.246318552201910457e+00
2.197004547257912055e+00
2.197004547257912055e+00
2.197004547257912055e+00
2.200942167424543072e+00
2.200942167424543072e+00
2.200942167424543072e+00
2.200942167424543072e+00
2.205817316202276945e+00
2.205817316202276945e+00
2.205817316202276945e+00
2.215192602313302839e+00
2.215192602313302839e+00
2.215192602313302839e+00
2.215192602313302839e+00
2.279319559312723342e+00
2.279319559312723342e+00
2.279319559312723342e+00
2.313820612201300086e+00
2.313820612201300086e+00
2.313820612201300086e+00
2.298070131534776017e+00
2.298070131534776017e+00
2.298070131534776017e+00
2.298070131534776017e+00
2.325633472701193583e+00
2.325633472701193583e+00
2.325633472701193583e+00
2.293945005645924073e+00
2.293945005645924073e+00
2.293945005645924073e+00
2.293945005645924073e+00
2.297320108645893644e+00
2.297320108645893644e+00
2.297320108645893644e+00
2.292819971312600735e+00
2.292819971312600735e+00
2.292819971312600735e+00
2.272569353312784202e+00
2.272569353312784202e+00
2.272569353312784202e+00
2.272569353312784202e+00
2.266944181646168399e+00
2.266944181646168399e+00
2.266944181646168399e+00
2.235443220313119816e+00
2.235443220313119816e+00
2.235443220313119816e+00
2.235443220313119816e+00
2.214255073702200427e+00
2.214255073702200427e+00
2.214255073702200427e+00
2.200942167424543072e+00
2.200942167424543072e+00
2.200942167424543072e+00
2.200942167424543072e+00
2.189316812646870059e+00
2.189316812646870059e+00
2.189316812646870059e+00
2.195504501480147752e+00
2.195504501480147752e+00
2.195504501480147752e+00
2.232818140202032620e+00
2.232818140202032620e+00
2.232818140202032620e+00
2.232818140202032620e+00
2.270131778923917043e+00
2.270131778923917043e+00
2.270131778923917043e+00
2.295632557145908859e+00
2.295632557145908859e+00
2.295632557145908859e+00
2.295632557145908859e+00
2.315133152256843907e+00
2.315133152256843907e+00
2.315133152256843907e+00
2.328821069978942226e+00
2.328821069978942226e+00
2.328821069978942226e+00
2.328821069978942226e+00
2.309882992034669069e+00
2.309882992034669069e+00
2.309882992034669069e+00
2.312133060701315301e+00
2.312133060701315301e+00
2.312133060701315301e+00
2.288319833979308715e+00
2.288319833979308715e+00
2.288319833979308715e+00
2.288319833979308715e+00
2.307445417645802355e+00
2.307445417645802355e+00
2.307445417645802355e+00
2.234130680257575996e+00
2.234130680257575996e+00
2.234130680257575996e+00
2.234130680257575996e+00
2.225692922757652514e+00
2.225692922757652514e+00
2.225692922757652514e+00
2.209567430646687480e+00
2.209567430646687480e+00
2.209567430646687480e+00
2.175628894924771739e+00
2.175628894924771739e+00
2.175628894924771739e+00
2.175628894924771739e+00
2.172628803369243577e+00
2.172628803369243577e+00
2.172628803369243577e+00
2.240318369090853690e+00
2.240318369090853690e+00
2.240318369090853690e+00
2.240318369090853690e+00
2.279507065034943825e+00
2.279507065034943825e+00
2.279507065034943825e+00
2.339696401867732423e+00
2.339696401867732423e+00
2.339696401867732423e+00
2.322820886867885459e+00
2.322820886867885459e+00
2.322820886867885459e+00
2.322820886867885459e+00
2.256068849757378203e+00
2.256068849757378203e+00
2.256068849757378203e+00
2.225880428479872997e+00
2.225880428479872997e+00
2.225880428479872997e+00
2.225880428479872997e+00
2.255131321146275347e+00
2.255131321146275347e+00
2.255131321146275347e+00
2.248943632312997654e+00
2.248943632312997654e+00
2.248943632312997654e+00
2.248943632312997654e+00
2.272944364757225166e+00
2.272944364757225166e+00
2.272944364757225166e+00
2.248381115146336207e+00
2.248381115146336207e+00
2.248381115146336207e+00
2.242943449201941331e+00
2.242943449201941331e+00
2.242943449201941331e+00
2.242943449201941331e+00
2.265819147312845505e+00
2.265819147312845505e+00
2.265819147312845505e+00
2.245193517868587563e+00
2.245193517868587563e+00
2.245193517868587563e+00
2.245193517868587563e+00
2.267881710257271255e+00
2.267881710257271255e+00
2.267881710257271255e+00
2.262069032868434526e+00
2.262069032868434526e+00
2.262069032868434526e+00
2.262069032868434526e+00
2.297507614368114126e+00
2.297507614368114126e+00
2.297507614368114126e+00
2.316820703756828248e+00
2.316820703756828248e+00
2.316820703756828248e+00
2.303882808923612302e+00
2.303882808923612302e+00
2.303882808923612302e+00
2.303882808923612302e+00
2.272381847590563719e+00
2.272381847590563719e+00
2.272381847590563719e+00
2.255881344035157721e+00
2.255881344035157721e+00
2.255881344035157721e+00
2.255881344035157721e+00
2.235630726035340299e+00
2.235630726035340299e+00
2.235630726035340299e+00
2.230005554368724940e+00
2.230005554368724940e+00
2.230005554368724940e+00
2.209379924924466998e+00
2.209379924924466998e+00
2.209379924924466998e+00
2.209379924924466998e+00
2.227192968535416817e+00
2.227192968535416817e+00
2.227192968535416817e+00
2.254568803979613900e+00
2.254568803979613900e+00
2.254568803979613900e+00
2.254568803979613900e+00
2.215942625202185212e+00
2.215942625202185212e+00
2.215942625202185212e+00
2.220630268257698603e+00
2.220630268257698603e+00
2.220630268257698603e+00
2.283069673757133433e+00
2.283069673757133433e+00
2.283069673757133433e+00
2.283069673757133433e+00
2.287194799645985377e+00
2.287194799645985377e+00
2.287194799645985377e+00
2.274069399090548504e+00
2.274069399090548504e+00
2.274069399090548504e+00
2.274069399090548504e+00
2.327508529923398850e+00
2.327508529923398850e+00
2.327508529923398850e+00
2.311945554979094819e+00
2.311945554979094819e+00
2.311945554979094819e+00
2.311945554979094819e+00
2.293569994201483109e+00
2.293569994201483109e+00
2.293569994201483109e+00
2.283444685201574842e+00
2.283444685201574842e+00
2.283444685201574842e+00
2.273319376201666131e+00
2.273319376201666131e+00
2.273319376201666131e+00
2.273319376201666131e+00
2.250068666646320992e+00
2.250068666646320992e+00
2.250068666646320992e+00
2.234505691702016961e+00
2.234505691702016961e+00
2.234505691702016961e+00
2.218755211035493335e+00
2.218755211035493335e+00
2.218755211035493335e+00
2.218755211035493335e+00
2.235255714590899334e+00
2.235255714590899334e+00
2.235255714590899334e+00
2.180691549424726094e+00
2.180691549424726094e+00
2.180691549424726094e+00
2.180691549424726094e+00
2.167753654591509704e+00
2.167753654591509704e+00
2.167753654591509704e+00
2.238255806146427940e+00
2.238255806146427940e+00
2.238255806146427940e+00
2.283632190923795324e+00
2.283632190923795324e+00
2.283632190923795324e+00
2.283632190923795324e+00
2.347009125034333454e+00
2.347009125034333454e+00
2.347009125034333454e+00
2.352821802423169739e+00
2.352821802423169739e+00
2.352821802423169739e+00
2.352821802423169739e+00
2.320383312479018745e+00
2.320383312479018745e+00
2.320383312479018745e+00
2.293382488479262626e+00
2.293382488479262626e+00
2.293382488479262626e+00
2.293382488479262626e+00
2.273319376201666131e+00
2.273319376201666131e+00
2.273319376201666131e+00
2.238255806146427940e+00
2.238255806146427940e+00
2.238255806146427940e+00
2.212755027924436124e+00
2.212755027924436124e+00
2.212755027924436124e+00
2.212755027924436124e+00
2.200192144535660699e+00
2.200192144535660699e+00
2.200192144535660699e+00
2.276131962034974254e+00
2.276131962034974254e+00
2.276131962034974254e+00
2.276131962034974254e+00
2.252506241035188150e+00
2.252506241035188150e+00
2.252506241035188150e+00
2.174878872035889810e+00
2.174878872035889810e+00
2.174878872035889810e+00
2.180691549424726094e+00
2.180691549424726094e+00
2.180691549424726094e+00
2.180691549424726094e+00
2.217067659535508550e+00
2.217067659535508550e+00
2.217067659535508550e+00
2.268444227423932702e+00
2.268444227423932702e+00
2.268444227423932702e+00
2.324883449812311209e+00
2.324883449812311209e+00
2.324883449812311209e+00
2.324883449812311209e+00
2.366884731589709023e+00
2.366884731589709023e+00
2.366884731589709023e+00
2.359384502700888397e+00
2.359384502700888397e+00
2.359384502700888397e+00
2.359384502700888397e+00
2.312508072145756710e+00
2.312508072145756710e+00
2.312508072145756710e+00
2.274819421979430434e+00
2.274819421979430434e+00
2.274819421979430434e+00
2.274819421979430434e+00
2.217442670979949515e+00
2.217442670979949515e+00
2.217442670979949515e+00
2.194941984313486305e+00
2.194941984313486305e+00
2.194941984313486305e+00
2.197754570146794428e+00
2.197754570146794428e+00
2.197754570146794428e+00
2.197754570146794428e+00
2.221192785424360050e+00
2.221192785424360050e+00
2.221192785424360050e+00
2.216505142368846659e+00
2.216505142368846659e+00
2.216505142368846659e+00
2.216505142368846659e+00
2.217255165257729033e+00
2.217255165257729033e+00
2.217255165257729033e+00
2.242943449201941331e+00
2.242943449201941331e+00
2.242943449201941331e+00
2.242943449201941331e+00
2.311758049256874337e+00
2.311758049256874337e+00
2.311758049256874337e+00
2.361447065645314147e+00
2.361447065645314147e+00
2.361447065645314147e+00
2.368947294534135217e+00
2.368947294534135217e+00
2.368947294534135217e+00
2.368947294534135217e+00
2.323945921201208797e+00
2.323945921201208797e+00
2.323945921201208797e+00
2.262631550035096417e+00
2.262631550035096417e+00
2.262631550035096417e+00
2.262631550035096417e+00
2.224567888424329176e+00
2.224567888424329176e+00
2.224567888424329176e+00
2.201317178868984037e+00
2.201317178868984037e+00
2.201317178868984037e+00
2.230193060090945423e+00
2.230193060090945423e+00
2.230193060090945423e+00
2.230193060090945423e+00
2.264694112979522167e+00
2.264694112979522167e+00
2.264694112979522167e+00
2.239193334757530351e+00
2.239193334757530351e+00
2.239193334757530351e+00
2.239193334757530351e+00
2.199067110202337361e+00
2.199067110202337361e+00
2.199067110202337361e+00
2.187066743980223826e+00
2.187066743980223826e+00
2.187066743980223826e+00
2.225692922757652514e+00
2.225692922757652514e+00
2.225692922757652514e+00
2.225692922757652514e+00
2.285882259590441556e+00
2.285882259590441556e+00
2.285882259590441556e+00
2.281757133701590057e+00
2.281757133701590057e+00
2.281757133701590057e+00
2.281757133701590057e+00
2.303882808923612302e+00
2.303882808923612302e+00
2.303882808923612302e+00
2.314008117923521013e+00
2.314008117923521013e+00
2.314008117923521013e+00
2.309695486312448587e+00
2.309695486312448587e+00
2.309695486312448587e+00
2.309695486312448587e+00
2.278757042146061895e+00
2.278757042146061895e+00
2.278757042146061895e+00
2.293757499923703591e+00
2.293757499923703591e+00
2.293757499923703591e+00
2.293757499923703591e+00
2.253818781090731527e+00
2.253818781090731527e+00
2.253818781090731527e+00
2.217255165257729033e+00
2.217255165257729033e+00
2.217255165257729033e+00
2.217255165257729033e+00
2.236005737479781263e+00
2.236005737479781263e+00
2.236005737479781263e+00
2.256443861201819168e+00
2.256443861201819168e+00
2.256443861201819168e+00
2.264694112979522167e+00
2.264694112979522167e+00
2.264694112979522167e+00
2.264694112979522167e+00
2.203004730368968822e+00
2.203004730368968822e+00
2.203004730368968822e+00
2.239380840479750834e+00
2.239380840479750834e+00
2.239380840479750834e+00
2.239380840479750834e+00
2.284944730979339145e+00
2.284944730979339145e+00
2.284944730979339145e+00
2.307070406201360946e+00
2.307070406201360946e+00
2.307070406201360946e+00
2.309320474868007622e+00
2.309320474868007622e+00
2.309320474868007622e+00
2.309320474868007622e+00
2.329383587145603673e+00
2.329383587145603673e+00
2.329383587145603673e+00
2.299757683034760802e+00
2.299757683034760802e+00
2.299757683034760802e+00
2.299757683034760802e+00
2.242943449201941331e+00
2.242943449201941331e+00
2.242943449201941331e+00
2.224567888424329176e+00
2.224567888424329176e+00
2.224567888424329176e+00
2.224567888424329176e+00
2.224567888424329176e+00
2.224567888424329176e+00
2.224567888424329176e+00
2.238818323313089387e+00
2.238818323313089387e+00
2.238818323313089387e+00
2.228505508590960638e+00
2.228505508590960638e+00
2.228505508590960638e+00
2.228505508590960638e+00
2.236005737479781263e+00
2.236005737479781263e+00
2.236005737479781263e+00
2.220817773979919085e+00
2.220817773979919085e+00
2.220817773979919085e+00
2.220817773979919085e+00
2.203754753257850751e+00
2.203754753257850751e+00
2.203754753257850751e+00
2.255881344035157721e+00
2.255881344035157721e+00
2.255881344035157721e+00
2.296570085757011714e+00
2.296570085757011714e+00
2.296570085757011714e+00
2.296570085757011714e+00
2.255506332590716312e+00
2.255506332590716312e+00
2.255506332590716312e+00
2.299570177312540320e+00
2.299570177312540320e+00
2.299570177312540320e+00
2.299570177312540320e+00
2.322070863979003530e+00
2.322070863979003530e+00
2.322070863979003530e+00
2.312695577867977192e+00
2.312695577867977192e+00
2.312695577867977192e+00
2.312695577867977192e+00
2.265444135868404540e+00
2.265444135868404540e+00
2.265444135868404540e+00
2.305945371868038052e+00
2.305945371868038052e+00
2.305945371868038052e+00
2.300695211645863214e+00
2.300695211645863214e+00
2.300695211645863214e+00
2.300695211645863214e+00
2.286257271034882521e+00
2.286257271034882521e+00
2.267319193090609808e+00
2.267319193090609808e+00
2.267319193090609808e+00
2.267881710257271255e+00
2.267881710257271255e+00
2.267881710257271255e+00
2.210317453535568966e+00
2.210317453535568966e+00
2.210317453535568966e+00
2.210317453535568966e+00
2.174691366313669327e+00
2.174691366313669327e+00
2.174691366313669327e+00
2.233568163090914993e+00
2.233568163090914993e+00
2.233568163090914993e+00
2.261319009979552597e+00
2.261319009979552597e+00
2.261319009979552597e+00
2.261319009979552597e+00
2.239193334757530351e+00
2.239193334757530351e+00
2.239193334757530351e+00
2.262069032868434526e+00
2.262069032868434526e+00
2.262069032868434526e+00
2.262069032868434526e+00
2.248193609424115724e+00
2.248193609424115724e+00
2.248193609424115724e+00
2.259443952757347329e+00
2.259443952757347329e+00
2.259443952757347329e+00
2.259443952757347329e+00
2.275569444868312807e+00
2.275569444868312807e+00
2.275569444868312807e+00
2.249506149479659545e+00
2.249506149479659545e+00
2.249506149479659545e+00
2.297507614368114126e+00
2.297507614368114126e+00
2.297507614368114126e+00
2.297507614368114126e+00
2.263756584368419311e+00
2.263756584368419311e+00
2.263756584368419311e+00
2.241818414868617992e+00
2.241818414868617992e+00
2.241818414868617992e+00
2.241818414868617992e+00
2.264319101535081202e+00
2.264319101535081202e+00
2.264319101535081202e+00
2.257756401257362544e+00
2.257756401257362544e+00
2.257756401257362544e+00
2.226630451368755370e+00
2.226630451368755370e+00
2.226630451368755370e+00
2.226630451368755370e+00
2.233005645924253102e+00
2.233005645924253102e+00
2.233005645924253102e+00
2.255693838312936794e+00
2.255693838312936794e+00
2.255693838312936794e+00
2.255693838312936794e+00
2.292632465590380253e+00
2.292632465590380253e+00
2.292632465590380253e+00
2.348509170812097757e+00
2.348509170812097757e+00
2.348509170812097757e+00
2.283444685201574842e+00
2.283444685201574842e+00
2.283444685201574842e+00
2.283444685201574842e+00
2.181629078035828950e+00
2.181629078035828950e+00
2.181629078035828950e+00
2.233755668813135031e+00
2.233755668813135031e+00
2.233755668813135031e+00
2.233755668813135031e+00
2.229068025757622085e+00
2.229068025757622085e+00
2.229068025757622085e+00
2.225130405590991067e+00
2.225130405590991067e+00
2.225130405590991067e+00
2.225130405590991067e+00
2.258693929868464956e+00
2.258693929868464956e+00
2.258693929868464956e+00
2.272756859035004684e+00
2.272756859035004684e+00
2.272756859035004684e+00
2.252506241035188150e+00
2.252506241035188150e+00
2.252506241035188150e+00
2.252506241035188150e+00
2.225880428479872997e+00
2.225880428479872997e+00
2.225880428479872997e+00
2.240130863368633207e+00
2.240130863368633207e+00
2.240130863368633207e+00
2.240130863368633207e+00
2.305945371868038052e+00
2.305945371868038052e+00
2.305945371868038052e+00
2.331071138645588459e+00
2.331071138645588459e+00
2.320570818201239227e+00
2.320570818201239227e+00
2.320570818201239227e+00
2.326946012756737403e+00
2.326946012756737403e+00
2.326946012756737403e+00
2.326946012756737403e+00
2.294132511368144556e+00
2.294132511368144556e+00
2.294132511368144556e+00
2.267319193090609808e+00
2.267319193090609808e+00
2.267319193090609808e+00
2.267319193090609808e+00
2.256631366924039650e+00
2.256631366924039650e+00
2.256631366924039650e+00
2.234318185979796478e+00
2.234318185979796478e+00
2.234318185979796478e+00
2.257381389812921579e+00
2.257381389812921579e+00
2.257381389812921579e+00
2.257381389812921579e+00
2.187441755424664791e+00
2.187441755424664791e+00
2.187441755424664791e+00
2.202067201757865966e+00
2.202067201757865966e+00
2.202067201757865966e+00
2.206004821924497428e+00
2.206004821924497428e+00
2.206004821924497428e+00
2.206004821924497428e+00
2.192691915646840073e+00
2.192691915646840073e+00
2.192691915646840073e+00
2.252131229590746742e+00
2.252131229590746742e+00
2.252131229590746742e+00
2.252131229590746742e+00
2.326758507034516477e+00
2.326758507034516477e+00
2.326758507034516477e+00
2.299007660145878429e+00
2.299007660145878429e+00
2.299007660145878429e+00
2.327508529923398850e+00
2.327508529923398850e+00
2.327508529923398850e+00
2.327508529923398850e+00
2.274631916257209951e+00
2.274631916257209951e+00
2.274631916257209951e+00
2.250818689535202921e+00
2.250818689535202921e+00
2.250818689535202921e+00
2.274819421979430434e+00
2.274819421979430434e+00
2.274819421979430434e+00
2.274819421979430434e+00
2.282132145146031021e+00
2.282132145146031021e+00
2.282132145146031021e+00
2.269381756035035114e+00
2.269381756035035114e+00
2.269381756035035114e+00
2.269381756035035114e+00
2.239005829035309869e+00
2.239005829035309869e+00
2.239005829035309869e+00
2.217067659535508550e+00
2.217067659535508550e+00
2.217067659535508550e+00
2.298070131534776017e+00
2.298070131534776017e+00
2.298070131534776017e+00
2.298070131534776017e+00
2.252506241035188150e+00
2.252506241035188150e+00
2.252506241035188150e+00
2.221192785424360050e+00
2.221192785424360050e+00
2.221192785424360050e+00
2.221192785424360050e+00
2.265069124423963132e+00
2.265069124423963132e+00
2.265069124423963132e+00
2.291507431257057803e+00
2.291507431257057803e+00
2.291507431257057803e+00
2.304445326090273749e+00
2.304445326090273749e+00
2.304445326090273749e+00
2.304445326090273749e+00
2.329383587145603673e+00
2.329383587145603673e+00
2.329383587145603673e+00
2.279694570757164307e+00
2.279694570757164307e+00
2.279694570757164307e+00
2.279694570757164307e+00
2.232443128757591655e+00
2.232443128757591655e+00
2.232443128757591655e+00
2.285132236701559627e+00
2.285132236701559627e+00
2.285132236701559627e+00
2.285132236701559627e+00
2.268444227423932702e+00
2.268444227423932702e+00
2.268444227423932702e+00
2.327696035645618888e+00
2.327696035645618888e+00
2.327696035645618888e+00
2.275569444868312807e+00
2.275569444868312807e+00
2.275569444868312807e+00
2.275569444868312807e+00
2.212192510757774677e+00
2.212192510757774677e+00
2.212192510757774677e+00
2.165691091647083955e+00
2.165691091647083955e+00
2.165691091647083955e+00
2.165691091647083955e+00
2.133065095980712478e+00
2.133065095980712478e+00
2.133065095980712478e+00
2.135315164647358710e+00
2.135315164647358710e+00
2.135315164647358710e+00
2.219505233924375265e+00
2.219505233924375265e+00
2.219505233924375265e+00
2.219505233924375265e+00
2.290382396923734465e+00
2.290382396923734465e+00
2.290382396923734465e+00
2.319820795312356854e+00
2.319820795312356854e+00
2.319820795312356854e+00
2.319820795312356854e+00
2.393885555589465142e+00
2.393885555589465142e+00
2.393885555589465142e+00
2.389572923978392716e+00
2.389572923978392716e+00
2.389572923978392716e+00
2.389572923978392716e+00
2.337071321756645670e+00
2.337071321756645670e+00
2.337071321756645670e+00
2.309882992034669069e+00
2.309882992034669069e+00
2.309882992034669069e+00
2.271444318979460864e+00
2.271444318979460864e+00
2.271444318979460864e+00
2.271444318979460864e+00
2.268819238868374111e+00
2.268819238868374111e+00
2.268819238868374111e+00
2.207692373424482213e+00
2.207692373424482213e+00
2.207692373424482213e+00
2.152003173924985191e+00
2.152003173924985191e+00
2.152003173924985191e+00
2.152003173924985191e+00
2.164753563035981099e+00
2.164753563035981099e+00
2.164753563035981099e+00
2.149753105258339403e+00
2.149753105258339403e+00
2.149753105258339403e+00
2.149753105258339403e+00
2.197004547257912055e+00
2.197004547257912055e+00
2.197004547257912055e+00
2.189691824091311467e+00
2.189691824091311467e+00
2.189691824091311467e+00
2.260193975646229259e+00
2.260193975646229259e+00
2.260193975646229259e+00
2.260193975646229259e+00
2.332946195867793726e+00
2.332946195867793726e+00
2.332946195867793726e+00
2.326946012756737403e+00
2.326946012756737403e+00
2.326946012756737403e+00
2.326946012756737403e+00
2.309320474868007622e+00
2.309320474868007622e+00
2.309320474868007622e+00
2.312508072145756710e+00
2.312508072145756710e+00
2.312508072145756710e+00
2.312508072145756710e+00
2.277819513534959039e+00
2.277819513534959039e+00
2.277819513534959039e+00
2.262444044312875935e+00
2.262444044312875935e+00
2.262444044312875935e+00
2.249693655201880027e+00
2.249693655201880027e+00
2.249693655201880027e+00
2.249693655201880027e+00
2.266194158757286470e+00
2.266194158757286470e+00
2.266194158757286470e+00
2.276319467757194737e+00
2.276319467757194737e+00
2.276319467757194737e+00
2.276319467757194737e+00
2.293757499923703591e+00
2.293757499923703591e+00
2.293757499923703591e+00
2.233568163090914993e+00
2.233568163090914993e+00
2.233568163090914993e+00
2.210692464980010374e+00
2.210692464980010374e+00
2.210692464980010374e+00
2.210692464980010374e+00
2.264319101535081202e+00
2.264319101535081202e+00
2.264319101535081202e+00
2.235443220313119816e+00
2.235443220313119816e+00
2.235443220313119816e+00
2.235443220313119816e+00
2.247068575090792386e+00
2.247068575090792386e+00
2.247068575090792386e+00
2.304820337534714714e+00
2.304820337534714714e+00
2.304820337534714714e+00
2.304820337534714714e+00
2.302945280312509890e+00
2.302945280312509890e+00
2.302945280312509890e+00
2.297507614368114126e+00
2.297507614368114126e+00
2.297507614368114126e+00
2.262819055757316900e+00
2.262819055757316900e+00
2.262819055757316900e+00
2.262819055757316900e+00
2.266381664479506952e+00
2.266381664479506952e+00
2.266381664479506952e+00
2.255318826868495830e+00
2.255318826868495830e+00
2.255318826868495830e+00
2.255318826868495830e+00
2.246131046479689974e+00
2.246131046479689974e+00
2.246131046479689974e+00
2.181629078035828950e+00
2.181629078035828950e+00
2.181629078035828950e+00
2.213317545091097571e+00
2.213317545091097571e+00
2.213317545091097571e+00
2.213317545091097571e+00
2.234880703146458369e+00
2.234880703146458369e+00
2.234880703146458369e+00
2.242755943479720404e+00
2.242755943479720404e+00
2.242755943479720404e+00
2.242755943479720404e+00
2.214817590868861874e+00
2.214817590868861874e+00
2.214817590868861874e+00
2.245381023590808045e+00
2.245381023590808045e+00
2.245381023590808045e+00
2.245381023590808045e+00
2.328071047090059853e+00
2.328071047090059853e+00
2.328071047090059853e+00
2.303507797479171337e+00
2.303507797479171337e+00
2.303507797479171337e+00
2.306695394756919981e+00
2.306695394756919981e+00
2.306695394756919981e+00
2.306695394756919981e+00
2.298632648701437464e+00
2.298632648701437464e+00
2.298632648701437464e+00
2.295257545701467894e+00
2.295257545701467894e+00
2.295257545701467894e+00
2.295257545701467894e+00
2.275569444868312807e+00
2.275569444868312807e+00
2.275569444868312807e+00
2.273131870479445649e+00
2.273131870479445649e+00
2.273131870479445649e+00
2.252131229590746742e+00
2.252131229590746742e+00
2.252131229590746742e+00
2.252131229590746742e+00
2.196817041535691573e+00
2.196817041535691573e+00
2.196817041535691573e+00
2.207504867702261730e+00
2.207504867702261730e+00
2.207504867702261730e+00
2.207504867702261730e+00
2.218755211035493335e+00
2.218755211035493335e+00
2.218755211035493335e+00
2.293945005645924073e+00
2.293945005645924073e+00
2.293945005645924073e+00
2.303695303201391820e+00
2.303695303201391820e+00
2.303695303201391820e+00
2.303695303201391820e+00
2.307257911923581428e+00
2.307257911923581428e+00
2.307257911923581428e+00
2.313633106479079604e+00
2.313633106479079604e+00
2.313633106479079604e+00
2.313633106479079604e+00
2.261881527146214044e+00
2.261881527146214044e+00
2.261881527146214044e+00
2.231318094424268317e+00
2.231318094424268317e+00
2.231318094424268317e+00
2.247631092257453833e+00
2.247631092257453833e+00
2.247631092257453833e+00
2.247631092257453833e+00
2.231880611590930208e+00
2.231880611590930208e+00
2.231880611590930208e+00
2.280632099368266719e+00
2.280632099368266719e+00
2.280632099368266719e+00
2.280632099368266719e+00
2.230380565813165905e+00
2.230380565813165905e+00
2.230380565813165905e+00
2.189129306924649576e+00
2.189129306924649576e+00
2.189129306924649576e+00
2.217817682424390480e+00
2.217817682424390480e+00
2.217817682424390480e+00
2.217817682424390480e+00
2.247068575090792386e+00
2.247068575090792386e+00
2.247068575090792386e+00
2.198879604480116878e+00
2.198879604480116878e+00
2.198879604480116878e+00
2.198879604480116878e+00
2.275569444868312807e+00
2.275569444868312807e+00
2.275569444868312807e+00
2.321320841090121156e+00
2.321320841090121156e+00
2.321320841090121156e+00
2.342508987701040546e+00
2.342508987701040546e+00
2.342508987701040546e+00
2.342508987701040546e+00
2.371009857478560967e+00
2.371009857478560967e+00
2.371009857478560967e+00
2.326946012756737403e+00
2.326946012756737403e+00
2.326946012756737403e+00
2.326946012756737403e+00
2.247256080813012868e+00
2.247256080813012868e+00
2.247256080813012868e+00
2.247256080813012868e+00
2.247256080813012868e+00
2.247256080813012868e+00
2.247256080813012868e+00
2.267694204535050773e+00
2.267694204535050773e+00
2.267694204535050773e+00
2.261694021423993561e+00
2.261694021423993561e+00
2.261694021423993561e+00
2.266569170201727434e+00
2.266569170201727434e+00
2.266569170201727434e+00
2.266569170201727434e+00
2.209192419202246516e+00
2.209192419202246516e+00
2.209192419202246516e+00
2.257568895535142062e+00
2.257568895535142062e+00
2.257568895535142062e+00
2.257568895535142062e+00
2.229068025757622085e+00
2.229068025757622085e+00
2.229068025757622085e+00
2.265819147312845505e+00
2.265819147312845505e+00
2.265819147312845505e+00
2.265819147312845505e+00
2.306695394756919981e+00
2.306695394756919981e+00
2.306695394756919981e+00
2.309320474868007622e+00
2.309320474868007622e+00
2.309320474868007622e+00
2.285882259590441556e+00
2.285882259590441556e+00
2.285882259590441556e+00
2.285882259590441556e+00
2.225130405590991067e+00
2.225130405590991067e+00
2.225130405590991067e+00
2.242755943479720404e+00
2.242755943479720404e+00
2.242755943479720404e+00
2.242755943479720404e+00
2.205067293313394572e+00
2.205067293313394572e+00
2.205067293313394572e+00
2.156878322702719064e+00
2.156878322702719064e+00
2.156878322702719064e+00
2.242943449201941331e+00
2.242943449201941331e+00
2.242943449201941331e+00
2.242943449201941331e+00
2.245006012146367080e+00
2.245006012146367080e+00
2.245006012146367080e+00
2.213130039368877089e+00
2.213130039368877089e+00
2.213130039368877089e+00
2.242568437757499922e+00
2.242568437757499922e+00
2.242568437757499922e+00
2.242568437757499922e+00
2.269569261757255596e+00
2.269569261757255596e+00
2.269569261757255596e+00
2.280632099368266719e+00
2.280632099368266719e+00
2.280632099368266719e+00
2.280632099368266719e+00
2.327508529923398850e+00
2.327508529923398850e+00
2.327508529923398850e+00
2.302945280312509890e+00
2.302945280312509890e+00
2.302945280312509890e+00
2.302945280312509890e+00
2.339696401867732423e+00
2.339696401867732423e+00
2.339696401867732423e+00
2.331446150090029423e+00
2.331446150090029423e+00
2.331446150090029423e+00
2.315320657979064389e+00
2.315320657979064389e+00
2.315320657979064389e+00
2.315320657979064389e+00
2.296757591479232197e+00
2.296757591479232197e+00
2.296757591479232197e+00
2.268444227423932702e+00
2.268444227423932702e+00
2.268444227423932702e+00
2.268444227423932702e+00
2.211817499313333268e+00
2.211817499313333268e+00
2.211817499313333268e+00
2.171878780480361648e+00
2.171878780480361648e+00
2.171878780480361648e+00
2.189129306924649576e+00
2.189129306924649576e+00
2.189129306924649576e+00
2.189129306924649576e+00
2.194754478591265823e+00
2.194754478591265823e+00
2.194754478591265823e+00
2.197192052980132537e+00
2.197192052980132537e+00
2.197192052980132537e+00
2.197192052980132537e+00
2.211067476424451339e+00
2.211067476424451339e+00
2.211067476424451339e+00
2.271069307535019899e+00
2.271069307535019899e+00
2.271069307535019899e+00
2.271069307535019899e+00
2.320570818201239227e+00
2.320570818201239227e+00
2.320570818201239227e+00
2.293569994201483109e+00
2.293569994201483109e+00
2.293569994201483109e+00
2.366884731589709023e+00
2.366884731589709023e+00
2.366884731589709023e+00
2.366884731589709023e+00
2.353196813867610704e+00
2.353196813867610704e+00
2.353196813867610704e+00
2.268819238868374111e+00
2.268819238868374111e+00
2.268819238868374111e+00
2.268819238868374111e+00
2.186316721091342341e+00
2.186316721091342341e+00
2.186316721091342341e+00
2.239943357646412725e+00
2.239943357646412725e+00
2.239943357646412725e+00
2.261881527146214044e+00
2.261881527146214044e+00
2.261881527146214044e+00
2.261881527146214044e+00
2.238443311868648422e+00
2.238443311868648422e+00
2.238443311868648422e+00
2.311383037812433372e+00
2.311383037812433372e+00
2.311383037812433372e+00
2.311383037812433372e+00
2.287569811090426342e+00
2.287569811090426342e+00
2.287569811090426342e+00
2.249881160924100509e+00
2.249881160924100509e+00
2.249881160924100509e+00
2.249881160924100509e+00
2.217630176702169997e+00
2.217630176702169997e+00
2.217630176702169997e+00
2.274631916257209951e+00
2.274631916257209951e+00
2.274631916257209951e+00
2.294882534257026929e+00
2.294882534257026929e+00
2.294882534257026929e+00
2.294882534257026929e+00
2.317945738090151586e+00
2.317945738090151586e+00
2.317945738090151586e+00
2.359384502700888397e+00
2.359384502700888397e+00
2.359384502700888397e+00
2.359384502700888397e+00
2.335383770256660885e+00
2.335383770256660885e+00
2.335383770256660885e+00
2.279882076479384789e+00
2.279882076479384789e+00
2.279882076479384789e+00
2.172066286202582130e+00
2.172066286202582130e+00
2.172066286202582130e+00
2.172066286202582130e+00
2.147503036591693171e+00
2.147503036591693171e+00
2.147503036591693171e+00
2.196442030091250608e+00
2.196442030091250608e+00
2.196442030091250608e+00
2.196442030091250608e+00
2.273319376201666131e+00
2.273319376201666131e+00
2.273319376201666131e+00
2.266944181646168399e+00
2.266944181646168399e+00
2.266944181646168399e+00
2.266944181646168399e+00
2.241630909146397510e+00
2.241630909146397510e+00
2.241630909146397510e+00
2.178066469313638454e+00
2.178066469313638454e+00
2.178066469313638454e+00
2.162878505813776275e+00
2.162878505813776275e+00
2.162878505813776275e+00
2.162878505813776275e+00
2.245568529313028083e+00
2.245568529313028083e+00
2.245568529313028083e+00
2.255131321146275347e+00
2.255131321146275347e+00
2.255131321146275347e+00
2.255131321146275347e+00
2.282319650868251504e+00
2.282319650868251504e+00
2.282319650868251504e+00
2.329383587145603673e+00
2.329383587145603673e+00
2.329383587145603673e+00
2.328446058534500818e+00
2.328446058534500818e+00
2.328446058534500818e+00
2.328446058534500818e+00
2.270694296090578934e+00
2.270694296090578934e+00
2.270694296090578934e+00
2.222505325479903426e+00
2.222505325479903426e+00
2.222505325479903426e+00
2.222505325479903426e+00
2.213130039368877089e+00
2.213130039368877089e+00
2.213130039368877089e+00
2.217630176702169997e+00
2.217630176702169997e+00
2.217630176702169997e+00
2.217630176702169997e+00
2.170378734702597345e+00
2.170378734702597345e+00
2.170378734702597345e+00
2.194941984313486305e+00
2.194941984313486305e+00
2.194941984313486305e+00
2.306132877590258534e+00
2.306132877590258534e+00
2.306132877590258534e+00
2.306132877590258534e+00
2.283444685201574842e+00
2.283444685201574842e+00
2.283444685201574842e+00
2.324695944090090727e+00
2.324695944090090727e+00
2.324695944090090727e+00
2.324695944090090727e+00
2.334446241645558029e+00
2.334446241645558029e+00
2.334446241645558029e+00
2.292069948423719250e+00
2.292069948423719250e+00
2.292069948423719250e+00
2.359196996978667915e+00
2.359196996978667915e+00
2.359196996978667915e+00
2.359196996978667915e+00
2.265819147312845505e+00
2.265819147312845505e+00
2.265819147312845505e+00
2.250818689535202921e+00
2.250818689535202921e+00
2.250818689535202921e+00
2.250818689535202921e+00
2.205817316202276945e+00
2.205817316202276945e+00
2.205817316202276945e+00
2.242193426313058957e+00
2.242193426313058957e+00
2.242193426313058957e+00
2.292444959868159771e+00
2.292444959868159771e+00
2.292444959868159771e+00
2.292444959868159771e+00
2.305757866145817125e+00
2.305757866145817125e+00
2.305757866145817125e+00
2.270506790368358452e+00
2.270506790368358452e+00
2.270506790368358452e+00
2.270506790368358452e+00
2.241818414868617992e+00
2.241818414868617992e+00
2.241818414868617992e+00
2.213317545091097571e+00
2.213317545091097571e+00
2.213317545091097571e+00
2.213317545091097571e+00
2.166066103091524919e+00
2.166066103091524919e+00
2.166066103091524919e+00
2.181441572313608468e+00
2.181441572313608468e+00
2.181441572313608468e+00
2.249693655201880027e+00
2.249693655201880027e+00
2.249693655201880027e+00
2.249693655201880027e+00
2.352821802423169739e+00
2.352821802423169739e+00
2.352821802423169739e+00
2.338383861812189490e+00
2.338383861812189490e+00
2.338383861812189490e+00
2.338383861812189490e+00
2.314008117923521013e+00
2.314008117923521013e+00
2.314008117923521013e+00
2.371197363200781449e+00
2.371197363200781449e+00
2.371197363200781449e+00
2.305382854701376161e+00
2.305382854701376161e+00
2.305382854701376161e+00
2.305382854701376161e+00
2.306507889034699499e+00
2.306507889034699499e+00
2.306507889034699499e+00
2.230755577257606870e+00
2.230755577257606870e+00
2.230755577257606870e+00
2.230755577257606870e+00
2.160253425702688634e+00
2.160253425702688634e+00
2.160253425702688634e+00
2.140377819147312621e+00
2.140377819147312621e+00
2.214255073702200427e+00
2.214255073702200427e+00
2.214255073702200427e+00
2.158190862758262885e+00
2.158190862758262885e+00
2.158190862758262885e+00
2.158190862758262885e+00
2.182191595202490397e+00
2.182191595202490397e+00
2.182191595202490397e+00
2.235630726035340299e+00
2.235630726035340299e+00
2.235630726035340299e+00
2.324695944090090727e+00
2.324695944090090727e+00
2.324695944090090727e+00
2.324695944090090727e+00
2.367072237311929506e+00
2.367072237311929506e+00
2.367072237311929506e+00
2.328633564256721744e+00
2.328633564256721744e+00
2.328633564256721744e+00
2.328633564256721744e+00
2.321695852534562121e+00
2.321695852534562121e+00
2.321695852534562121e+00
2.303882808923612302e+00
2.303882808923612302e+00
2.303882808923612302e+00
2.303882808923612302e+00
2.315508163701284872e+00
2.315508163701284872e+00
2.315508163701284872e+00
2.230005554368724940e+00
2.230005554368724940e+00
2.230005554368724940e+00
2.241630909146397510e+00
2.241630909146397510e+00
2.241630909146397510e+00
2.241630909146397510e+00
2.303695303201391820e+00
2.303695303201391820e+00
2.303695303201391820e+00
2.238630817590868904e+00
2.238630817590868904e+00
2.238630817590868904e+00
2.238630817590868904e+00
2.214817590868861874e+00
2.214817590868861874e+00
2.214817590868861874e+00
2.195879512924588717e+00
2.195879512924588717e+00
2.195879512924588717e+00
2.219130222479934300e+00
2.219130222479934300e+00
2.219130222479934300e+00
2.219130222479934300e+00
2.261319009979552597e+00
2.261319009979552597e+00
2.261319009979552597e+00
2.270506790368358452e+00
2.270506790368358452e+00
2.270506790368358452e+00
2.270506790368358452e+00
2.303695303201391820e+00
2.303695303201391820e+00
2.303695303201391820e+00
2.323195898312326424e+00
2.323195898312326424e+00
2.323195898312326424e+00
2.323195898312326424e+00
2.309507980590228104e+00
2.309507980590228104e+00
2.309507980590228104e+00
2.266944181646168399e+00
2.266944181646168399e+00
2.266944181646168399e+00
2.263756584368419311e+00
2.263756584368419311e+00
2.263756584368419311e+00
2.263756584368419311e+00
2.275194433423871843e+00
2.275194433423871843e+00
2.275194433423871843e+00
2.247443586535233351e+00
2.247443586535233351e+00
2.247443586535233351e+00
2.247443586535233351e+00
2.209567430646687480e+00
2.209567430646687480e+00
2.209567430646687480e+00
2.196442030091250608e+00
2.196442030091250608e+00
2.196442030091250608e+00
2.188379284035767647e+00
2.188379284035767647e+00
2.188379284035767647e+00
2.188379284035767647e+00
2.166441114535965884e+00
2.166441114535965884e+00
2.166441114535965884e+00
2.243318460646382295e+00
2.243318460646382295e+00
2.243318460646382295e+00
2.243318460646382295e+00
2.330321115756706529e+00
2.330321115756706529e+00
2.330321115756706529e+00
2.353571825312051669e+00
2.353571825312051669e+00
2.353571825312051669e+00
2.399135715811639535e+00
2.399135715811639535e+00
2.399135715811639535e+00
2.388447889645069822e+00
2.388447889645069822e+00
2.388447889645069822e+00
2.316445692312387283e+00
2.316445692312387283e+00
2.316445692312387283e+00
2.212755027924436124e+00
2.212755027924436124e+00
2.212755027924436124e+00
2.212755027924436124e+00
2.172441297647023095e+00
2.172441297647023095e+00
2.172441297647023095e+00
2.232443128757591655e+00
2.232443128757591655e+00
2.232443128757591655e+00
2.251943723868526259e+00
2.251943723868526259e+00
2.251943723868526259e+00
2.251943723868526259e+00
2.218005188146610962e+00
2.218005188146610962e+00
2.218005188146610962e+00
2.162315988647114828e+00
2.162315988647114828e+00
2.162315988647114828e+00
2.162315988647114828e+00
2.143002899258400262e+00
2.143002899258400262e+00
2.143002899258400262e+00
2.183504135258034218e+00
2.183504135258034218e+00
2.183504135258034218e+00
2.245756035035248566e+00
2.245756035035248566e+00
2.245756035035248566e+00
2.245756035035248566e+00
2.328071047090059853e+00
2.328071047090059853e+00
2.328071047090059853e+00
2.336508804589983779e+00
2.336508804589983779e+00
2.336508804589983779e+00
2.336508804589983779e+00
2.346071596423230599e+00
2.346071596423230599e+00
2.346071596423230599e+00
2.323008392590105942e+00
2.323008392590105942e+00
2.323008392590105942e+00
2.273881893368328022e+00
2.273881893368328022e+00
2.273881893368328022e+00
2.273881893368328022e+00
2.250631183812982439e+00
2.250631183812982439e+00
2.250631183812982439e+00
2.249318643757439062e+00
2.249318643757439062e+00
2.249318643757439062e+00
2.249318643757439062e+00
2.206379833368938392e+00
2.206379833368938392e+00
2.206379833368938392e+00
2.264131595812860720e+00
2.264131595812860720e+00
2.264131595812860720e+00
2.265256630146183614e+00
2.265256630146183614e+00
2.265256630146183614e+00
2.265256630146183614e+00
2.296757591479232197e+00
2.296757591479232197e+00
2.296757591479232197e+00
2.315508163701284872e+00
2.315508163701284872e+00
2.315508163701284872e+00
2.315508163701284872e+00
2.301445234534745587e+00
2.301445234534745587e+00
2.301445234534745587e+00
2.259068941312906365e+00
2.259068941312906365e+00
2.259068941312906365e+00
2.259068941312906365e+00
2.265444135868404540e+00
2.265444135868404540e+00
2.265444135868404540e+00
2.117877132480849411e+00
2.117877132480849411e+00
2.117877132480849411e+00
2.182566606646931362e+00
2.182566606646931362e+00
2.182566606646931362e+00
2.182566606646931362e+00
2.333696218756676100e+00
2.333696218756676100e+00
2.333696218756676100e+00
2.311758049256874337e+00
2.311758049256874337e+00
2.311758049256874337e+00
2.311758049256874337e+00
2.256631366924039650e+00
2.256631366924039650e+00
2.256631366924039650e+00
2.255131321146275347e+00
2.255131321146275347e+00
2.255131321146275347e+00
2.312883083590197675e+00
2.312883083590197675e+00
2.312883083590197675e+00
2.312883083590197675e+00
2.297507614368114126e+00
2.297507614368114126e+00
2.297507614368114126e+00
2.254006286812952009e+00
2.254006286812952009e+00
2.254006286812952009e+00
2.254006286812952009e+00
2.227380474257637299e+00
2.227380474257637299e+00
2.227380474257637299e+00
2.202067201757865966e+00
2.202067201757865966e+00
2.202067201757865966e+00
2.202067201757865966e+00
2.243318460646382295e+00
2.243318460646382295e+00
2.243318460646382295e+00
2.242380932035279439e+00
2.242380932035279439e+00
2.242380932035279439e+00
2.255506332590716312e+00
2.255506332590716312e+00
2.255506332590716312e+00
2.255506332590716312e+00
2.321883358256782603e+00
2.321883358256782603e+00
2.321883358256782603e+00
2.319633289590136371e+00
2.319633289590136371e+00
2.319633289590136371e+00
2.319633289590136371e+00
2.235818231757560781e+00
2.235818231757560781e+00
2.235818231757560781e+00
2.239193334757530351e+00
2.239193334757530351e+00
2.239193334757530351e+00
2.278007019257179522e+00
2.278007019257179522e+00
2.278007019257179522e+00
2.278007019257179522e+00
2.295820062868129341e+00
2.295820062868129341e+00
2.295820062868129341e+00
2.290569902645954947e+00
2.290569902645954947e+00
2.290569902645954947e+00
2.290569902645954947e+00
2.255318826868495830e+00
2.255318826868495830e+00
2.255318826868495830e+00
2.233755668813135031e+00
2.233755668813135031e+00
2.233755668813135031e+00
2.236193243202001746e+00
2.236193243202001746e+00
2.236193243202001746e+00
2.236193243202001746e+00
2.137565233314004942e+00
2.137565233314004942e+00
2.137565233314004942e+00
2.225880428479872997e+00
2.225880428479872997e+00
2.298632648701437464e+00
2.298632648701437464e+00
2.331446150090029423e+00
2.331446150090029423e+00
2.333696218756676100e+00
2.327696035645618888e+00
2.327696035645618888e+00
2.280069582201605716e+00
2.280069582201605716e+00
2.228130497146519229e+00
2.265069124423963132e+00
2.265069124423963132e+00
2.241818414868617992e+00
2.195316995757927270e+00
2.195316995757927270e+00
2.174691366313669327e+00
2.174691366313669327e+00
2.322633381145664977e+00
2.269756767479476078e+00
2.269756767479476078e+00
2.260568987090670667e+00
2.260568987090670667e+00
2.321320841090121156e+00
2.315320657979064389e+00
2.315320657979064389e+00
2.266756675923947917e+00
2.266756675923947917e+00
2.250443678090761956e+00
2.267319193090609808e+00
2.267319193090609808e+00
2.262819055757316900e+00
2.273506881923887057e+00
2.273506881923887057e+00
2.239755851924192243e+00
2.239755851924192243e+00
2.270881801812799416e+00
2.206192327646717910e+00
2.206192327646717910e+00
2.221005279702139568e+00
2.221005279702139568e+00
2.230943082979827352e+00
2.157815851313821920e+00
2.157815851313821920e+00
2.240693380535294654e+00
2.240693380535294654e+00
2.287382305368205859e+00
2.354696859645375007e+00
2.354696859645375007e+00
2.352821802423169739e+00
2.307820429090243319e+00
2.307820429090243319e+00
2.264506607257301685e+00
2.264506607257301685e+00
2.308007934812463802e+00
2.340446424756614796e+00
2.340446424756614796e+00
2.272569353312784202e+00
2.272569353312784202e+00
2.211442487868892304e+00
2.248568620868556689e+00
2.248568620868556689e+00
2.247818597979674760e+00
2.235630726035340299e+00
2.235630726035340299e+00
2.268819238868374111e+00
2.268819238868374111e+00
2.243505966368602778e+00
2.294882534257026929e+00
2.294882534257026929e+00
2.263944090090640238e+00
2.263944090090640238e+00
2.315695669423505798e+00
2.288132328257088233e+00
2.288132328257088233e+00
2.204317270424512643e+00
2.264319101535081202e+00
2.264319101535081202e+00
2.311758049256874337e+00
2.311758049256874337e+00
2.224755394146549659e+00
2.176378917813653668e+00
2.176378917813653668e+00
2.193629444257942485e+00
2.193629444257942485e+00
2.215005096591082356e+00
2.218005188146610962e+00
2.218005188146610962e+00
2.192504409924619146e+00
2.192504409924619146e+00
2.234693197424237443e+00
2.326758507034516477e+00
2.326758507034516477e+00
2.390510452589495571e+00
2.390510452589495571e+00
2.342696493423261028e+00
2.332196172978911797e+00
2.332196172978911797e+00
2.228693014313181120e+00
2.271256813257240381e+00
2.271256813257240381e+00
2.252131229590746742e+00
2.252131229590746742e+00
2.225880428479872997e+00
2.272381847590563719e+00
2.272381847590563719e+00
2.259256447035126847e+00
2.259256447035126847e+00
2.206004821924497428e+00
2.160440931424909561e+00
2.160440931424909561e+00
2.202629718924527857e+00
2.202629718924527857e+00
2.277256996368297592e+00
2.333883724478896582e+00
2.333883724478896582e+00
2.342508987701040546e+00
2.342508987701040546e+00
2.361072054200873183e+00
2.367259743034150432e+00
2.367259743034150432e+00
2.329383587145603673e+00
2.222692831202123909e+00
2.222692831202123909e+00
2.070625690481276759e+00
2.070625690481276759e+00
2.165316080202642990e+00
2.279694570757164307e+00
2.279694570757164307e+00
2.248568620868556689e+00
2.248568620868556689e+00
2.229443037202063049e+00
2.264881618701742649e+00
2.264881618701742649e+00
2.270881801812799416e+00
2.276131962034974254e+00
2.276131962034974254e+00
2.235630726035340299e+00
2.235630726035340299e+00
2.265256630146183614e+00
2.311008026367992407e+00
2.311008026367992407e+00
2.316820703756828248e+00
2.316820703756828248e+00
2.317945738090151586e+00
2.262819055757316900e+00
2.262819055757316900e+00
2.276506973479415219e+00
2.276506973479415219e+00
2.230943082979827352e+00
2.216317636646626177e+00
2.216317636646626177e+00
2.239943357646412725e+00
2.335008758812219920e+00
2.335008758812219920e+00
2.216130130924405695e+00
2.216130130924405695e+00
2.188379284035767647e+00
2.267131687368389326e+00
2.267131687368389326e+00
2.334633747367778511e+00
2.334633747367778511e+00
2.344759056367687222e+00
2.357509445478682686e+00
2.357509445478682686e+00
2.403260841700491479e+00
2.403260841700491479e+00
2.341008941923276243e+00
2.273131870479445649e+00
2.273131870479445649e+00
2.287944822534867306e+00
2.287944822534867306e+00
2.236380748924222672e+00
2.121439741203039464e+00
2.121439741203039464e+00
2.234130680257575996e+00
2.234130680257575996e+00
2.075875850703451597e+00
2.113752006591998356e+00
2.113752006591998356e+00
2.160440931424909561e+00
2.252881252479629115e+00
2.252881252479629115e+00
2.353571825312051669e+00
2.353571825312051669e+00
2.380947660756248752e+00
2.432136722922452865e+00
2.432136722922452865e+00
2.356384411145359792e+00
2.356384411145359792e+00
2.287944822534867306e+00
2.254943815424054865e+00
2.254943815424054865e+00
2.241630909146397510e+00
2.241630909146397510e+00
2.254756309701834383e+00
2.196442030091250608e+00
2.196442030091250608e+00
2.212380016479995160e+00
2.212380016479995160e+00
2.230380565813165905e+00
2.292444959868159771e+00
2.292444959868159771e+00
2.281194616534928166e+00
2.206567339091158875e+00
2.206567339091158875e+00
2.309132969145787140e+00
2.309132969145787140e+00
2.295820062868129341e+00
2.098751548814355772e+00
2.098751548814355772e+00
2.111126926480910715e+00
2.111126926480910715e+00
2.234693197424237443e+00
2.298257637256996500e+00
2.298257637256996500e+00
2.379260109256263966e+00
2.379260109256263966e+00
2.389947935422834124e+00
2.275944456312753772e+00
2.275944456312753772e+00
2.259631458479567812e+00
2.259631458479567812e+00
2.231130588702047834e+00
2.240693380535294654e+00
2.240693380535294654e+00
2.298070131534776017e+00
2.260943998535111632e+00
2.260943998535111632e+00
2.295070039979247412e+00
2.295070039979247412e+00
2.299007660145878429e+00
2.314195623645741495e+00
2.314195623645741495e+00
2.287194799645985377e+00
2.287194799645985377e+00
2.245381023590808045e+00
2.293194982757042144e+00
2.293194982757042144e+00
2.273694387646107540e+00
2.273694387646107540e+00
2.237318277535325084e+00
2.227380474257637299e+00
2.227380474257637299e+00
2.308195440534684284e+00
2.308195440534684284e+00
2.189879329813531950e+00
2.122564775536362802e+00
2.122564775536362802e+00
2.223630359813226764e+00
2.339883907589953349e+00
2.339883907589953349e+00
2.377197546311838217e+00
2.377197546311838217e+00
2.426136539811395654e+00
2.371947386089663379e+00
2.371947386089663379e+00
2.326008484145634547e+00
2.326008484145634547e+00
2.217442670979949515e+00
2.235068208868678852e+00
2.235068208868678852e+00
2.176941434980315559e+00
2.176941434980315559e+00
2.080938505203405953e+00
2.133065095980712478e+00
2.133065095980712478e+00
2.180691549424726094e+00
2.257943906979583026e+00
2.257943906979583026e+00
2.229068025757622085e+00
2.229068025757622085e+00
2.215380108035523765e+00
2.285694753868221074e+00
2.285694753868221074e+00
2.379260109256263966e+00
2.379260109256263966e+00
2.381322672200689716e+00
2.362759605700857524e+00
2.362759605700857524e+00
2.347009125034333454e+00
2.357696951200903612e+00
2.357696951200903612e+00
2.334258735923337547e+00
2.334258735923337547e+00
2.165316080202642990e+00
2.234505691702016961e+00
2.234505691702016961e+00
2.237880794701986531e+00
2.237880794701986531e+00
2.129314981536301499e+00
2.114314523758659803e+00
2.114314523758659803e+00
2.189504318369090985e+00
2.189504318369090985e+00
2.232818140202032620e+00
2.284569719534897736e+00
2.284569719534897736e+00
2.347384136478774419e+00
2.347384136478774419e+00
2.306132877590258534e+00
2.289069856868190644e+00
2.289069856868190644e+00
2.291882442701498768e+00
2.266381664479506952e+00
2.266381664479506952e+00
2.318133243812372069e+00
2.318133243812372069e+00
2.276131962034974254e+00
2.255506332590716312e+00
2.255506332590716312e+00
2.246881069368571904e+00
2.246881069368571904e+00
2.207317361980041248e+00
2.166628620258186366e+00
2.166628620258186366e+00
2.244818506424146598e+00
2.244818506424146598e+00
2.318883266701254442e+00
2.297507614368114126e+00
2.297507614368114126e+00
2.304445326090273749e+00
2.304445326090273749e+00
2.338383861812189490e+00
2.301257728812525105e+00
2.301257728812525105e+00
2.245943540757469048e+00
2.260756492812891150e+00
2.260756492812891150e+00
2.250068666646320992e+00
2.250068666646320992e+00
2.319070772423474924e+00
2.280632099368266719e+00
2.280632099368266719e+00
2.269944273201696561e+00
2.269944273201696561e+00
2.261131504257332114e+00
2.256443861201819168e+00
2.256443861201819168e+00
2.248193609424115724e+00
2.241068391979735619e+00
2.241068391979735619e+00
2.275569444868312807e+00
2.275569444868312807e+00
2.407385967589342979e+00
2.179191503646961792e+00
2.179191503646961792e+00
2.103814203314310571e+00
2.103814203314310571e+00
2.280632099368266719e+00
2.368759788811914291e+00
2.368759788811914291e+00
2.349634205145421095e+00
2.349634205145421095e+00
2.284569719534897736e+00
2.206754844813379357e+00
2.206754844813379357e+00
2.247443586535233351e+00
2.247443586535233351e+00
2.261881527146214044e+00
2.295632557145908859e+00
2.295632557145908859e+00
2.333133701590014208e+00
2.228318002868740155e+00
2.228318002868740155e+00
2.156690816980498582e+00
2.156690816980498582e+00
2.170566240424817828e+00
2.233755668813135031e+00
2.233755668813135031e+00
2.292819971312600735e+00
2.292819971312600735e+00
2.263381572923978347e+00
2.315883175145725836e+00
2.315883175145725836e+00
2.405323404644917229e+00
2.405323404644917229e+00
2.307070406201360946e+00
2.220817773979919085e+00
2.220817773979919085e+00
2.183129123813593253e+00
2.183129123813593253e+00
2.160628437147130043e+00
2.212567522202215642e+00
2.212567522202215642e+00
2.329008575701162709e+00
2.351696768089846401e+00
2.351696768089846401e+00
2.406073427533799602e+00
2.406073427533799602e+00
2.388635395367290304e+00
2.177128940702536042e+00
2.177128940702536042e+00
2.123877315591906623e+00
2.123877315591906623e+00
2.155190771202734279e+00
2.190254341257972914e+00
2.190254341257972914e+00
2.246506057924130939e+00
2.246506057924130939e+00
2.263569078646198829e+00
2.231693105868709726e+00
2.231693105868709726e+00
2.281569627979369130e+00
2.319633289590136371e+00
2.319633289590136371e+00
2.380385143589587305e+00
2.380385143589587305e+00
2.385822809533982625e+00
2.363322122867518971e+00
2.363322122867518971e+00
2.290569902645954947e+00
2.290569902645954947e+00
2.244631000701926116e+00
2.132315073091830104e+00
2.132315073091830104e+00
2.120127201147496088e+00
2.234130680257575996e+00
2.234130680257575996e+00
2.232255623035371173e+00
2.232255623035371173e+00
2.270319284646137969e+00
2.196629535813471090e+00
2.196629535813471090e+00
2.258693929868464956e+00
2.258693929868464956e+00
2.317570726645710621e+00
2.276131962034974254e+00
2.276131962034974254e+00
2.323383404034546906e+00
2.323383404034546906e+00
2.381135166478469234e+00
2.288694845423749680e+00
2.288694845423749680e+00
2.175816400646992221e+00
2.175816400646992221e+00
2.191191869869075770e+00
2.231505600146489243e+00
2.231505600146489243e+00
2.265819147312845505e+00
2.265819147312845505e+00
2.369697317423017147e+00
2.321883358256782603e+00
2.321883358256782603e+00
2.239380840479750834e+00
2.304070314645832784e+00
2.304070314645832784e+00
2.307820429090243319e+00
2.307820429090243319e+00
2.148628070925016065e+00
2.251381206701864812e+00
2.251381206701864812e+00
2.247068575090792386e+00
2.247068575090792386e+00
2.269194250312814631e+00
2.331071138645588459e+00
2.331071138645588459e+00
2.352634296700948813e+00
2.352634296700948813e+00
2.321133335367900674e+00
2.273694387646107540e+00
2.273694387646107540e+00
2.263944090090640238e+00
2.263944090090640238e+00
2.147878048036134135e+00
2.135877681814020157e+00
2.135877681814020157e+00
2.182941618091372327e+00
2.276131962034974254e+00
2.276131962034974254e+00
2.239943357646412725e+00
2.239943357646412725e+00
2.278569536423841413e+00
2.289069856868190644e+00
2.289069856868190644e+00
2.347571642200994901e+00
2.347571642200994901e+00
2.394448072756126589e+00
2.405698416089358194e+00
2.405698416089358194e+00
2.285507248146000592e+00
2.285507248146000592e+00
2.146378002258369833e+00
2.093126377147739969e+00
2.093126377147739969e+00
2.125189855647450443e+00
2.125189855647450443e+00
2.449199743644520311e+00
2.352259285256507848e+00
2.352259285256507848e+00
2.277819513534959039e+00
2.219880245368816230e+00
2.219880245368816230e+00
2.209192419202246516e+00
2.209192419202246516e+00
2.160440931424909561e+00
2.269194250312814631e+00
2.269194250312814631e+00
2.370259834589678594e+00
2.370259834589678594e+00
2.333321207312235135e+00
2.334633747367778511e+00
2.334633747367778511e+00
2.299195165868098911e+00
2.299195165868098911e+00
2.143565416425061709e+00
2.260568987090670667e+00
2.260568987090670667e+00
2.319633289590136371e+00
2.319633289590136371e+00
2.292257454145939732e+00
2.115064546647541732e+00
2.115064546647541732e+00
2.148628070925016065e+00
2.278194524979400004e+00
2.278194524979400004e+00
2.268069215979491737e+00
2.268069215979491737e+00
2.300882717368083696e+00
2.343259010589922919e+00
2.343259010589922919e+00
2.391072969756157018e+00
2.391072969756157018e+00
2.270694296090578934e+00
2.200942167424543072e+00
2.200942167424543072e+00
2.177128940702536042e+00
2.177128940702536042e+00
2.301070223090304623e+00
2.326195989867855030e+00
2.326195989867855030e+00
2.285694753868221074e+00
2.285694753868221074e+00
2.345321573534348669e+00
2.318883266701254442e+00
2.318883266701254442e+00
2.215942625202185212e+00
2.324695944090090727e+00
2.324695944090090727e+00
2.380385143589587305e+00
2.380385143589587305e+00
2.295820062868129341e+00
2.248943632312997654e+00
2.248943632312997654e+00
2.230005554368724940e+00
2.056375255592516993e+00
2.056375255592516993e+00
2.122752281258583285e+00
2.122752281258583285e+00
2.342321481978820064e+00
2.297695120090334608e+00
2.297695120090334608e+00
2.285132236701559627e+00
2.285132236701559627e+00
2.290569902645954947e+00
2.242005920590838475e+00
2.242005920590838475e+00
2.214817590868861874e+00
2.214817590868861874e+00
2.212567522202215642e+00
2.244443494979705633e+00
2.244443494979705633e+00
2.146753013702810797e+00
2.146753013702810797e+00
2.109064363536484965e+00
2.300132694479201767e+00
2.300132694479201767e+00
2.370822351756340485e+00
2.440761986144596829e+00
2.440761986144596829e+00
2.414511185033723084e+00
2.414511185033723084e+00
2.438699423200171079e+00
2.378322580645161111e+00
2.378322580645161111e+00
2.291882442701498768e+00
2.291882442701498768e+00
2.254756309701834383e+00
2.249131138035218136e+00
2.249131138035218136e+00
2.245756035035248566e+00
2.245756035035248566e+00
2.128752464369640052e+00
2.170941251869258792e+00
2.170941251869258792e+00
2.300882717368083696e+00
2.300882717368083696e+00
2.076813379314554453e+00
2.261319009979552597e+00
2.261319009979552597e+00
2.246881069368571904e+00
2.278382030701620931e+00
2.278382030701620931e+00
2.290007385479293500e+00
2.290007385479293500e+00
2.197004547257912055e+00
2.371384868923001932e+00
2.371384868923001932e+00
2.295070039979247412e+00
2.295070039979247412e+00
2.329383587145603673e+00
2.235255714590899334e+00
2.235255714590899334e+00
2.173566331980346433e+00
2.173566331980346433e+00
2.171878780480361648e+00
2.257006378368480615e+00
2.257006378368480615e+00
2.364822168645283273e+00
2.370072328867458111e+00
2.370072328867458111e+00
2.280444593646046680e+00
2.280444593646046680e+00
2.364822168645283273e+00
2.356946928312021239e+00
2.356946928312021239e+00
2.164378551591540134e+00
2.164378551591540134e+00
2.224005371257667729e+00
2.182754112369151844e+00
2.182754112369151844e+00
2.154440748313852350e+00
2.154440748313852350e+00
2.219880245368816230e+00
2.376447523422955843e+00
2.376447523422955843e+00
2.361822077089755112e+00
2.361822077089755112e+00
2.280632099368266719e+00
2.194566972869045340e+00
2.194566972869045340e+00
2.298445142979216982e+00
2.327321024201178368e+00
2.327321024201178368e+00
2.324320932645649762e+00
2.324320932645649762e+00
2.302570268868068482e+00
2.160065919980468152e+00
2.160065919980468152e+00
2.132127567369609622e+00
2.132127567369609622e+00
2.291507431257057803e+00
2.325445966978973100e+00
2.325445966978973100e+00
2.341946470534379099e+00
2.341946470534379099e+00
2.245568529313028083e+00
2.306507889034699499e+00
2.306507889034699499e+00
2.354509353923154524e+00
2.354509353923154524e+00
2.146002990813928868e+00
2.127814935758537640e+00
2.127814935758537640e+00
2.130627521591845319e+00
2.180316537980285130e+00
2.180316537980285130e+00
2.179191503646961792e+00
2.179191503646961792e+00
2.272569353312784202e+00
2.300320200201422249e+00
2.300320200201422249e+00
2.356946928312021239e+00
2.356946928312021239e+00
2.476950590533158358e+00
2.413761162144840711e+00
2.413761162144840711e+00
2.336508804589983779e+00
2.336508804589983779e+00
2.319258278145695407e+00
2.307445417645802355e+00
2.307445417645802355e+00
2.241255897701956545e+00
2.159503402813806705e+00
2.159503402813806705e+00
2.285694753868221074e+00
2.303695303201391820e+00
2.303695303201391820e+00
2.387135349589526001e+00
2.353009308145390222e+00
2.353009308145390222e+00
2.183129123813593253e+00
2.183129123813593253e+00
1.911433332316049727e+00
1.856306649983214818e+00
1.856306649983214818e+00
2.224942899868770141e+00
2.460075075533310951e+00
2.460075075533310951e+00
2.440199468977935382e+00
2.440199468977935382e+00
2.443199560533463544e+00
2.288694845423749680e+00
2.288694845423749680e+00
2.304070314645832784e+00
2.304070314645832784e+00
2.413386150700399746e+00
2.289069856868190644e+00
2.289069856868190644e+00
2.289632374034852091e+00
2.139252784813989727e+00
2.139252784813989727e+00
2.104376720480972018e+00
2.104376720480972018e+00
2.174128849147007880e+00
2.218380199591051927e+00
2.218380199591051927e+00
2.289632374034852091e+00
2.289632374034852091e+00
2.253818781090731527e+00
2.197004547257912055e+00
2.197004547257912055e+00
2.308007934812463802e+00
2.308007934812463802e+00
2.382822717978454019e+00
2.407010956144902014e+00
2.407010956144902014e+00
2.228880520035401602e+00
2.281382122257148648e+00
2.281382122257148648e+00
2.326758507034516477e+00
2.326758507034516477e+00
2.316633198034607766e+00
2.329758598590044638e+00
2.329758598590044638e+00
2.184816675313578038e+00
2.184816675313578038e+00
2.226442945646534444e+00
2.353759331034272151e+00
2.353759331034272151e+00
2.287944822534867306e+00
2.104189214758751536e+00
2.104189214758751536e+00
2.072688253425702509e+00
2.174128849147007880e+00
2.174128849147007880e+00
2.265256630146183614e+00
2.265256630146183614e+00
2.198504593035676358e+00
2.249506149479659545e+00
2.249506149479659545e+00
2.273319376201666131e+00
2.368197271645252844e+00
2.368197271645252844e+00
2.422386425366985119e+00
2.422386425366985119e+00
2.370447340311899076e+00
2.342883999145481511e+00
2.342883999145481511e+00
2.296382580034791232e+00
2.296382580034791232e+00
2.307820429090243319e+00
2.342508987701040546e+00
2.342508987701040546e+00
2.249318643757439062e+00
2.302570268868068482e+00
2.302570268868068482e+00
2.189504318369090985e+00
2.189504318369090985e+00
2.236943266090884119e+00
1.841118686483352196e+00
1.841118686483352196e+00
2.042312326425977265e+00
2.042312326425977265e+00
2.372134891811884305e+00
2.496076174199651998e+00
2.496076174199651998e+00
2.462137638477736701e+00
2.462137638477736701e+00
2.360322031311990809e+00
2.174128849147007880e+00
2.174128849147007880e+00
2.193816949980162967e+00
2.315133152256843907e+00
2.315133152256843907e+00
2.309882992034669069e+00
2.309882992034669069e+00
2.358446974089785542e+00
2.292819971312600735e+00
2.292819971312600735e+00
2.182379100924710880e+00
2.182379100924710880e+00
2.320383312479018745e+00
2.361259559923093665e+00
2.361259559923093665e+00
2.210504959257789892e+00
2.210504959257789892e+00
2.187066743980223826e+00
2.065375530259102366e+00
2.065375530259102366e+00
2.131002533036286284e+00
2.148253059480575100e+00
2.148253059480575100e+00
2.318320749534592551e+00
2.318320749534592551e+00
2.279507065034943825e+00
2.259631458479567812e+00
2.259631458479567812e+00
2.475638050477614982e+00
2.475638050477614982e+00
2.569953428754539804e+00
2.326008484145634547e+00
2.326008484145634547e+00
2.172066286202582130e+00
2.172066286202582130e+00
2.179941526535844165e+00
2.044937406537064906e+00
2.044937406537064906e+00
2.121252235480818982e+00
2.222130314035462462e+00
2.222130314035462462e+00
2.322258369701224012e+00
2.322258369701224012e+00
2.327696035645618888e+00
2.296195074312570750e+00
2.296195074312570750e+00
2.293757499923703591e+00
2.396323129978331856e+00
2.396323129978331856e+00
2.509764091921750762e+00
2.509764091921750762e+00
2.488950956755272337e+00
2.238443311868648422e+00
2.238443311868648422e+00
2.191941892757957699e+00
2.191941892757957699e+00
2.158003357036042402e+00
2.320945829645680192e+00
2.320945829645680192e+00
2.196442030091250608e+00
2.196442030091250608e+00
2.192316904202398664e+00
2.057312784203619849e+00
2.057312784203619849e+00
2.381322672200689716e+00
2.381322672200689716e+00
2.492326059755241463e+00
2.407573473311563461e+00
2.407573473311563461e+00
2.019811639759514499e+00
2.088438734092227023e+00
2.088438734092227023e+00
2.183316629535813735e+00
2.183316629535813735e+00
2.131940061647389140e+00
2.272756859035004684e+00
2.272756859035004684e+00
2.431761711478011456e+00
2.431761711478011456e+00
2.411511093478194478e+00
2.385260292367321178e+00
2.385260292367321178e+00
2.315883175145725836e+00
2.315883175145725836e+00
2.150690633869442259e+00
2.237880794701986531e+00
2.237880794701986531e+00
2.196817041535691573e+00
2.196817041535691573e+00
2.455199926755577522e+00
2.206379833368938392e+00
2.206379833368938392e+00
2.257381389812921579e+00
2.217817682424390480e+00
2.217817682424390480e+00
2.056750267036957958e+00
2.056750267036957958e+00
2.276881984923856628e+00
2.406448438978240567e+00
2.406448438978240567e+00
2.338946378978850937e+00
2.338946378978850937e+00
2.268631733146153184e+00
2.147878048036134135e+00
2.147878048036134135e+00
2.142627887813959298e+00
2.142627887813959298e+00
2.317758232367931104e+00
2.366134708700827094e+00
2.366134708700827094e+00
2.404573381756035300e+00
2.473012970366527341e+00
2.473012970366527341e+00
2.275006927701650916e+00
2.275006927701650916e+00
2.064813013092440475e+00
1.864556901760918040e+00
1.864556901760918040e+00
2.290194891201513983e+00
2.290194891201513983e+00
2.308570451979125249e+00
2.184066652424695665e+00
2.184066652424695665e+00
2.403635853144932444e+00
2.403635853144932444e+00
2.529452192754905848e+00
2.430074159978026671e+00
2.430074159978026671e+00
2.344759056367687222e+00
2.344759056367687222e+00
2.293007477034821662e+00
2.198692098757896396e+00
2.198692098757896396e+00
1.998435987426374183e+00
1.998435987426374183e+00
1.891745231482894418e+00
2.264694112979522167e+00
2.264694112979522167e+00
2.465887752922147680e+00
2.427636585589159957e+00
2.427636585589159957e+00
2.444512100589007364e+00
2.444512100589007364e+00
2.412073610644855925e+00
2.367822260200811879e+00
2.367822260200811879e+00
2.264506607257301685e+00
2.264506607257301685e+00
2.164191045869319652e+00
2.090126285592211808e+00
2.090126285592211808e+00
2.154440748313852350e+00
2.154440748313852350e+00
2.175628894924771739e+00
2.185566698202459968e+00
2.185566698202459968e+00
2.021874202703940249e+00
2.290194891201513983e+00
2.290194891201513983e+00
2.561140659810174913e+00
2.561140659810174913e+00
2.452387340922269399e+00
2.264694112979522167e+00
2.264694112979522167e+00
2.116002075258644588e+00
2.116002075258644588e+00
2.316258186590166801e+00
2.365384685811944721e+00
2.365384685811944721e+00
2.249693655201880027e+00
2.049625049592577852e+00
2.049625049592577852e+00
2.168316171758171151e+00
2.168316171758171151e+00
2.254006286812952009e+00
2.414511185033723084e+00
2.414511185033723084e+00
2.443012054811243061e+00
2.443012054811243061e+00
2.284944730979339145e+00
2.348696676534318240e+00
2.348696676534318240e+00
2.255506332590716312e+00
2.252131229590746742e+00
2.252131229590746742e+00
2.347759147923215384e+00
2.347759147923215384e+00
2.451824823755607952e+00
2.304445326090273749e+00
2.304445326090273749e+00
1.934121524704733419e+00
1.934121524704733419e+00
1.733490401928769797e+00
1.970122623371074688e+00
1.970122623371074688e+00
2.543140110477004168e+00
2.543140110477004168e+00
2.413011139255958781e+00
2.499263771477401086e+00
2.499263771477401086e+00
2.409636036255989211e+00
2.409636036255989211e+00
2.219880245368816230e+00
2.125564867091891408e+00
2.125564867091891408e+00
2.423136448255867048e+00
2.371009857478560967e+00
2.371009857478560967e+00
2.200192144535660699e+00
2.200192144535660699e+00
2.053562669759208870e+00
2.119939695425275605e+00
2.119939695425275605e+00
2.018311593981750196e+00
2.018311593981750196e+00
2.567328348643452163e+00
2.470762901699881109e+00
2.470762901699881109e+00
2.378697592089602519e+00
2.378697592089602519e+00
2.302195257423627517e+00
2.158003357036042402e+00
2.158003357036042402e+00
2.255506332590716312e+00
2.255506332590716312e+00
2.271631824701681346e+00
2.357134434034241721e+00
2.357134434034241721e+00
2.305382854701376161e+00
2.350384228034303025e+00
2.350384228034303025e+00
2.346446607867672007e+00
2.346446607867672007e+00
2.203567247535630269e+00
2.270319284646137969e+00
2.270319284646137969e+00
2.245943540757469048e+00
2.245943540757469048e+00
2.304445326090273749e+00
2.339696401867732423e+00
2.339696401867732423e+00
2.174316354869228363e+00
2.174316354869228363e+00
2.059750358592486119e+00
1.826680745872371503e+00
1.826680745872371503e+00
2.137002716147343495e+00
2.137002716147343495e+00
2.607642078920865636e+00
2.534139835810419239e+00
2.534139835810419239e+00
2.456512466811120898e+00
2.284007202368236289e+00
2.284007202368236289e+00
2.193629444257942485e+00
2.193629444257942485e+00
2.213130039368877089e+00
2.062750450148014725e+00
2.062750450148014725e+00
2.182379100924710880e+00
2.182379100924710880e+00
2.231318094424268317e+00
2.292444959868159771e+00
2.292444959868159771e+00
2.367822260200811879e+00
2.367822260200811879e+00
2.189504318369090985e+00
2.189316812646870059e+00
2.189316812646870059e+00
2.376072511978514878e+00
2.376072511978514878e+00
2.504138920255134515e+00
2.208629902035584625e+00
2.208629902035584625e+00
2.154065736869411385e+00
2.372697408978545752e+00
2.372697408978545752e+00
2.455387432477798004e+00
2.455387432477798004e+00
2.221005279702139568e+00
2.142815393536179780e+00
2.142815393536179780e+00
2.180691549424726094e+00
2.180691549424726094e+00
2.090876308481094181e+00
2.285319742423780109e+00
2.285319742423780109e+00
2.333321207312235135e+00
2.333321207312235135e+00
2.175628894924771739e+00
2.268631733146153184e+00
2.268631733146153184e+00
2.239755851924192243e+00
2.239755851924192243e+00
2.364259651478621826e+00
2.216692648091067142e+00
2.216692648091067142e+00
2.164941068758201581e+00
2.400448255867183356e+00
2.400448255867183356e+00
2.272756859035004684e+00
2.272756859035004684e+00
2.222505325479903426e+00
2.215005096591082356e+00
2.215005096591082356e+00
2.066875576036866669e+00
2.066875576036866669e+00
2.183504135258034218e+00
2.431574205755790974e+00
2.431574205755790974e+00
2.454074892422254184e+00
2.427074068422498510e+00
2.248193609424115724e+00
2.248193609424115724e+00
2.214255073702200427e+00
2.214255073702200427e+00
2.428761619922483295e+00
2.401385784478286212e+00
2.401385784478286212e+00
2.333696218756676100e+00
2.333696218756676100e+00
2.141127842036194995e+00
2.392010498367259874e+00
2.392010498367259874e+00
2.325258461256752618e+00
2.325258461256752618e+00
2.170753746147038310e+00
2.005936216315195253e+00
2.005936216315195253e+00
2.003311136204107612e+00
2.003311136204107612e+00
2.357134434034241721e+00
2.389385418256172233e+00
2.389385418256172233e+00
2.143377910702841227e+00
2.244818506424146598e+00
2.244818506424146598e+00
2.308195440534684284e+00
2.308195440534684284e+00
2.347759147923215384e+00
2.468887844477675397e+00
2.468887844477675397e+00
2.449762260811182202e+00
2.449762260811182202e+00
2.374572466200750576e+00
2.298820154423657947e+00
2.298820154423657947e+00
2.042499832148198191e+00
2.042499832148198191e+00
2.159690908536027187e+00
2.198504593035676358e+00
2.198504593035676358e+00
2.181254066591387542e+00
2.181254066591387542e+00
2.231318094424268317e+00
2.102501663258766751e+00
2.102501663258766751e+00
2.149565599536118921e+00
2.351134250923184954e+00
2.351134250923184954e+00
2.308757957701345731e+00
2.308757957701345731e+00
2.233568163090914993e+00
2.404010864589373409e+00
2.404010864589373409e+00
2.386010315256203107e+00
2.399698232978301426e+00
2.399698232978301426e+00
2.316258186590166801e+00
2.121439741203039464e+00
2.121439741203039464e+00
1.985123081148716606e+00
2.043812372203741567e+00
2.043812372203741567e+00
2.387322855311746483e+00
2.387322855311746483e+00
2.571640980254524589e+00
2.359384502700888397e+00
2.359384502700888397e+00
2.350384228034303025e+00
2.350384228034303025e+00
2.429324137089144742e+00
2.321320841090121156e+00
2.321320841090121156e+00
2.240505874813074172e+00
2.240505874813074172e+00
2.142815393536179780e+00
2.149565599536118921e+00
2.149565599536118921e+00
2.362572099978637485e+00
2.417511276589251690e+00
2.417511276589251690e+00
2.110376903592028786e+00
2.110376903592028786e+00
1.932621478926969116e+00
2.228318002868740155e+00
2.228318002868740155e+00
2.467575304422132465e+00
2.467575304422132465e+00
2.405510910367137711e+00
2.242380932035279439e+00
2.242380932035279439e+00
2.202629718924527857e+00
2.202629718924527857e+00
2.245943540757469048e+00
2.264319101535081202e+00
2.264319101535081202e+00
2.348321665089877275e+00
2.129689992980742907e+00
2.129689992980742907e+00
2.145065462202826012e+00
2.145065462202826012e+00
2.248943632312997654e+00
2.247068575090792386e+00
2.247068575090792386e+00
2.251193700979644330e+00
2.251193700979644330e+00
2.392010498367259874e+00
2.473762993255409270e+00
2.473762993255409270e+00
2.596204229865413549e+00
2.596204229865413549e+00
2.289257362590411127e+00
2.100251594592120075e+00
2.100251594592120075e+00
1.951184545426801309e+00
1.951184545426801309e+00
1.977247840815454571e+00
2.467762810144352947e+00
2.467762810144352947e+00
2.482950773644215126e+00
2.099126560258797181e+00
2.099126560258797181e+00
2.021124179815057875e+00
2.021124179815057875e+00
2.174878872035889810e+00
2.336508804589983779e+00
2.336508804589983779e+00
2.262819055757316900e+00
2.262819055757316900e+00
2.319445783867915889e+00
2.350196722312082542e+00
2.350196722312082542e+00
2.356196905423139309e+00
2.267506698812830290e+00
2.267506698812830290e+00
2.215942625202185212e+00
2.215942625202185212e+00
2.152003173924985191e+00
2.410761070589312105e+00
2.410761070589312105e+00
2.422948942533646566e+00
2.422948942533646566e+00
2.360884548478652700e+00
2.309882992034669069e+00
2.309882992034669069e+00
2.326008484145634547e+00
2.326008484145634547e+00
2.267694204535050773e+00
2.202817224646748340e+00
2.202817224646748340e+00
2.073813287759025847e+00
2.216317636646626177e+00
2.216317636646626177e+00
2.250256172368541474e+00
2.250256172368541474e+00
2.182004089480269915e+00
2.485013336588640875e+00
2.485013336588640875e+00
2.508639057588427423e+00
2.508639057588427423e+00
2.326758507034516477e+00
2.438886928922391562e+00
2.438886928922391562e+00
2.405885921811578676e+00
2.405885921811578676e+00
2.136065187536240639e+00
2.089751274147770843e+00
2.089751274147770843e+00
2.181816583758049433e+00
2.181816583758049433e+00
2.113376995147556947e+00
2.207317361980041248e+00
2.207317361980041248e+00
2.130627521591845319e+00
2.193441938535722002e+00
2.193441938535722002e+00
2.333696218756676100e+00
2.333696218756676100e+00
2.306132877590258534e+00
2.313820612201300086e+00
2.313820612201300086e+00
2.390885464033936536e+00
2.390885464033936536e+00
2.274256904812768987e+00
2.314945646534623425e+00
2.314945646534623425e+00
2.142252876369517889e+00
2.142252876369517889e+00
2.203004730368968822e+00
2.218567705313272853e+00
2.218567705313272853e+00
2.274069399090548504e+00
2.274069399090548504e+00
2.384135258033997840e+00
2.311008026367992407e+00
2.311008026367992407e+00
2.219880245368816230e+00
2.004436170537430950e+00
2.004436170537430950e+00
2.087876216925565576e+00
2.087876216925565576e+00
2.439636951811273491e+00
2.567703360087893572e+00
2.567703360087893572e+00
2.387697866756187448e+00
2.387697866756187448e+00
2.158378368480483367e+00
2.172253791924802613e+00
2.172253791924802613e+00
2.167566148869289222e+00
2.167566148869289222e+00
2.134565141758476781e+00
2.388260383922848895e+00
2.388260383922848895e+00
2.445824640644550740e+00
2.445824640644550740e+00
2.251943723868526259e+00
2.135315164647358710e+00
2.135315164647358710e+00
2.348321665089877275e+00
2.373259926145207199e+00
2.373259926145207199e+00
2.239193334757530351e+00
2.239193334757530351e+00
2.151253151036103706e+00
2.213880062257759462e+00
2.213880062257759462e+00
2.268069215979491737e+00
2.268069215979491737e+00
2.283069673757133433e+00
2.405698416089358194e+00
2.405698416089358194e+00
2.234130680257575996e+00
2.234130680257575996e+00
2.341946470534379099e+00
2.467200292977691056e+00
2.467200292977691056e+00
2.292819971312600735e+00
1.888745139927366035e+00
1.888745139927366035e+00
1.955122165593432548e+00
1.955122165593432548e+00
2.225505417035432032e+00
2.273319376201666131e+00
2.273319376201666131e+00
2.356759422589800756e+00
2.356759422589800756e+00
2.547827753532517558e+00
2.640455580309458039e+00
2.640455580309458039e+00
2.394448072756126589e+00
2.394448072756126589e+00
2.343446516312143402e+00
2.294507522812585520e+00
2.294507522812585520e+00
2.118439649647511303e+00
2.118439649647511303e+00
2.127814935758537640e+00
2.202442213202307375e+00
2.202442213202307375e+00
2.177503952146977007e+00
2.204129764702292160e+00
2.204129764702292160e+00
2.103064180425428198e+00
2.103064180425428198e+00
2.160815942869350526e+00
2.327321024201178368e+00
2.327321024201178368e+00
2.287757316812646824e+00
2.343259010589922919e+00
2.343259010589922919e+00
2.252131229590746742e+00
2.252131229590746742e+00
2.271444318979460864e+00
2.554577959532456255e+00
2.554577959532456255e+00
2.705707571642200993e+00
2.705707571642200993e+00
2.281382122257148648e+00
2.059187841425824672e+00
2.059187841425824672e+00
1.905808160649433924e+00
1.905808160649433924e+00
2.095188940092165719e+00
2.171878780480361648e+00
2.171878780480361648e+00
2.034062074648274265e+00
2.299382671590319838e+00
2.299382671590319838e+00
2.354321848200934042e+00
2.354321848200934042e+00
2.315133152256843907e+00
2.392573015533921321e+00
2.392573015533921321e+00
2.376072511978514878e+00
2.376072511978514878e+00
2.299007660145878429e+00
2.256631366924039650e+00
2.256631366924039650e+00
2.222880336924344391e+00
2.222880336924344391e+00
2.292257454145939732e+00
2.272756859035004684e+00
2.272756859035004684e+00
2.246693563646351421e+00
2.246693563646351421e+00
2.107564317758720662e+00
2.333883724478896582e+00
2.333883724478896582e+00
2.258693929868464956e+00
2.276881984923856628e+00
2.276881984923856628e+00
2.410386059144871140e+00
2.410386059144871140e+00
2.383947752311777357e+00
2.220255256813257638e+00
2.220255256813257638e+00
2.362384594256416559e+00
2.362384594256416559e+00
2.296195074312570750e+00
2.169628711813714972e+00
2.169628711813714972e+00
2.244631000701926116e+00
2.244631000701926116e+00
2.231505600146489243e+00
2.276131962034974254e+00
2.276131962034974254e+00
2.287382305368205859e+00
2.287382305368205859e+00
2.280819605090487201e+00
2.197567064424573946e+00
2.197567064424573946e+00
2.263569078646198829e+00
2.015874019592883037e+00
2.015874019592883037e+00
2.091251319925535146e+00
2.091251319925535146e+00
2.314570635090182460e+00
2.438136906033509188e+00
2.438136906033509188e+00
2.430449171422468080e+00
2.430449171422468080e+00
2.484825830866420393e+00
2.327508529923398850e+00
2.327508529923398850e+00
2.233193151646474028e+00
2.233193151646474028e+00
2.213692556535538980e+00
2.223817865535447247e+00
2.223817865535447247e+00
2.146753013702810797e+00
2.146753013702810797e+00
2.181441572313608468e+00
2.278194524979400004e+00
2.278194524979400004e+00
2.253631275368511044e+00
2.209379924924466998e+00
2.209379924924466998e+00
2.239943357646412725e+00
2.239943357646412725e+00
2.280819605090487201e+00
2.499263771477401086e+00
2.499263771477401086e+00
2.353196813867610704e+00
2.353196813867610704e+00
2.283069673757133433e+00
2.312508072145756710e+00
2.312508072145756710e+00
2.173378826258125951e+00
2.173378826258125951e+00
2.192691915646840073e+00
2.204692281868953607e+00
2.204692281868953607e+00
2.067813104647969080e+00
2.067813104647969080e+00
2.207879879146702695e+00
2.117314615314187964e+00
2.117314615314187964e+00
2.441887020477920167e+00
2.517826837977233279e+00
2.517826837977233279e+00
2.401010773033844803e+00
2.401010773033844803e+00
2.346634113589892490e+00
2.294882534257026929e+00
2.294882534257026929e+00
2.362759605700857524e+00
2.362759605700857524e+00
2.228505508590960638e+00
2.209754936368907963e+00
2.209754936368907963e+00
2.189691824091311467e+00
2.189691824091311467e+00
2.328071047090059853e+00
2.348509170812097757e+00
2.348509170812097757e+00
2.234505691702016961e+00
2.234505691702016961e+00
2.089001251258888470e+00
1.990373241370891666e+00
1.990373241370891666e+00
2.026749351481673678e+00
2.026749351481673678e+00
2.243693472090823260e+00
2.298820154423657947e+00
2.298820154423657947e+00
2.520451918088320475e+00
2.381135166478469234e+00
2.381135166478469234e+00
2.422948942533646566e+00
2.422948942533646566e+00
2.198504593035676358e+00
2.280257087923826198e+00
2.280257087923826198e+00
2.200942167424543072e+00
2.280819605090487201e+00
2.280819605090487201e+00
2.321695852534562121e+00
2.321695852534562121e+00
2.298632648701437464e+00
2.127064912869655711e+00
2.127064912869655711e+00
2.192316904202398664e+00
2.192316904202398664e+00
2.220817773979919085e+00
2.285507248146000592e+00
2.285507248146000592e+00
2.397260658589434712e+00
2.397260658589434712e+00
2.347009125034333454e+00
2.417886288033692654e+00
2.417886288033692654e+00
2.311008026367992407e+00
2.311008026367992407e+00
2.146190496536149350e+00
2.196067018646809643e+00
2.196067018646809643e+00
2.179003997924741309e+00
2.179003997924741309e+00
2.228693014313181120e+00
2.218192693868831444e+00
2.218192693868831444e+00
2.343259010589922919e+00
2.310258003479110034e+00
2.310258003479110034e+00
2.262631550035096417e+00
2.262631550035096417e+00
2.128002441480758122e+00
2.151065645313883223e+00
2.151065645313883223e+00
2.365384685811944721e+00
2.365384685811944721e+00
2.383010223700674501e+00
2.513701712088381779e+00
2.513701712088381779e+00
2.300507705923642732e+00
2.300507705923642732e+00
2.220067751091036712e+00
2.249693655201880027e+00
2.249693655201880027e+00
2.294882534257026929e+00
2.294882534257026929e+00
2.190629352702413879e+00
2.192316904202398664e+00
2.192316904202398664e+00
2.200192144535660699e+00
2.291319925534837321e+00
2.291319925534837321e+00
2.297507614368114126e+00
2.297507614368114126e+00
2.281757133701590057e+00
2.185191686758019003e+00
2.185191686758019003e+00
2.290757408368175430e+00
2.323195898312326424e+00
2.323195898312326424e+00
2.065375530259102366e+00
2.065375530259102366e+00
2.247256080813012868e+00
2.363884640034180418e+00
2.363884640034180418e+00
2.373447431867427682e+00
2.373447431867427682e+00
2.381697683645130681e+00
2.271444318979460864e+00
2.271444318979460864e+00
2.295632557145908859e+00
2.268631733146153184e+00
2.268631733146153184e+00
2.172816309091464060e+00
2.172816309091464060e+00
2.247631092257453833e+00
2.368947294534135217e+00
2.368947294534135217e+00
2.276506973479415219e+00
2.276506973479415219e+00
2.384322763756218322e+00
2.305007843256935196e+00
2.305007843256935196e+00
2.227755485702078264e+00
2.227755485702078264e+00
2.112439466536454535e+00
2.106626789147617806e+00
2.106626789147617806e+00
2.168503677480392078e+00
2.238068300424207457e+00
2.238068300424207457e+00
2.365009674367503756e+00
2.365009674367503756e+00
2.346259102145451525e+00
2.253631275368511044e+00
2.253631275368511044e+00
2.200567155980101663e+00
2.200567155980101663e+00
2.359947019867549844e+00
2.204317270424512643e+00
2.204317270424512643e+00
2.273881893368328022e+00
2.273881893368328022e+00
2.374572466200750576e+00
2.297132602923673161e+00
2.297132602923673161e+00
2.320945829645680192e+00
2.207317361980041248e+00
2.207317361980041248e+00
2.150315622425000850e+00
2.150315622425000850e+00
2.302757774590289408e+00
2.201692190313425002e+00
2.201692190313425002e+00
2.253818781090731527e+00
2.253818781090731527e+00
2.182754112369151844e+00
2.220067751091036712e+00
2.220067751091036712e+00
2.321320841090121156e+00
2.321320841090121156e+00
2.291507431257057803e+00
2.370447340311899076e+00
2.370447340311899076e+00
2.387322855311746483e+00
2.346446607867672007e+00
2.346446607867672007e+00
2.264131595812860720e+00
2.264131595812860720e+00
2.194004455702383449e+00
2.229068025757622085e+00
2.229068025757622085e+00
2.301445234534745587e+00
2.301445234534745587e+00
2.237693288979766049e+00
2.117877132480849411e+00
2.117877132480849411e+00
2.087876216925565576e+00
2.087876216925565576e+00
2.184066652424695665e+00
2.257756401257362544e+00
2.257756401257362544e+00
2.294507522812585520e+00
2.396510635700552783e+00
2.396510635700552783e+00
2.397260658589434712e+00
2.397260658589434712e+00
2.408135990478225352e+00
2.344759056367687222e+00
2.344759056367687222e+00
2.293382488479262626e+00
2.293382488479262626e+00
2.327883541367839371e+00
2.383197729422894984e+00
2.383197729422894984e+00
2.307632923368022837e+00
2.307632923368022837e+00
2.142252876369517889e+00
1.998435987426374183e+00
1.998435987426374183e+00
2.086751182592242237e+00
2.086751182592242237e+00
2.204692281868953607e+00
2.347384136478774419e+00
2.347384136478774419e+00
2.379822626422925413e+00
2.308570451979125249e+00
2.308570451979125249e+00
2.311570543534653854e+00
2.311570543534653854e+00
2.360697042756431774e+00
2.368759788811914291e+00
2.368759788811914291e+00
2.301632740256966070e+00
2.301632740256966070e+00
2.290382396923734465e+00
2.056000244148076028e+00
2.056000244148076028e+00
2.126877407147435228e+00
2.126877407147435228e+00
2.471887936033204003e+00
2.276881984923856628e+00
2.276881984923856628e+00
2.102689168980987233e+00
2.102689168980987233e+00
2.183129123813593253e+00
2.263756584368419311e+00
2.263756584368419311e+00
2.209192419202246516e+00
2.140377819147312621e+00
2.140377819147312621e+00
2.224567888424329176e+00
2.224567888424329176e+00
2.408135990478225352e+00
2.436636860255744885e+00
2.436636860255744885e+00
2.412448622089296890e+00
2.412448622089296890e+00
2.298820154423657947e+00
2.233193151646474028e+00
2.233193151646474028e+00
2.204504776146733125e+00
2.204504776146733125e+00
2.252131229590746742e+00
2.317383220923490139e+00
2.317383220923490139e+00
2.216130130924405695e+00
2.190441846980193397e+00
2.190441846980193397e+00
2.175816400646992221e+00
2.175816400646992221e+00
2.332571184423352761e+00
2.361822077089755112e+00
2.361822077089755112e+00
2.281194616534928166e+00
2.281194616534928166e+00
2.314945646534623425e+00
2.363697134311959935e+00
2.363697134311959935e+00
2.332571184423352761e+00
2.332571184423352761e+00
2.233380657368694511e+00
2.237318277535325084e+00
2.237318277535325084e+00
2.151440656758324188e+00
2.196629535813471090e+00
2.196629535813471090e+00
2.279132053590502860e+00
2.279132053590502860e+00
2.235818231757560781e+00
2.178441480758079862e+00
2.178441480758079862e+00
2.247068575090792386e+00
2.247068575090792386e+00
2.216317636646626177e+00
2.329383587145603673e+00
2.329383587145603673e+00
2.286444776757103448e+00
2.286444776757103448e+00
2.246131046479689974e+00
2.346446607867672007e+00
2.346446607867672007e+00
2.397448164311655194e+00
2.397448164311655194e+00
2.323383404034546906e+00
2.273506881923887057e+00
2.273506881923887057e+00
2.295820062868129341e+00
2.318695760979033516e+00
2.318695760979033516e+00
2.222505325479903426e+00
2.222505325479903426e+00
2.232818140202032620e+00
2.239380840479750834e+00
2.239380840479750834e+00
2.132877590258491995e+00
2.132877590258491995e+00
2.216130130924405695e+00
2.233380657368694511e+00
2.233380657368694511e+00
2.350571733756523507e+00
2.209004913480026033e+00
2.209004913480026033e+00
2.227942991424298746e+00
2.227942991424298746e+00
2.428386608478041886e+00
2.273694387646107540e+00
2.273694387646107540e+00
2.218942716757713818e+00
2.233755668813135031e+00
2.233755668813135031e+00
2.218380199591051927e+00
2.218380199591051927e+00
2.171503769035920239e+00
2.132315073091830104e+00
2.132315073091830104e+00
2.340446424756614796e+00
2.340446424756614796e+00
2.406635944700461049e+00
2.274069399090548504e+00
2.274069399090548504e+00
2.276506973479415219e+00
2.276506973479415219e+00
2.254756309701834383e+00
2.334258735923337547e+00
2.334258735923337547e+00
2.293945005645924073e+00
2.293945005645924073e+00
2.335571275978881367e+00
2.294882534257026929e+00
2.294882534257026929e+00
2.179191503646961792e+00
2.179191503646961792e+00
2.170566240424817828e+00
2.263569078646198829e+00
2.263569078646198829e+00
2.311195532090212890e+00
2.294882534257026929e+00
2.294882534257026929e+00
2.364634662923062791e+00
2.364634662923062791e+00
2.322820886867885459e+00
2.335946287423322332e+00
2.335946287423322332e+00
2.253256263924070080e+00
2.253256263924070080e+00
2.236943266090884119e+00
2.188566789757988129e+00
2.188566789757988129e+00
2.178253975035859380e+00
2.178253975035859380e+00
2.298257637256996500e+00
2.262444044312875935e+00
2.262444044312875935e+00
2.231130588702047834e+00
2.231130588702047834e+00
2.172066286202582130e+00
2.195504501480147752e+00
2.195504501480147752e+00
2.196442030091250608e+00
2.248568620868556689e+00
2.248568620868556689e+00
2.416948759422589799e+00
2.416948759422589799e+00
2.363697134311959935e+00
2.342508987701040546e+00
2.342508987701040546e+00
2.332383678701132279e+00
2.332383678701132279e+00
2.321508346812341639e+00
2.334446241645558029e+00
2.334446241645558029e+00
2.160815942869350526e+00
2.160815942869350526e+00
2.145815485091708386e+00
2.287757316812646824e+00
2.287757316812646824e+00
2.281569627979369130e+00
2.278757042146061895e+00
2.278757042146061895e+00
2.203004730368968822e+00
2.203004730368968822e+00
2.154253242591631867e+00
2.102501663258766751e+00
2.102501663258766751e+00
2.253631275368511044e+00
2.253631275368511044e+00
2.352259285256507848e+00
2.375322489089632505e+00
2.375322489089632505e+00
2.342696493423261028e+00
2.342696493423261028e+00
2.297882625812555535e+00
2.284382213812677254e+00
2.284382213812677254e+00
2.298070131534776017e+00
2.298070131534776017e+00
2.253443769646290562e+00
2.299007660145878429e+00
2.299007660145878429e+00
2.115627063814203623e+00
2.142815393536179780e+00
2.142815393536179780e+00
2.191941892757957699e+00
2.191941892757957699e+00
2.320008301034577336e+00
2.398010681478316641e+00
2.398010681478316641e+00
2.384885280922879769e+00
2.384885280922879769e+00
2.291507431257057803e+00
2.282319650868251504e+00
2.282319650868251504e+00
2.297320108645893644e+00
2.297320108645893644e+00
2.301070223090304623e+00
2.334633747367778511e+00
2.334633747367778511e+00
2.316445692312387283e+00
2.316445692312387283e+00
2.232068117313150690e+00
2.277444502090518075e+00
2.277444502090518075e+00
2.161940977202673420e+00
2.007998779259621003e+00
2.007998779259621003e+00
2.153128208258308529e+00
2.153128208258308529e+00
2.189129306924649576e+00
2.331821161534470832e+00
2.331821161534470832e+00
2.367259743034150432e+00
2.367259743034150432e+00
2.425574022644734207e+00
2.352821802423169739e+00
2.352821802423169739e+00
2.330696127201147494e+00
2.288882351145970162e+00
2.288882351145970162e+00
2.248756126590777171e+00
2.198692098757896396e+00
2.198692098757896396e+00
2.176378917813653668e+00
2.110189397869807859e+00
2.110189397869807859e+00
2.066875576036866669e+00
2.066875576036866669e+00
2.242568437757499922e+00
2.293569994201483109e+00
2.293569994201483109e+00
2.349071687978759204e+00
2.349071687978759204e+00
2.431949217200232383e+00
2.291319925534837321e+00
2.291319925534837321e+00
2.259256447035126847e+00
2.381885189367351607e+00
2.381885189367351607e+00
2.413198644978179264e+00
2.413198644978179264e+00
2.359009491256446989e+00
2.286444776757103448e+00
2.286444776757103448e+00
2.188754295480208611e+00
2.188754295480208611e+00
2.192316904202398664e+00
2.179379009369182274e+00
2.179379009369182274e+00
2.197004547257912055e+00
2.197004547257912055e+00
2.241630909146397510e+00
2.273319376201666131e+00
2.273319376201666131e+00
2.153503219702749494e+00
2.210879970702230857e+00
2.210879970702230857e+00
2.300695211645863214e+00
2.300695211645863214e+00
2.309320474868007622e+00
2.388635395367290304e+00
2.388635395367290304e+00
2.383572740867336393e+00
2.383572740867336393e+00
2.307820429090243319e+00
2.237880794701986531e+00
2.237880794701986531e+00
2.207879879146702695e+00
2.207879879146702695e+00
2.172253791924802613e+00
2.171503769035920239e+00
2.171503769035920239e+00
2.200004638813440216e+00
2.233380657368694511e+00
2.233380657368694511e+00
2.244443494979705633e+00
2.304257820368053267e+00
2.304257820368053267e+00
2.356759422589800756e+00
2.365572191534165203e+00
2.365572191534165203e+00
2.335571275978881367e+00
2.335571275978881367e+00
2.274819421979430434e+00
2.246131046479689974e+00
2.246131046479689974e+00
2.298632648701437464e+00
2.298632648701437464e+00
2.208254890591143660e+00
2.195316995757927270e+00
2.195316995757927270e+00
2.263006561479537382e+00
2.295257545701467894e+00
2.295257545701467894e+00
2.294695028534806447e+00
2.294695028534806447e+00
2.215567613757744247e+00
2.209942442091128445e+00
2.209942442091128445e+00
2.252131229590746742e+00
2.252131229590746742e+00
2.214817590868861874e+00
2.225505417035432032e+00
2.225505417035432032e+00
2.361072054200873183e+00
2.361072054200873183e+00
2.357509445478682686e+00
2.249131138035218136e+00
2.249131138035218136e+00
2.241443403424177028e+00
2.241443403424177028e+00
2.282319650868251504e+00
2.322258369701224012e+00
2.322258369701224012e+00
2.348509170812097757e+00
2.262819055757316900e+00
2.262819055757316900e+00
2.242568437757499922e+00
2.242568437757499922e+00
2.199254615924558287e+00
2.127252418591876193e+00
2.127252418591876193e+00
2.101564134647663895e+00
2.101564134647663895e+00
2.279507065034943825e+00
2.398948210089419053e+00
2.398948210089419053e+00
2.401198278756065729e+00
2.401198278756065729e+00
2.237505783257545566e+00
2.285694753868221074e+00
2.285694753868221074e+00
2.381135166478469234e+00
2.169628711813714972e+00
2.169628711813714972e+00
2.222317819757682944e+00
2.222317819757682944e+00
2.190629352702413879e+00
2.200567155980101663e+00
2.200567155980101663e+00
2.301070223090304623e+00
2.301070223090304623e+00
2.298820154423657947e+00
2.269944273201696561e+00
2.269944273201696561e+00
2.246881069368571904e+00
2.246881069368571904e+00
2.324883449812311209e+00
2.360884548478652700e+00
2.360884548478652700e+00
2.315508163701284872e+00
2.287757316812646824e+00
2.287757316812646824e+00
2.207129856257820322e+00
2.207129856257820322e+00
2.292632465590380253e+00
2.300695211645863214e+00
2.300695211645863214e+00
2.279132053590502860e+00
2.279132053590502860e+00
2.240318369090853690e+00
2.184254158146916147e+00
2.184254158146916147e+00
2.163066011535996758e+00
2.163066011535996758e+00
2.202629718924527857e+00
2.215380108035523765e+00
2.215380108035523765e+00
2.219317728202154782e+00
2.326946012756737403e+00
2.326946012756737403e+00
2.464387707144383377e+00
2.464387707144383377e+00
2.370447340311899076e+00
2.251006195257423848e+00
2.251006195257423848e+00
2.243130954924161813e+00
2.243130954924161813e+00
2.278382030701620931e+00
2.270506790368358452e+00
2.270506790368358452e+00
2.242005920590838475e+00
2.257756401257362544e+00
2.257756401257362544e+00
2.287569811090426342e+00
2.287569811090426342e+00
2.236755760368663637e+00
2.171878780480361648e+00
2.171878780480361648e+00
2.208442396313364142e+00
2.208442396313364142e+00
2.278194524979400004e+00
2.368759788811914291e+00
2.368759788811914291e+00
2.297695120090334608e+00
2.297695120090334608e+00
2.206942350535599839e+00
2.162691000091555793e+00
2.162691000091555793e+00
2.260381481368449741e+00
2.269006744590594149e+00
2.269006744590594149e+00
2.267131687368389326e+00
2.267131687368389326e+00
2.206942350535599839e+00
2.223255348368785356e+00
2.223255348368785356e+00
2.226442945646534444e+00
2.226442945646534444e+00
2.234130680257575996e+00
2.224005371257667729e+00
2.224005371257667729e+00
2.349821710867641578e+00
2.349821710867641578e+00
2.374384960478530537e+00
2.331821161534470832e+00
2.331821161534470832e+00
2.332571184423352761e+00
2.361822077089755112e+00
2.361822077089755112e+00
2.275944456312753772e+00
2.275944456312753772e+00
2.215380108035523765e+00
2.181816583758049433e+00
2.181816583758049433e+00
2.265256630146183614e+00
2.265256630146183614e+00
2.227380474257637299e+00
2.256443861201819168e+00
2.256443861201819168e+00
2.232630634479812137e+00
2.232630634479812137e+00
2.240505874813074172e+00
2.281194616534928166e+00
2.281194616534928166e+00
2.323945921201208797e+00
2.289444868312631609e+00
2.289444868312631609e+00
2.356384411145359792e+00
2.356384411145359792e+00
2.268256721701712220e+00
2.192879421369060555e+00
2.192879421369060555e+00
2.228693014313181120e+00
