2.282319650868251504e+00
2.282319650868251504e+00
2.282319650868251504e+00
2.282319650868251504e+00
2.289819879757073018e+00
2.289819879757073018e+00
2.289819879757073018e+00
2.313445600756859122e+00
2.313445600756859122e+00
2.313445600756859122e+00
2.313445600756859122e+00
2.311758049256874337e+00
2.311758049256874337e+00
2.311758049256874337e+00
2.284194708090456771e+00
2.284194708090456771e+00
2.284194708090456771e+00
2.261881527146214044e+00
2.261881527146214044e+00
2.261881527146214044e+00
2.261881527146214044e+00
2.247068575090792386e+00
2.247068575090792386e+00
2.247068575090792386e+00
2.244818506424146598e+00
2.244818506424146598e+00
2.244818506424146598e+00
2.244818506424146598e+00
2.236943266090884119e+00
2.236943266090884119e+00
2.236943266090884119e+00
2.234880703146458369e+00
2.234880703146458369e+00
2.234880703146458369e+00
2.234880703146458369e+00
2.235068208868678852e+00
2.235068208868678852e+00
2.235068208868678852e+00
2.215380108035523765e+00
2.215380108035523765e+00
2.215380108035523765e+00
2.223067842646564873e+00
2.223067842646564873e+00
2.223067842646564873e+00
2.223067842646564873e+00
2.264506607257301685e+00
2.264506607257301685e+00
2.264506607257301685e+00
2.286632282479323930e+00
2.286632282479323930e+00
2.286632282479323930e+00
2.286632282479323930e+00
2.307820429090243319e+00
2.307820429090243319e+00
2.307820429090243319e+00
2.320570818201239227e+00
2.320570818201239227e+00
2.320570818201239227e+00
2.320570818201239227e+00
2.304632831812494231e+00
2.304632831812494231e+00
2.304632831812494231e+00
2.269194250312814631e+00
2.269194250312814631e+00
2.269194250312814631e+00
2.269194250312814631e+00
2.259256447035126847e+00
2.259256447035126847e+00
2.259256447035126847e+00
2.242755943479720404e+00
2.242755943479720404e+00
2.242755943479720404e+00
2.239380840479750834e+00
2.239380840479750834e+00
2.239380840479750834e+00
2.239380840479750834e+00
2.224942899868770141e+00
2.224942899868770141e+00
2.224942899868770141e+00
2.220630268257698603e+00
2.220630268257698603e+00
2.220630268257698603e+00
2.220630268257698603e+00
2.218755211035493335e+00
2.218755211035493335e+00
2.218755211035493335e+00
2.202067201757865966e+00
2.202067201757865966e+00
2.202067201757865966e+00
2.202067201757865966e+00
2.234880703146458369e+00
2.234880703146458369e+00
2.234880703146458369e+00
2.277819513534959039e+00
2.277819513534959039e+00
2.295632557145908859e+00
2.295632557145908859e+00
2.295632557145908859e+00
2.295632557145908859e+00
2.316820703756828248e+00
2.316820703756828248e+00
2.316820703756828248e+00
2.325258461256752618e+00
2.325258461256752618e+00
2.325258461256752618e+00
2.300132694479201767e+00
2.300132694479201767e+00
2.300132694479201767e+00
2.300132694479201767e+00
2.270694296090578934e+00
2.270694296090578934e+00
2.270694296090578934e+00
2.260756492812891150e+00
2.260756492812891150e+00
2.260756492812891150e+00
2.241255897701956545e+00
2.241255897701956545e+00
2.241255897701956545e+00
2.241255897701956545e+00
2.240318369090853690e+00
2.240318369090853690e+00
2.240318369090853690e+00
2.221380291146580532e+00
2.221380291146580532e+00
2.221380291146580532e+00
2.221380291146580532e+00
2.215942625202185212e+00
2.215942625202185212e+00
2.215942625202185212e+00
2.209379924924466998e+00
2.209379924924466998e+00
2.209379924924466998e+00
2.194566972869045340e+00
2.194566972869045340e+00
2.194566972869045340e+00
2.194566972869045340e+00
2.224192876979888212e+00
2.224192876979888212e+00
2.224192876979888212e+00
2.282132145146031021e+00
2.282132145146031021e+00
2.284194708090456771e+00
2.284194708090456771e+00
2.284194708090456771e+00
2.318133243812372069e+00
2.318133243812372069e+00
2.318133243812372069e+00
2.318133243812372069e+00
2.306695394756919981e+00
2.306695394756919981e+00
2.306695394756919981e+00
2.279882076479384789e+00
2.279882076479384789e+00
2.279882076479384789e+00
2.264506607257301685e+00
2.264506607257301685e+00
2.264506607257301685e+00
2.264506607257301685e+00
2.260006469924008776e+00
2.260006469924008776e+00
2.260006469924008776e+00
2.255318826868495830e+00
2.255318826868495830e+00
2.255318826868495830e+00
2.243693472090823260e+00
2.243693472090823260e+00
2.243693472090823260e+00
2.243693472090823260e+00
2.226255439924313961e+00
2.226255439924313961e+00
2.226255439924313961e+00
2.223442854091006282e+00
2.223442854091006282e+00
2.223442854091006282e+00
2.223442854091006282e+00
2.208067384868923178e+00
2.208067384868923178e+00
2.208067384868923178e+00
2.213692556535538980e+00
2.213692556535538980e+00
2.213692556535538980e+00
2.213692556535538980e+00
2.259256447035126847e+00
2.259256447035126847e+00
2.259256447035126847e+00
2.282319650868251504e+00
2.282319650868251504e+00
2.282319650868251504e+00
2.303320291756950855e+00
2.303320291756950855e+00
2.303320291756950855e+00
2.303320291756950855e+00
2.317945738090151586e+00
2.317945738090151586e+00
2.317945738090151586e+00
2.304632831812494231e+00
2.304632831812494231e+00
2.304632831812494231e+00
2.304632831812494231e+00
2.276881984923856628e+00
2.276881984923856628e+00
2.276881984923856628e+00
2.264131595812860720e+00
2.264131595812860720e+00
2.264131595812860720e+00
2.239193334757530351e+00
2.239193334757530351e+00
2.239193334757530351e+00
2.239193334757530351e+00
2.242568437757499922e+00
2.242568437757499922e+00
2.242568437757499922e+00
2.233755668813135031e+00
2.233755668813135031e+00
2.233755668813135031e+00
2.233755668813135031e+00
2.224567888424329176e+00
2.224567888424329176e+00
2.224567888424329176e+00
2.225880428479872997e+00
2.225880428479872997e+00
2.225880428479872997e+00
2.203379741813409787e+00
2.203379741813409787e+00
2.203379741813409787e+00
2.203379741813409787e+00
2.230755577257606870e+00
2.230755577257606870e+00
2.230755577257606870e+00
2.278569536423841413e+00
2.278569536423841413e+00
2.278569536423841413e+00
2.278569536423841413e+00
2.298257637256996500e+00
2.298257637256996500e+00
2.298257637256996500e+00
2.305382854701376161e+00
2.305382854701376161e+00
2.305382854701376161e+00
2.305382854701376161e+00
2.314758140812402942e+00
2.314758140812402942e+00
2.314758140812402942e+00
2.299007660145878429e+00
2.299007660145878429e+00
2.299007660145878429e+00
2.265256630146183614e+00
2.265256630146183614e+00
2.265256630146183614e+00
2.265256630146183614e+00
2.254756309701834383e+00
2.254756309701834383e+00
2.254756309701834383e+00
2.245381023590808045e+00
2.245381023590808045e+00
2.236943266090884119e+00
2.236943266090884119e+00
2.236943266090884119e+00
2.236943266090884119e+00
2.225692922757652514e+00
2.225692922757652514e+00
2.225692922757652514e+00
2.212755027924436124e+00
2.212755027924436124e+00
2.212755027924436124e+00
2.212755027924436124e+00
2.228130497146519229e+00
2.228130497146519229e+00
2.228130497146519229e+00
2.201129673146763555e+00
2.201129673146763555e+00
2.201129673146763555e+00
2.243880977813043742e+00
2.243880977813043742e+00
2.243880977813043742e+00
2.282882168034912951e+00
2.282882168034912951e+00
2.282882168034912951e+00
2.282882168034912951e+00
2.295070039979247412e+00
2.295070039979247412e+00
2.295070039979247412e+00
2.315320657979064389e+00
2.315320657979064389e+00
2.315320657979064389e+00
2.315320657979064389e+00
2.318883266701254442e+00
2.318883266701254442e+00
2.318883266701254442e+00
2.298445142979216982e+00
2.298445142979216982e+00
2.298445142979216982e+00
2.268069215979491737e+00
2.268069215979491737e+00
2.268069215979491737e+00
2.268069215979491737e+00
2.247818597979674760e+00
2.247818597979674760e+00
2.247818597979674760e+00
2.233943174535355514e+00
2.233943174535355514e+00
2.233943174535355514e+00
2.233943174535355514e+00
2.230193060090945423e+00
2.230193060090945423e+00
2.230193060090945423e+00
2.222505325479903426e+00
2.222505325479903426e+00
2.222505325479903426e+00
2.234318185979796478e+00
2.234318185979796478e+00
2.234318185979796478e+00
2.234318185979796478e+00
2.198879604480116878e+00
2.198879604480116878e+00
2.198879604480116878e+00
2.166628620258186366e+00
2.166628620258186366e+00
2.166628620258186366e+00
2.238068300424207457e+00
2.238068300424207457e+00
2.238068300424207457e+00
2.238068300424207457e+00
2.311570543534653854e+00
2.311570543534653854e+00
2.311570543534653854e+00
2.317758232367931104e+00
2.317758232367931104e+00
2.317758232367931104e+00
2.317758232367931104e+00
2.334446241645558029e+00
2.334446241645558029e+00
2.334446241645558029e+00
2.313445600756859122e+00
2.313445600756859122e+00
2.313445600756859122e+00
2.281194616534928166e+00
2.281194616534928166e+00
2.281194616534928166e+00
2.281194616534928166e+00
2.259256447035126847e+00
2.259256447035126847e+00
2.259256447035126847e+00
2.247818597979674760e+00
2.247818597979674760e+00
2.247818597979674760e+00
2.247818597979674760e+00
2.210692464980010374e+00
2.210692464980010374e+00
2.210692464980010374e+00
2.203754753257850751e+00
2.203754753257850751e+00
2.203754753257850751e+00
2.203754753257850751e+00
2.203754753257850751e+00
2.203754753257850751e+00
2.203754753257850751e+00
2.204692281868953607e+00
2.204692281868953607e+00
2.204692281868953607e+00
2.229068025757622085e+00
2.229068025757622085e+00
2.229068025757622085e+00
2.229068025757622085e+00
2.242943449201941331e+00
2.242943449201941331e+00
2.242943449201941331e+00
2.284194708090456771e+00
2.284194708090456771e+00
2.284194708090456771e+00
2.284194708090456771e+00
2.286444776757103448e+00
2.286444776757103448e+00
2.286444776757103448e+00
2.323383404034546906e+00
2.323383404034546906e+00
2.323383404034546906e+00
2.330133610034486047e+00
2.330133610034486047e+00
2.330133610034486047e+00
2.330133610034486047e+00
2.316820703756828248e+00
2.316820703756828248e+00
2.316820703756828248e+00
2.281194616534928166e+00
2.281194616534928166e+00
2.281194616534928166e+00
2.281194616534928166e+00
2.253443769646290562e+00
2.253443769646290562e+00
2.253443769646290562e+00
2.210317453535568966e+00
2.210317453535568966e+00
2.210317453535568966e+00
2.220817773979919085e+00
2.220817773979919085e+00
2.220817773979919085e+00
2.220817773979919085e+00
2.233193151646474028e+00
2.233193151646474028e+00
2.233193151646474028e+00
2.239193334757530351e+00
2.239193334757530351e+00
2.239193334757530351e+00
2.239193334757530351e+00
2.222692831202123909e+00
2.222692831202123909e+00
2.222692831202123909e+00
2.201879696035645484e+00
2.201879696035645484e+00
2.201879696035645484e+00
2.226067934202093479e+00
2.226067934202093479e+00
2.226067934202093479e+00
2.226067934202093479e+00
2.262819055757316900e+00
2.262819055757316900e+00
2.262819055757316900e+00
2.285507248146000592e+00
2.285507248146000592e+00
2.285507248146000592e+00
2.312133060701315301e+00
2.312133060701315301e+00
2.312133060701315301e+00
2.312133060701315301e+00
2.323383404034546906e+00
2.323383404034546906e+00
2.323383404034546906e+00
2.303507797479171337e+00
2.303507797479171337e+00
2.303507797479171337e+00
2.276131962034974254e+00
2.276131962034974254e+00
2.276131962034974254e+00
2.276131962034974254e+00
2.268444227423932702e+00
2.268444227423932702e+00
2.268444227423932702e+00
2.254943815424054865e+00
2.254943815424054865e+00
2.254943815424054865e+00
2.254943815424054865e+00
2.250256172368541474e+00
2.250256172368541474e+00
2.250256172368541474e+00
2.228880520035401602e+00
2.228880520035401602e+00
2.228880520035401602e+00
2.220817773979919085e+00
2.220817773979919085e+00
2.220817773979919085e+00
2.220817773979919085e+00
2.201317178868984037e+00
2.201317178868984037e+00
2.201317178868984037e+00
2.188941801202429094e+00
2.188941801202429094e+00
2.188941801202429094e+00
2.188941801202429094e+00
2.239568346201971760e+00
2.239568346201971760e+00
2.239568346201971760e+00
2.274444410534989469e+00
2.274444410534989469e+00
2.274444410534989469e+00
2.287569811090426342e+00
2.287569811090426342e+00
2.287569811090426342e+00
2.287569811090426342e+00
2.312320566423536228e+00
2.312320566423536228e+00
2.312320566423536228e+00
2.320758323923459709e+00
2.320758323923459709e+00
2.320758323923459709e+00
2.320758323923459709e+00
2.307070406201360946e+00
2.307070406201360946e+00
2.307070406201360946e+00
2.285507248146000592e+00
2.285507248146000592e+00
2.285507248146000592e+00
2.285507248146000592e+00
2.269569261757255596e+00
2.269569261757255596e+00
2.269569261757255596e+00
2.254568803979613900e+00
2.254568803979613900e+00
2.254568803979613900e+00
2.237880794701986531e+00
2.237880794701986531e+00
2.237880794701986531e+00
2.237880794701986531e+00
2.227005462813196335e+00
2.227005462813196335e+00
2.227005462813196335e+00
2.228693014313181120e+00
2.228693014313181120e+00
2.228693014313181120e+00
2.228693014313181120e+00
2.203192236091189304e+00
2.203192236091189304e+00
2.203192236091189304e+00
2.203379741813409787e+00
2.203379741813409787e+00
2.203379741813409787e+00
2.233193151646474028e+00
2.233193151646474028e+00
2.233193151646474028e+00
2.233193151646474028e+00
2.264319101535081202e+00
2.264319101535081202e+00
2.264319101535081202e+00
2.294507522812585520e+00
2.294507522812585520e+00
2.294507522812585520e+00
2.294507522812585520e+00
2.315883175145725836e+00
2.315883175145725836e+00
2.315883175145725836e+00
2.301820245979186552e+00
2.301820245979186552e+00
2.301820245979186552e+00
2.271819330423901828e+00
2.271819330423901828e+00
2.271819330423901828e+00
2.271819330423901828e+00
2.268631733146153184e+00
2.268631733146153184e+00
2.268631733146153184e+00
2.259818964201788294e+00
2.259818964201788294e+00
2.259818964201788294e+00
2.259818964201788294e+00
2.252881252479629115e+00
2.252881252479629115e+00
2.252881252479629115e+00
2.233755668813135031e+00
2.233755668813135031e+00
2.233755668813135031e+00
2.233755668813135031e+00
2.215005096591082356e+00
2.215005096591082356e+00
2.215005096591082356e+00
2.220630268257698603e+00
2.220630268257698603e+00
2.220630268257698603e+00
2.216880153813287624e+00
2.216880153813287624e+00
2.216880153813287624e+00
2.216880153813287624e+00
2.233193151646474028e+00
2.233193151646474028e+00
2.233193151646474028e+00
2.267131687368389326e+00
2.267131687368389326e+00
2.267131687368389326e+00
2.267131687368389326e+00
2.280819605090487201e+00
2.280819605090487201e+00
2.280819605090487201e+00
2.297320108645893644e+00
2.297320108645893644e+00
2.297320108645893644e+00
2.297320108645893644e+00
2.318508255256813033e+00
2.318508255256813033e+00
2.318508255256813033e+00
2.296007568590349823e+00
2.296007568590349823e+00
2.296007568590349823e+00
2.263381572923978347e+00
2.263381572923978347e+00
2.263381572923978347e+00
2.263381572923978347e+00
2.259443952757347329e+00
2.259443952757347329e+00
2.259443952757347329e+00
2.251756218146305777e+00
2.251756218146305777e+00
2.251756218146305777e+00
2.251756218146305777e+00
2.245943540757469048e+00
2.245943540757469048e+00
2.245943540757469048e+00
2.237505783257545566e+00
2.237505783257545566e+00
2.237505783257545566e+00
2.237505783257545566e+00
2.239943357646412725e+00
2.239943357646412725e+00
2.239943357646412725e+00
2.225505417035432032e+00
2.225505417035432032e+00
2.225505417035432032e+00
2.215192602313302839e+00
2.215192602313302839e+00
2.215192602313302839e+00
2.215192602313302839e+00
2.250068666646320992e+00
2.250068666646320992e+00
2.250068666646320992e+00
2.290944914090395912e+00
2.290944914090395912e+00
2.290944914090395912e+00
2.290944914090395912e+00
2.276319467757194737e+00
2.276319467757194737e+00
2.276319467757194737e+00
2.291694936979278285e+00
2.291694936979278285e+00
2.291694936979278285e+00
2.298632648701437464e+00
2.298632648701437464e+00
2.298632648701437464e+00
2.298632648701437464e+00
2.279694570757164307e+00
2.279694570757164307e+00
2.279694570757164307e+00
2.267319193090609808e+00
2.267319193090609808e+00
2.267319193090609808e+00
2.267319193090609808e+00
2.263194067201757864e+00
2.263194067201757864e+00
2.263194067201757864e+00
2.258131412701803509e+00
2.258131412701803509e+00
2.258131412701803509e+00
2.258131412701803509e+00
2.257006378368480615e+00
2.257006378368480615e+00
2.257006378368480615e+00
2.223442854091006282e+00
2.223442854091006282e+00
2.223442854091006282e+00
2.212005005035553751e+00
2.212005005035553751e+00
2.212005005035553751e+00
2.212005005035553751e+00
2.206754844813379357e+00
2.206754844813379357e+00
2.206754844813379357e+00
2.213880062257759462e+00
2.213880062257759462e+00
2.213880062257759462e+00
2.213880062257759462e+00
2.263569078646198829e+00
2.263569078646198829e+00
2.263569078646198829e+00
2.287007293923764895e+00
2.287007293923764895e+00
2.287007293923764895e+00
2.302382763145847999e+00
2.302382763145847999e+00
2.302382763145847999e+00
2.302382763145847999e+00
2.311758049256874337e+00
2.311758049256874337e+00
2.311758049256874337e+00
2.304257820368053267e+00
2.304257820368053267e+00
2.304257820368053267e+00
2.304257820368053267e+00
2.277632007812738557e+00
2.277632007812738557e+00
2.277632007812738557e+00
2.238255806146427940e+00
2.238255806146427940e+00
2.238255806146427940e+00
2.238255806146427940e+00
2.241818414868617992e+00
2.241818414868617992e+00
2.241818414868617992e+00
2.262444044312875935e+00
2.262444044312875935e+00
2.262444044312875935e+00
2.255506332590716312e+00
2.255506332590716312e+00
2.255506332590716312e+00
2.255506332590716312e+00
2.245943540757469048e+00
2.245943540757469048e+00
2.245943540757469048e+00
2.236380748924222672e+00
2.236380748924222672e+00
2.236380748924222672e+00
2.236380748924222672e+00
2.218005188146610962e+00
2.218005188146610962e+00
2.218005188146610962e+00
2.231693105868709726e+00
2.231693105868709726e+00
2.231693105868709726e+00
2.241068391979735619e+00
2.241068391979735619e+00
2.241068391979735619e+00
2.241068391979735619e+00
2.258506424146244473e+00
2.258506424146244473e+00
2.258506424146244473e+00
2.281944639423810539e+00
2.281944639423810539e+00
2.281944639423810539e+00
2.313070589312418157e+00
2.313070589312418157e+00
2.313070589312418157e+00
2.313070589312418157e+00
2.300132694479201767e+00
2.300132694479201767e+00
2.300132694479201767e+00
2.275756950590533290e+00
2.275756950590533290e+00
2.275756950590533290e+00
2.275756950590533290e+00
2.267319193090609808e+00
2.267319193090609808e+00
2.267319193090609808e+00
2.251756218146305777e+00
2.251756218146305777e+00
2.251756218146305777e+00
2.243130954924161813e+00
2.243130954924161813e+00
2.243130954924161813e+00
2.243130954924161813e+00
2.239193334757530351e+00
2.239193334757530351e+00
2.239193334757530351e+00
2.230755577257606870e+00
2.230755577257606870e+00
2.230755577257606870e+00
2.230755577257606870e+00
2.215942625202185212e+00
2.215942625202185212e+00
2.215942625202185212e+00
2.177691457869197489e+00
2.177691457869197489e+00
2.177691457869197489e+00
2.177691457869197489e+00
2.227005462813196335e+00
2.227005462813196335e+00
2.227005462813196335e+00
2.266756675923947917e+00
2.266756675923947917e+00
2.266756675923947917e+00
2.282507156590471986e+00
2.282507156590471986e+00
2.282507156590471986e+00
2.282507156590471986e+00
2.307257911923581428e+00
2.307257911923581428e+00
2.307257911923581428e+00
2.313445600756859122e+00
2.313445600756859122e+00
2.313445600756859122e+00
2.313445600756859122e+00
2.287944822534867306e+00
2.287944822534867306e+00
2.287944822534867306e+00
2.272194341868343237e+00
2.272194341868343237e+00
2.272194341868343237e+00
2.277819513534959039e+00
2.277819513534959039e+00
2.277819513534959039e+00
2.277819513534959039e+00
2.257568895535142062e+00
2.257568895535142062e+00
2.257568895535142062e+00
2.251006195257423848e+00
2.251006195257423848e+00
2.251006195257423848e+00
2.251006195257423848e+00
2.228505508590960638e+00
2.228505508590960638e+00
2.228505508590960638e+00
2.236755760368663637e+00
2.236755760368663637e+00
2.236755760368663637e+00
2.226817957090975852e+00
2.226817957090975852e+00
2.226817957090975852e+00
2.226817957090975852e+00
2.213692556535538980e+00
2.213692556535538980e+00
2.213692556535538980e+00
2.246131046479689974e+00
2.246131046479689974e+00
2.246131046479689974e+00
2.246131046479689974e+00
2.271069307535019899e+00
2.271069307535019899e+00
2.271069307535019899e+00
2.290944914090395912e+00
2.290944914090395912e+00
2.290944914090395912e+00
2.308945463423566213e+00
2.308945463423566213e+00
2.308945463423566213e+00
2.308945463423566213e+00
2.299382671590319838e+00
2.299382671590319838e+00
2.299382671590319838e+00
2.284007202368236289e+00
2.284007202368236289e+00
2.284007202368236289e+00
2.284007202368236289e+00
2.271256813257240381e+00
2.271256813257240381e+00
2.271256813257240381e+00
2.257943906979583026e+00
2.257943906979583026e+00
2.257943906979583026e+00
2.257943906979583026e+00
2.238630817590868904e+00
2.238630817590868904e+00
2.238630817590868904e+00
2.227942991424298746e+00
2.227942991424298746e+00
2.227942991424298746e+00
2.215005096591082356e+00
2.215005096591082356e+00
2.215005096591082356e+00
2.215005096591082356e+00
2.230943082979827352e+00
2.230943082979827352e+00
2.230943082979827352e+00
2.216880153813287624e+00
2.216880153813287624e+00
2.216880153813287624e+00
2.216880153813287624e+00
2.218755211035493335e+00
2.218755211035493335e+00
2.218755211035493335e+00
2.265069124423963132e+00
2.265069124423963132e+00
2.265069124423963132e+00
2.265069124423963132e+00
2.284382213812677254e+00
2.284382213812677254e+00
2.284382213812677254e+00
2.310445509201330516e+00
2.310445509201330516e+00
2.310445509201330516e+00
2.350946745200964472e+00
2.350946745200964472e+00
2.350946745200964472e+00
2.350946745200964472e+00
2.313820612201300086e+00
2.313820612201300086e+00
2.313820612201300086e+00
2.275194433423871843e+00
2.275194433423871843e+00
2.275194433423871843e+00
2.275194433423871843e+00
2.254006286812952009e+00
2.254006286812952009e+00
2.254006286812952009e+00
2.232068117313150690e+00
2.232068117313150690e+00
2.232068117313150690e+00
2.232068117313150690e+00
2.227755485702078264e+00
2.227755485702078264e+00
2.227755485702078264e+00
2.227192968535416817e+00
2.227192968535416817e+00
2.227192968535416817e+00
2.222692831202123909e+00
2.222692831202123909e+00
2.222692831202123909e+00
2.222692831202123909e+00
2.214630085146641392e+00
2.214630085146641392e+00
2.214630085146641392e+00
2.201692190313425002e+00
2.201692190313425002e+00
2.201692190313425002e+00
2.201692190313425002e+00
2.227380474257637299e+00
2.227380474257637299e+00
2.227380474257637299e+00
2.274069399090548504e+00
2.274069399090548504e+00
2.274069399090548504e+00
2.281569627979369130e+00
2.281569627979369130e+00
2.281569627979369130e+00
2.281569627979369130e+00
2.301820245979186552e+00
2.301820245979186552e+00
2.301820245979186552e+00
2.320008301034577336e+00
2.320008301034577336e+00
2.320008301034577336e+00
2.320008301034577336e+00
2.296195074312570750e+00
2.296195074312570750e+00
2.296195074312570750e+00
2.278007019257179522e+00
2.278007019257179522e+00
2.278007019257179522e+00
2.278007019257179522e+00
2.266944181646168399e+00
2.266944181646168399e+00
2.266944181646168399e+00
2.250818689535202921e+00
2.250818689535202921e+00
2.250818689535202921e+00
2.229630542924283532e+00
2.229630542924283532e+00
2.229630542924283532e+00
2.229630542924283532e+00
2.235255714590899334e+00
2.235255714590899334e+00
2.235255714590899334e+00
2.237130771813104602e+00
2.237130771813104602e+00
2.237130771813104602e+00
2.237130771813104602e+00
2.219317728202154782e+00
2.219317728202154782e+00
2.219317728202154782e+00
2.204129764702292160e+00
2.204129764702292160e+00
2.204129764702292160e+00
2.245943540757469048e+00
2.245943540757469048e+00
2.245943540757469048e+00
2.245943540757469048e+00
2.282507156590471986e+00
2.282507156590471986e+00
2.282507156590471986e+00
2.277256996368297592e+00
2.277256996368297592e+00
2.277256996368297592e+00
2.277256996368297592e+00
2.308007934812463802e+00
2.308007934812463802e+00
2.308007934812463802e+00
2.314758140812402942e+00
2.314758140812402942e+00
2.314758140812402942e+00
2.314758140812402942e+00
2.261319009979552597e+00
2.261319009979552597e+00
2.261319009979552597e+00
2.244631000701926116e+00
2.244631000701926116e+00
2.244631000701926116e+00
2.251568712424085295e+00
2.251568712424085295e+00
2.251568712424085295e+00
2.251568712424085295e+00
2.261506515701773079e+00
2.261506515701773079e+00
2.261506515701773079e+00
2.255881344035157721e+00
2.255881344035157721e+00
2.255881344035157721e+00
2.255881344035157721e+00
2.235443220313119816e+00
2.235443220313119816e+00
2.235443220313119816e+00
2.244255989257484707e+00
2.244255989257484707e+00
2.244255989257484707e+00
2.227755485702078264e+00
2.227755485702078264e+00
2.227755485702078264e+00
2.227755485702078264e+00
2.230380565813165905e+00
2.230380565813165905e+00
2.230380565813165905e+00
2.270506790368358452e+00
2.270506790368358452e+00
2.270506790368358452e+00
2.270506790368358452e+00
2.293945005645924073e+00
2.293945005645924073e+00
2.293945005645924073e+00
2.286257271034882521e+00
2.286257271034882521e+00
2.286257271034882521e+00
2.293382488479262626e+00
2.293382488479262626e+00
2.293382488479262626e+00
2.293382488479262626e+00
2.261131504257332114e+00
2.261131504257332114e+00
2.261131504257332114e+00
2.235818231757560781e+00
2.235818231757560781e+00
2.235818231757560781e+00
2.236380748924222672e+00
2.236380748924222672e+00
2.236380748924222672e+00
2.236380748924222672e+00
2.234693197424237443e+00
2.234693197424237443e+00
2.234693197424237443e+00
2.244255989257484707e+00
2.244255989257484707e+00
2.244255989257484707e+00
2.244255989257484707e+00
2.255881344035157721e+00
2.255881344035157721e+00
2.255881344035157721e+00
2.252881252479629115e+00
2.252881252479629115e+00
2.252881252479629115e+00
2.240693380535294654e+00
2.240693380535294654e+00
2.240693380535294654e+00
2.240693380535294654e+00
2.216880153813287624e+00
2.216880153813287624e+00
2.216880153813287624e+00
2.230193060090945423e+00
2.230193060090945423e+00
2.230193060090945423e+00
2.230193060090945423e+00
2.275944456312753772e+00
2.275944456312753772e+00
2.275944456312753772e+00
2.293382488479262626e+00
2.293382488479262626e+00
2.293382488479262626e+00
2.293382488479262626e+00
2.306695394756919981e+00
2.306695394756919981e+00
2.306695394756919981e+00
2.325445966978973100e+00
2.325445966978973100e+00
2.325445966978973100e+00
2.295257545701467894e+00
2.295257545701467894e+00
2.295257545701467894e+00
2.295257545701467894e+00
2.266756675923947917e+00
2.266756675923947917e+00
2.266756675923947917e+00
2.261131504257332114e+00
2.261131504257332114e+00
2.261131504257332114e+00
2.261131504257332114e+00
2.244818506424146598e+00
2.244818506424146598e+00
2.244818506424146598e+00
2.235818231757560781e+00
2.235818231757560781e+00
2.235818231757560781e+00
2.229818048646504014e+00
2.229818048646504014e+00
2.229818048646504014e+00
2.229818048646504014e+00
2.235818231757560781e+00
2.235818231757560781e+00
2.235818231757560781e+00
2.231130588702047834e+00
2.231130588702047834e+00
2.231130588702047834e+00
2.231130588702047834e+00
2.220255256813257638e+00
2.220255256813257638e+00
2.220255256813257638e+00
2.234130680257575996e+00
2.234130680257575996e+00
2.234130680257575996e+00
2.234130680257575996e+00
2.264319101535081202e+00
2.264319101535081202e+00
2.264319101535081202e+00
2.274069399090548504e+00
2.274069399090548504e+00
2.274069399090548504e+00
2.307632923368022837e+00
2.307632923368022837e+00
2.307632923368022837e+00
2.307632923368022837e+00
2.314570635090182460e+00
2.314570635090182460e+00
2.314570635090182460e+00
2.279882076479384789e+00
2.279882076479384789e+00
2.279882076479384789e+00
2.279882076479384789e+00
2.255318826868495830e+00
2.255318826868495830e+00
2.255318826868495830e+00
2.260568987090670667e+00
2.260568987090670667e+00
2.260568987090670667e+00
2.246881069368571904e+00
2.246881069368571904e+00
2.246881069368571904e+00
2.246881069368571904e+00
2.247818597979674760e+00
2.247818597979674760e+00
2.247818597979674760e+00
2.238443311868648422e+00
2.238443311868648422e+00
2.238443311868648422e+00
2.238443311868648422e+00
2.238255806146427940e+00
2.238255806146427940e+00
2.238255806146427940e+00
2.223817865535447247e+00
2.223817865535447247e+00
2.223817865535447247e+00
2.210129947813348927e+00
2.210129947813348927e+00
2.210129947813348927e+00
2.210129947813348927e+00
2.252318735312967224e+00
2.252318735312967224e+00
2.252318735312967224e+00
2.285694753868221074e+00
2.285694753868221074e+00
2.285694753868221074e+00
2.285694753868221074e+00
2.296757591479232197e+00
2.296757591479232197e+00
2.296757591479232197e+00
2.316820703756828248e+00
2.316820703756828248e+00
2.316820703756828248e+00
2.303320291756950855e+00
2.303320291756950855e+00
2.303320291756950855e+00
2.303320291756950855e+00
2.292632465590380253e+00
2.292632465590380253e+00
2.292632465590380253e+00
2.255506332590716312e+00
2.255506332590716312e+00
2.255506332590716312e+00
2.255506332590716312e+00
2.230568071535386387e+00
2.230568071535386387e+00
2.230568071535386387e+00
2.239380840479750834e+00
2.239380840479750834e+00
2.239380840479750834e+00
2.239380840479750834e+00
2.221005279702139568e+00
2.221005279702139568e+00
2.221005279702139568e+00
2.211442487868892304e+00
2.211442487868892304e+00
2.211442487868892304e+00
2.215567613757744247e+00
2.215567613757744247e+00
2.215567613757744247e+00
2.215567613757744247e+00
2.200004638813440216e+00
2.200004638813440216e+00
2.200004638813440216e+00
2.205629810480056463e+00
2.205629810480056463e+00
2.205629810480056463e+00
2.205629810480056463e+00
2.248943632312997654e+00
2.248943632312997654e+00
2.248943632312997654e+00
2.287569811090426342e+00
2.287569811090426342e+00
2.287569811090426342e+00
2.308570451979125249e+00
2.308570451979125249e+00
2.308570451979125249e+00
2.308570451979125249e+00
2.330696127201147494e+00
2.330696127201147494e+00
2.330696127201147494e+00
2.326383495590075512e+00
2.326383495590075512e+00
2.326383495590075512e+00
2.326383495590075512e+00
2.292632465590380253e+00
2.292632465590380253e+00
2.292632465590380253e+00
2.266006653035065987e+00
2.266006653035065987e+00
2.266006653035065987e+00
2.266006653035065987e+00
2.262069032868434526e+00
2.262069032868434526e+00
2.262069032868434526e+00
2.260006469924008776e+00
2.260006469924008776e+00
2.260006469924008776e+00
2.250068666646320992e+00
2.250068666646320992e+00
2.250068666646320992e+00
2.250068666646320992e+00
2.233943174535355514e+00
2.233943174535355514e+00
2.233943174535355514e+00
2.227755485702078264e+00
2.227755485702078264e+00
2.227755485702078264e+00
2.227755485702078264e+00
2.202817224646748340e+00
2.202817224646748340e+00
2.202817224646748340e+00
2.211442487868892304e+00
2.211442487868892304e+00
2.211442487868892304e+00
2.238068300424207457e+00
2.238068300424207457e+00
2.238068300424207457e+00
2.238068300424207457e+00
2.258693929868464956e+00
2.258693929868464956e+00
2.258693929868464956e+00
2.307820429090243319e+00
2.307820429090243319e+00
2.307820429090243319e+00
2.307820429090243319e+00
2.331258644367808941e+00
2.331258644367808941e+00
2.331258644367808941e+00
2.321133335367900674e+00
2.321133335367900674e+00
2.321133335367900674e+00
2.321133335367900674e+00
2.296382580034791232e+00
2.296382580034791232e+00
2.296382580034791232e+00
2.280632099368266719e+00
2.280632099368266719e+00
2.280632099368266719e+00
2.240880886257515137e+00
2.240880886257515137e+00
2.240880886257515137e+00
2.240880886257515137e+00
2.226255439924313961e+00
2.226255439924313961e+00
2.226255439924313961e+00
2.228880520035401602e+00
2.228880520035401602e+00
2.228880520035401602e+00
2.228880520035401602e+00
2.218192693868831444e+00
2.218192693868831444e+00
2.218192693868831444e+00
2.210504959257789892e+00
2.210504959257789892e+00
2.210504959257789892e+00
2.202254707480086449e+00
2.202254707480086449e+00
2.202254707480086449e+00
2.202254707480086449e+00
2.217630176702169997e+00
2.217630176702169997e+00
2.217630176702169997e+00
2.243318460646382295e+00
2.243318460646382295e+00
2.243318460646382295e+00
2.243318460646382295e+00
2.278757042146061895e+00
2.278757042146061895e+00
2.278757042146061895e+00
2.319445783867915889e+00
2.319445783867915889e+00
2.319445783867915889e+00
2.299570177312540320e+00
2.299570177312540320e+00
2.299570177312540320e+00
2.299570177312540320e+00
2.289444868312631609e+00
2.289444868312631609e+00
2.289444868312631609e+00
2.269756767479476078e+00
2.269756767479476078e+00
2.269756767479476078e+00
2.247256080813012868e+00
2.247256080813012868e+00
2.247256080813012868e+00
2.247256080813012868e+00
2.243505966368602778e+00
2.243505966368602778e+00
2.243505966368602778e+00
2.246131046479689974e+00
2.246131046479689974e+00
2.246131046479689974e+00
2.246131046479689974e+00
2.246881069368571904e+00
2.246881069368571904e+00
2.246881069368571904e+00
2.252131229590746742e+00
2.252131229590746742e+00
2.252131229590746742e+00
2.252131229590746742e+00
2.241255897701956545e+00
2.241255897701956545e+00
2.241255897701956545e+00
2.208254890591143660e+00
2.208254890591143660e+00
2.208254890591143660e+00
2.244068483535264225e+00
2.244068483535264225e+00
2.244068483535264225e+00
2.244068483535264225e+00
2.285694753868221074e+00
2.285694753868221074e+00
2.285694753868221074e+00
2.300882717368083696e+00
2.300882717368083696e+00
2.300882717368083696e+00
2.300882717368083696e+00
2.327883541367839371e+00
2.327883541367839371e+00
2.327883541367839371e+00
2.308382946256904766e+00
2.308382946256904766e+00
2.308382946256904766e+00
2.308382946256904766e+00
2.266194158757286470e+00
2.266194158757286470e+00
2.266194158757286470e+00
2.233755668813135031e+00
2.233755668813135031e+00
2.233755668813135031e+00
2.222130314035462462e+00
2.222130314035462462e+00
2.222130314035462462e+00
2.222130314035462462e+00
2.248943632312997654e+00
2.248943632312997654e+00
2.248943632312997654e+00
2.253631275368511044e+00
2.253631275368511044e+00
2.253631275368511044e+00
2.253631275368511044e+00
2.250068666646320992e+00
2.250068666646320992e+00
2.250068666646320992e+00
2.246693563646351421e+00
2.246693563646351421e+00
2.246693563646351421e+00
2.205254799035615054e+00
2.205254799035615054e+00
2.205254799035615054e+00
2.205254799035615054e+00
2.232630634479812137e+00
2.232630634479812137e+00
2.232630634479812137e+00
2.242005920590838475e+00
2.242005920590838475e+00
2.242005920590838475e+00
2.242005920590838475e+00
2.268631733146153184e+00
2.268631733146153184e+00
2.268631733146153184e+00
2.314945646534623425e+00
2.314945646534623425e+00
2.314945646534623425e+00
2.314945646534623425e+00
2.332946195867793726e+00
2.332946195867793726e+00
2.332946195867793726e+00
2.306507889034699499e+00
2.306507889034699499e+00
2.306507889034699499e+00
2.279132053590502860e+00
2.279132053590502860e+00
2.279132053590502860e+00
2.279132053590502860e+00
2.269194250312814631e+00
2.269194250312814631e+00
2.269194250312814631e+00
2.243130954924161813e+00
2.243130954924161813e+00
2.243130954924161813e+00
2.243130954924161813e+00
2.234693197424237443e+00
2.234693197424237443e+00
2.234693197424237443e+00
2.224192876979888212e+00
2.224192876979888212e+00
2.224192876979888212e+00
2.207129856257820322e+00
2.207129856257820322e+00
2.207129856257820322e+00
2.207129856257820322e+00
2.228318002868740155e+00
2.228318002868740155e+00
2.228318002868740155e+00
2.199817133091219734e+00
2.199817133091219734e+00
2.199817133091219734e+00
2.199817133091219734e+00
2.230943082979827352e+00
2.230943082979827352e+00
2.230943082979827352e+00
2.280632099368266719e+00
2.280632099368266719e+00
2.280632099368266719e+00
2.282882168034912951e+00
2.282882168034912951e+00
2.282882168034912951e+00
2.282882168034912951e+00
2.303882808923612302e+00
2.303882808923612302e+00
2.303882808923612302e+00
2.317195715201269657e+00
2.317195715201269657e+00
2.317195715201269657e+00
2.317195715201269657e+00
2.309507980590228104e+00
2.309507980590228104e+00
2.309507980590228104e+00
2.280069582201605716e+00
2.280069582201605716e+00
2.280069582201605716e+00
2.280069582201605716e+00
2.253443769646290562e+00
2.253443769646290562e+00
2.253443769646290562e+00
2.224755394146549659e+00
2.224755394146549659e+00
2.224755394146549659e+00
2.236380748924222672e+00
2.236380748924222672e+00
2.236380748924222672e+00
2.236380748924222672e+00
2.232818140202032620e+00
2.232818140202032620e+00
2.232818140202032620e+00
2.222505325479903426e+00
2.222505325479903426e+00
2.222505325479903426e+00
2.222505325479903426e+00
2.217442670979949515e+00
2.217442670979949515e+00
2.217442670979949515e+00
2.217067659535508550e+00
2.217067659535508550e+00
2.217067659535508550e+00
2.266006653035065987e+00
2.266006653035065987e+00
2.266006653035065987e+00
2.266006653035065987e+00
2.288882351145970162e+00
2.288882351145970162e+00
2.288882351145970162e+00
2.284944730979339145e+00
2.284944730979339145e+00
2.284944730979339145e+00
2.284944730979339145e+00
2.299757683034760802e+00
2.299757683034760802e+00
2.299757683034760802e+00
2.295820062868129341e+00
2.295820062868129341e+00
2.295820062868129341e+00
2.264506607257301685e+00
2.264506607257301685e+00
2.264506607257301685e+00
2.264506607257301685e+00
2.263006561479537382e+00
2.263006561479537382e+00
2.263006561479537382e+00
2.260943998535111632e+00
2.260943998535111632e+00
2.260943998535111632e+00
2.260943998535111632e+00
2.225505417035432032e+00
2.225505417035432032e+00
2.225505417035432032e+00
2.215755119479964730e+00
2.215755119479964730e+00
2.215755119479964730e+00
2.235068208868678852e+00
2.235068208868678852e+00
2.235068208868678852e+00
2.235068208868678852e+00
2.239568346201971760e+00
2.239568346201971760e+00
2.239568346201971760e+00
2.220442762535478121e+00
2.220442762535478121e+00
2.220442762535478121e+00
2.220442762535478121e+00
2.233193151646474028e+00
2.233193151646474028e+00
2.233193151646474028e+00
2.276506973479415219e+00
2.276506973479415219e+00
2.276506973479415219e+00
2.276506973479415219e+00
2.290569902645954947e+00
2.290569902645954947e+00
2.290569902645954947e+00
2.316633198034607766e+00
2.316633198034607766e+00
2.316633198034607766e+00
2.334446241645558029e+00
2.334446241645558029e+00
2.334446241645558029e+00
2.334446241645558029e+00
2.305195348979155678e+00
2.305195348979155678e+00
2.305195348979155678e+00
2.277069490646077110e+00
2.277069490646077110e+00
2.277069490646077110e+00
2.277069490646077110e+00
2.244255989257484707e+00
2.244255989257484707e+00
2.244255989257484707e+00
2.228693014313181120e+00
2.228693014313181120e+00
2.228693014313181120e+00
2.228693014313181120e+00
2.237130771813104602e+00
2.237130771813104602e+00
2.237130771813104602e+00
2.227755485702078264e+00
2.227755485702078264e+00
2.227755485702078264e+00
2.215380108035523765e+00
2.215380108035523765e+00
2.215380108035523765e+00
2.215380108035523765e+00
2.225880428479872997e+00
2.225880428479872997e+00
2.225880428479872997e+00
2.214817590868861874e+00
2.214817590868861874e+00
2.214817590868861874e+00
2.214817590868861874e+00
2.254943815424054865e+00
2.254943815424054865e+00
2.254943815424054865e+00
2.281757133701590057e+00
2.281757133701590057e+00
2.281757133701590057e+00
2.281757133701590057e+00
2.265069124423963132e+00
2.265069124423963132e+00
2.265069124423963132e+00
2.275944456312753772e+00
2.275944456312753772e+00
2.275944456312753772e+00
2.312508072145756710e+00
2.312508072145756710e+00
2.312508072145756710e+00
2.312508072145756710e+00
2.296007568590349823e+00
2.296007568590349823e+00
2.296007568590349823e+00
2.268819238868374111e+00
2.268819238868374111e+00
2.268819238868374111e+00
2.251381206701864812e+00
2.251381206701864812e+00
2.251381206701864812e+00
2.251381206701864812e+00
2.242755943479720404e+00
2.242755943479720404e+00
2.242755943479720404e+00
2.256443861201819168e+00
2.256443861201819168e+00
2.256443861201819168e+00
2.256443861201819168e+00
2.242568437757499922e+00
2.242568437757499922e+00
2.242568437757499922e+00
2.216130130924405695e+00
2.216130130924405695e+00
2.216130130924405695e+00
2.216130130924405695e+00
2.229818048646504014e+00
2.229818048646504014e+00
2.229818048646504014e+00
2.198129581591235393e+00
2.198129581591235393e+00
2.198129581591235393e+00
2.253068758201849597e+00
2.253068758201849597e+00
2.253068758201849597e+00
2.253068758201849597e+00
2.289069856868190644e+00
2.289069856868190644e+00
2.289069856868190644e+00
2.300507705923642732e+00
2.300507705923642732e+00
2.300507705923642732e+00
2.300507705923642732e+00
2.308945463423566213e+00
2.308945463423566213e+00
2.308945463423566213e+00
2.307820429090243319e+00
2.307820429090243319e+00
2.307820429090243319e+00
2.307820429090243319e+00
2.297132602923673161e+00
2.297132602923673161e+00
2.297132602923673161e+00
2.284569719534897736e+00
2.284569719534897736e+00
2.284569719534897736e+00
2.261881527146214044e+00
2.261881527146214044e+00
2.261881527146214044e+00
2.261881527146214044e+00
2.251943723868526259e+00
2.251943723868526259e+00
2.251943723868526259e+00
2.229255531479842567e+00
2.229255531479842567e+00
2.229255531479842567e+00
2.229255531479842567e+00
2.219880245368816230e+00
2.219880245368816230e+00
2.219880245368816230e+00
2.201879696035645484e+00
2.201879696035645484e+00
2.201879696035645484e+00
2.191941892757957699e+00
2.191941892757957699e+00
2.191941892757957699e+00
2.191941892757957699e+00
2.214442579424420909e+00
2.214442579424420909e+00
2.214442579424420909e+00
2.266381664479506952e+00
2.266381664479506952e+00
2.266381664479506952e+00
2.266381664479506952e+00
2.294695028534806447e+00
2.294695028534806447e+00
2.294695028534806447e+00
2.290007385479293500e+00
2.290007385479293500e+00
2.290007385479293500e+00
2.290007385479293500e+00
2.319820795312356854e+00
2.319820795312356854e+00
2.319820795312356854e+00
2.295820062868129341e+00
2.295820062868129341e+00
2.295820062868129341e+00
2.268631733146153184e+00
2.268631733146153184e+00
2.268631733146153184e+00
2.268631733146153184e+00
2.263944090090640238e+00
2.263944090090640238e+00
2.263944090090640238e+00
2.245381023590808045e+00
2.245381023590808045e+00
2.245381023590808045e+00
2.245381023590808045e+00
2.259818964201788294e+00
2.259818964201788294e+00
2.259818964201788294e+00
2.243130954924161813e+00
2.243130954924161813e+00
2.243130954924161813e+00
2.245006012146367080e+00
2.245006012146367080e+00
2.245006012146367080e+00
2.245006012146367080e+00
2.249881160924100509e+00
2.249881160924100509e+00
2.249881160924100509e+00
2.237505783257545566e+00
2.237505783257545566e+00
2.237505783257545566e+00
2.237505783257545566e+00
2.250068666646320992e+00
2.250068666646320992e+00
2.250068666646320992e+00
2.243880977813043742e+00
2.243880977813043742e+00
2.243880977813043742e+00
2.245381023590808045e+00
2.245381023590808045e+00
2.245381023590808045e+00
2.245381023590808045e+00
2.294695028534806447e+00
2.294695028534806447e+00
2.294695028534806447e+00
2.326946012756737403e+00
2.326946012756737403e+00
2.326946012756737403e+00
2.326946012756737403e+00
2.290757408368175430e+00
2.290757408368175430e+00
2.290757408368175430e+00
2.240880886257515137e+00
2.240880886257515137e+00
2.240880886257515137e+00
2.237505783257545566e+00
2.237505783257545566e+00
2.237505783257545566e+00
2.237505783257545566e+00
2.218192693868831444e+00
2.218192693868831444e+00
2.218192693868831444e+00
2.246693563646351421e+00
2.246693563646351421e+00
2.246693563646351421e+00
2.246693563646351421e+00
2.249131138035218136e+00
2.249131138035218136e+00
2.249131138035218136e+00
2.252131229590746742e+00
2.252131229590746742e+00
2.252131229590746742e+00
2.212380016479995160e+00
2.212380016479995160e+00
2.212380016479995160e+00
2.212380016479995160e+00
2.202254707480086449e+00
2.202254707480086449e+00
2.202254707480086449e+00
2.229818048646504014e+00
2.229818048646504014e+00
2.229818048646504014e+00
2.229818048646504014e+00
2.264319101535081202e+00
2.264319101535081202e+00
2.264319101535081202e+00
2.306695394756919981e+00
2.306695394756919981e+00
2.306695394756919981e+00
2.306695394756919981e+00
2.321133335367900674e+00
2.321133335367900674e+00
2.321133335367900674e+00
2.317008209479048730e+00
2.317008209479048730e+00
2.317008209479048730e+00
2.280257087923826198e+00
2.280257087923826198e+00
2.280257087923826198e+00
2.280257087923826198e+00
2.266194158757286470e+00
2.266194158757286470e+00
2.266194158757286470e+00
2.272569353312784202e+00
2.272569353312784202e+00
2.272569353312784202e+00
2.272569353312784202e+00
2.251756218146305777e+00
2.251756218146305777e+00
2.251756218146305777e+00
2.263756584368419311e+00
2.263756584368419311e+00
2.263756584368419311e+00
2.234880703146458369e+00
2.234880703146458369e+00
2.234880703146458369e+00
2.234880703146458369e+00
2.220067751091036712e+00
2.220067751091036712e+00
2.220067751091036712e+00
2.236380748924222672e+00
2.236380748924222672e+00
2.236380748924222672e+00
2.236380748924222672e+00
2.230568071535386387e+00
2.230568071535386387e+00
2.230568071535386387e+00
2.262631550035096417e+00
2.262631550035096417e+00
2.262631550035096417e+00
2.280819605090487201e+00
2.280819605090487201e+00
2.280819605090487201e+00
2.280819605090487201e+00
2.254193792535172935e+00
2.254193792535172935e+00
2.254193792535172935e+00
2.279694570757164307e+00
2.279694570757164307e+00
2.279694570757164307e+00
2.279694570757164307e+00
2.276881984923856628e+00
2.276881984923856628e+00
2.276881984923856628e+00
2.261506515701773079e+00
2.261506515701773079e+00
2.261506515701773079e+00
2.261506515701773079e+00
2.261319009979552597e+00
2.261319009979552597e+00
2.261319009979552597e+00
2.250256172368541474e+00
2.250256172368541474e+00
2.250256172368541474e+00
2.244255989257484707e+00
2.244255989257484707e+00
2.244255989257484707e+00
2.244255989257484707e+00
2.253443769646290562e+00
2.253443769646290562e+00
2.253443769646290562e+00
2.254568803979613900e+00
2.254568803979613900e+00
2.254568803979613900e+00
2.254568803979613900e+00
2.273319376201666131e+00
2.273319376201666131e+00
2.273319376201666131e+00
2.252693746757408633e+00
2.252693746757408633e+00
2.252693746757408633e+00
2.221755302591021497e+00
2.221755302591021497e+00
2.221755302591021497e+00
2.221755302591021497e+00
2.240880886257515137e+00
2.240880886257515137e+00
2.240880886257515137e+00
2.264131595812860720e+00
2.264131595812860720e+00
2.264131595812860720e+00
2.264131595812860720e+00
2.287194799645985377e+00
2.287194799645985377e+00
2.296757591479232197e+00
2.296757591479232197e+00
2.296757591479232197e+00
2.277444502090518075e+00
2.277444502090518075e+00
2.277444502090518075e+00
2.278569536423841413e+00
2.278569536423841413e+00
2.278569536423841413e+00
2.291694936979278285e+00
2.291694936979278285e+00
2.291694936979278285e+00
2.291694936979278285e+00
2.281007110812707683e+00
2.281007110812707683e+00
2.281007110812707683e+00
2.235818231757560781e+00
2.235818231757560781e+00
2.235818231757560781e+00
2.235818231757560781e+00
2.213880062257759462e+00
2.213880062257759462e+00
2.213880062257759462e+00
2.203567247535630269e+00
2.203567247535630269e+00
2.203567247535630269e+00
2.194004455702383449e+00
2.194004455702383449e+00
2.194004455702383449e+00
2.194004455702383449e+00
2.220817773979919085e+00
2.220817773979919085e+00
2.220817773979919085e+00
2.248006103701895242e+00
2.248006103701895242e+00
2.248006103701895242e+00
2.248006103701895242e+00
2.278382030701620931e+00
2.278382030701620931e+00
2.278382030701620931e+00
2.280632099368266719e+00
2.280632099368266719e+00
2.280632099368266719e+00
2.280632099368266719e+00
2.316633198034607766e+00
2.316633198034607766e+00
2.316633198034607766e+00
2.346821619312112972e+00
2.346821619312112972e+00
2.346821619312112972e+00
2.328633564256721744e+00
2.328633564256721744e+00
2.328633564256721744e+00
2.328633564256721744e+00
2.272569353312784202e+00
2.272569353312784202e+00
2.272569353312784202e+00
2.231693105868709726e+00
2.231693105868709726e+00
2.231693105868709726e+00
2.231693105868709726e+00
2.225317911313211550e+00
2.225317911313211550e+00
2.225317911313211550e+00
2.213505050813318054e+00
2.213505050813318054e+00
2.213505050813318054e+00
2.206567339091158875e+00
2.206567339091158875e+00
2.206567339091158875e+00
2.206567339091158875e+00
2.229630542924283532e+00
2.229630542924283532e+00
2.229630542924283532e+00
2.230193060090945423e+00
2.230193060090945423e+00
2.230193060090945423e+00
2.230193060090945423e+00
2.205442304757835537e+00
2.205442304757835537e+00
2.205442304757835537e+00
2.259443952757347329e+00
2.259443952757347329e+00
2.259443952757347329e+00
2.259443952757347329e+00
2.305007843256935196e+00
2.305007843256935196e+00
2.305007843256935196e+00
2.292819971312600735e+00
2.292819971312600735e+00
2.292819971312600735e+00
2.307820429090243319e+00
2.307820429090243319e+00
2.307820429090243319e+00
2.307820429090243319e+00
2.281944639423810539e+00
2.281944639423810539e+00
2.281944639423810539e+00
2.272006836146122755e+00
2.272006836146122755e+00
2.272006836146122755e+00
2.272006836146122755e+00
2.277632007812738557e+00
2.277632007812738557e+00
2.277632007812738557e+00
2.289444868312631609e+00
2.289444868312631609e+00
2.289444868312631609e+00
2.285132236701559627e+00
2.285132236701559627e+00
2.285132236701559627e+00
2.285132236701559627e+00
2.245568529313028083e+00
2.245568529313028083e+00
2.220255256813257638e+00
2.220255256813257638e+00
2.220255256813257638e+00
2.186691732535783306e+00
2.186691732535783306e+00
2.186691732535783306e+00
2.186691732535783306e+00
2.183691640980254700e+00
2.183691640980254700e+00
2.183691640980254700e+00
2.218005188146610962e+00
2.218005188146610962e+00
2.218005188146610962e+00
2.218005188146610962e+00
2.237505783257545566e+00
2.237505783257545566e+00
2.237505783257545566e+00
2.280257087923826198e+00
2.280257087923826198e+00
2.280257087923826198e+00
2.292632465590380253e+00
2.292632465590380253e+00
2.292632465590380253e+00
2.292632465590380253e+00
2.303695303201391820e+00
2.303695303201391820e+00
2.303695303201391820e+00
2.326758507034516477e+00
2.326758507034516477e+00
2.326758507034516477e+00
2.288882351145970162e+00
2.288882351145970162e+00
2.288882351145970162e+00
2.288882351145970162e+00
2.260756492812891150e+00
2.260756492812891150e+00
2.260756492812891150e+00
2.267506698812830290e+00
2.267506698812830290e+00
2.267506698812830290e+00
2.267506698812830290e+00
2.257006378368480615e+00
2.257006378368480615e+00
2.257006378368480615e+00
2.242755943479720404e+00
2.242755943479720404e+00
2.242755943479720404e+00
2.214255073702200427e+00
2.214255073702200427e+00
2.214255073702200427e+00
2.214255073702200427e+00
2.182941618091372327e+00
2.182941618091372327e+00
2.182941618091372327e+00
2.186129215369121415e+00
2.186129215369121415e+00
2.186129215369121415e+00
2.186129215369121415e+00
2.231318094424268317e+00
2.231318094424268317e+00
2.231318094424268317e+00
2.260943998535111632e+00
2.260943998535111632e+00
2.260943998535111632e+00
2.263381572923978347e+00
2.263381572923978347e+00
2.263381572923978347e+00
2.263381572923978347e+00
2.294695028534806447e+00
2.294695028534806447e+00
2.294695028534806447e+00
2.365197180089724238e+00
2.365197180089724238e+00
2.365197180089724238e+00
2.365197180089724238e+00
2.363697134311959935e+00
2.363697134311959935e+00
2.363697134311959935e+00
2.268631733146153184e+00
2.268631733146153184e+00
2.268631733146153184e+00
2.268631733146153184e+00
2.264319101535081202e+00
2.264319101535081202e+00
2.264319101535081202e+00
2.257381389812921579e+00
2.257381389812921579e+00
2.257381389812921579e+00
2.276881984923856628e+00
2.276881984923856628e+00
2.276881984923856628e+00
2.276881984923856628e+00
2.209379924924466998e+00
2.209379924924466998e+00
2.209379924924466998e+00
2.179379009369182274e+00
2.179379009369182274e+00
2.179379009369182274e+00
2.179379009369182274e+00
2.226817957090975852e+00
2.226817957090975852e+00
2.226817957090975852e+00
2.212192510757774677e+00
2.212192510757774677e+00
2.212192510757774677e+00
2.219880245368816230e+00
2.219880245368816230e+00
2.219880245368816230e+00
2.219880245368816230e+00
2.265819147312845505e+00
2.265819147312845505e+00
2.265819147312845505e+00
2.289819879757073018e+00
2.289819879757073018e+00
2.289819879757073018e+00
2.289819879757073018e+00
2.304257820368053267e+00
2.304257820368053267e+00
2.304257820368053267e+00
2.284194708090456771e+00
2.284194708090456771e+00
2.284194708090456771e+00
2.284194708090456771e+00
2.274444410534989469e+00
2.274444410534989469e+00
2.274444410534989469e+00
2.283632190923795324e+00
2.283632190923795324e+00
2.283632190923795324e+00
2.259068941312906365e+00
2.259068941312906365e+00
2.259068941312906365e+00
2.259068941312906365e+00
2.261131504257332114e+00
2.261131504257332114e+00
2.261131504257332114e+00
2.246131046479689974e+00
2.246131046479689974e+00
2.246131046479689974e+00
2.246131046479689974e+00
2.261319009979552597e+00
2.261319009979552597e+00
2.261319009979552597e+00
2.261506515701773079e+00
2.261506515701773079e+00
2.261506515701773079e+00
2.212567522202215642e+00
2.212567522202215642e+00
2.212567522202215642e+00
2.212567522202215642e+00
2.208629902035584625e+00
2.208629902035584625e+00
2.208629902035584625e+00
2.268256721701712220e+00
2.268256721701712220e+00
2.268256721701712220e+00
2.268256721701712220e+00
2.293757499923703591e+00
2.293757499923703591e+00
2.293757499923703591e+00
2.281007110812707683e+00
2.281007110812707683e+00
2.281007110812707683e+00
2.297507614368114126e+00
2.297507614368114126e+00
2.297507614368114126e+00
2.297507614368114126e+00
2.291694936979278285e+00
2.291694936979278285e+00
2.291694936979278285e+00
2.275756950590533290e+00
2.275756950590533290e+00
2.275756950590533290e+00
2.275756950590533290e+00
2.235255714590899334e+00
2.235255714590899334e+00
2.235255714590899334e+00
2.240505874813074172e+00
2.240505874813074172e+00
2.240505874813074172e+00
2.233193151646474028e+00
2.233193151646474028e+00
2.233193151646474028e+00
2.233193151646474028e+00
2.224942899868770141e+00
2.224942899868770141e+00
2.224942899868770141e+00
2.228880520035401602e+00
2.228880520035401602e+00
2.228880520035401602e+00
2.228880520035401602e+00
2.226630451368755370e+00
2.226630451368755370e+00
2.226630451368755370e+00
2.229255531479842567e+00
2.229255531479842567e+00
2.229255531479842567e+00
2.273694387646107540e+00
2.273694387646107540e+00
2.273694387646107540e+00
2.273694387646107540e+00
2.258131412701803509e+00
2.258131412701803509e+00
2.258131412701803509e+00
2.246131046479689974e+00
2.246131046479689974e+00
2.246131046479689974e+00
2.246131046479689974e+00
2.296570085757011714e+00
2.296570085757011714e+00
2.296570085757011714e+00
2.335946287423322332e+00
2.335946287423322332e+00
2.335946287423322332e+00
2.317570726645710621e+00
2.317570726645710621e+00
2.317570726645710621e+00
2.317570726645710621e+00
2.294695028534806447e+00
2.294695028534806447e+00
2.294695028534806447e+00
2.232630634479812137e+00
2.232630634479812137e+00
2.232630634479812137e+00
2.232630634479812137e+00
2.261131504257332114e+00
2.261131504257332114e+00
2.261131504257332114e+00
2.265819147312845505e+00
2.265819147312845505e+00
2.265819147312845505e+00
2.265819147312845505e+00
2.240130863368633207e+00
2.240130863368633207e+00
2.240130863368633207e+00
2.221192785424360050e+00
2.221192785424360050e+00
2.221192785424360050e+00
2.177691457869197489e+00
2.177691457869197489e+00
2.177691457869197489e+00
2.177691457869197489e+00
2.179566515091402756e+00
2.179566515091402756e+00
2.179566515091402756e+00
2.219317728202154782e+00
2.219317728202154782e+00
2.219317728202154782e+00
2.219317728202154782e+00
2.275194433423871843e+00
2.275194433423871843e+00
2.275194433423871843e+00
2.297507614368114126e+00
2.297507614368114126e+00
2.297507614368114126e+00
2.340446424756614796e+00
2.340446424756614796e+00
2.340446424756614796e+00
2.340446424756614796e+00
2.352259285256507848e+00
2.352259285256507848e+00
2.352259285256507848e+00
2.316633198034607766e+00
2.316633198034607766e+00
2.316633198034607766e+00
2.316633198034607766e+00
2.304632831812494231e+00
2.304632831812494231e+00
2.304632831812494231e+00
2.316445692312387283e+00
2.316445692312387283e+00
2.316445692312387283e+00
2.316445692312387283e+00
2.219505233924375265e+00
2.219505233924375265e+00
2.219505233924375265e+00
2.180316537980285130e+00
2.180316537980285130e+00
2.180316537980285130e+00
2.162691000091555793e+00
2.162691000091555793e+00
2.162691000091555793e+00
2.162691000091555793e+00
2.165128574480422063e+00
2.165128574480422063e+00
2.165128574480422063e+00
2.191754387035737217e+00
2.191754387035737217e+00
2.191754387035737217e+00
2.191754387035737217e+00
2.208817407757805107e+00
2.208817407757805107e+00
2.208817407757805107e+00
2.251381206701864812e+00
2.251381206701864812e+00
2.251381206701864812e+00
2.251381206701864812e+00
2.321133335367900674e+00
2.321133335367900674e+00
2.321133335367900674e+00
2.333883724478896582e+00
2.333883724478896582e+00
2.333883724478896582e+00
2.341758964812158617e+00
2.341758964812158617e+00
2.341758964812158617e+00
2.341758964812158617e+00
2.335946287423322332e+00
2.335946287423322332e+00
2.335946287423322332e+00
2.292444959868159771e+00
2.292444959868159771e+00
2.292444959868159771e+00
2.292444959868159771e+00
2.272006836146122755e+00
2.272006836146122755e+00
2.272006836146122755e+00
2.241443403424177028e+00
2.241443403424177028e+00
2.241443403424177028e+00
2.222880336924344391e+00
2.222880336924344391e+00
2.222880336924344391e+00
2.222880336924344391e+00
2.200192144535660699e+00
2.200192144535660699e+00
2.200192144535660699e+00
2.167378643147068740e+00
2.167378643147068740e+00
2.167378643147068740e+00
2.167378643147068740e+00
2.222692831202123909e+00
2.222692831202123909e+00
2.222692831202123909e+00
2.272194341868343237e+00
2.272194341868343237e+00
2.272194341868343237e+00
2.272194341868343237e+00
2.237693288979766049e+00
2.237693288979766049e+00
2.237693288979766049e+00
2.237693288979766049e+00
2.237693288979766049e+00
2.237693288979766049e+00
2.292257454145939732e+00
2.292257454145939732e+00
2.292257454145939732e+00
2.292257454145939732e+00
2.309695486312448587e+00
2.309695486312448587e+00
2.309695486312448587e+00
2.325445966978973100e+00
2.325445966978973100e+00
2.325445966978973100e+00
2.325445966978973100e+00
2.284382213812677254e+00
2.284382213812677254e+00
2.284382213812677254e+00
2.265069124423963132e+00
2.265069124423963132e+00
2.265069124423963132e+00
2.232068117313150690e+00
2.232068117313150690e+00
2.232068117313150690e+00
2.232068117313150690e+00
2.242193426313058957e+00
2.242193426313058957e+00
2.242193426313058957e+00
2.265631641590625023e+00
2.265631641590625023e+00
2.265631641590625023e+00
2.265631641590625023e+00
2.242568437757499922e+00
2.242568437757499922e+00
2.242568437757499922e+00
2.243880977813043742e+00
2.243880977813043742e+00
2.243880977813043742e+00
2.243880977813043742e+00
2.269944273201696561e+00
2.269944273201696561e+00
2.269944273201696561e+00
2.242755943479720404e+00
2.242755943479720404e+00
2.242755943479720404e+00
2.237880794701986531e+00
2.237880794701986531e+00
2.237880794701986531e+00
2.237880794701986531e+00
2.280632099368266719e+00
2.280632099368266719e+00
2.280632099368266719e+00
2.280257087923826198e+00
2.280257087923826198e+00
2.280257087923826198e+00
2.280257087923826198e+00
2.311195532090212890e+00
2.311195532090212890e+00
2.311195532090212890e+00
2.293382488479262626e+00
2.293382488479262626e+00
2.293382488479262626e+00
2.262444044312875935e+00
2.262444044312875935e+00
2.262444044312875935e+00
2.262444044312875935e+00
2.298820154423657947e+00
2.298820154423657947e+00
2.298820154423657947e+00
2.203192236091189304e+00
2.203192236091189304e+00
2.203192236091189304e+00
2.203192236091189304e+00
2.205442304757835537e+00
2.205442304757835537e+00
2.205442304757835537e+00
2.236380748924222672e+00
2.236380748924222672e+00
2.236380748924222672e+00
2.236380748924222672e+00
2.245381023590808045e+00
2.245381023590808045e+00
2.245381023590808045e+00
2.208067384868923178e+00
2.208067384868923178e+00
2.208067384868923178e+00
2.211629993591112786e+00
2.211629993591112786e+00
2.211629993591112786e+00
2.211629993591112786e+00
2.206379833368938392e+00
2.206379833368938392e+00
2.206379833368938392e+00
2.236193243202001746e+00
2.236193243202001746e+00
2.236193243202001746e+00
2.236193243202001746e+00
2.278382030701620931e+00
2.278382030701620931e+00
2.278382030701620931e+00
2.325820978423414065e+00
2.325820978423414065e+00
2.325820978423414065e+00
2.346634113589892490e+00
2.346634113589892490e+00
2.346634113589892490e+00
2.346634113589892490e+00
2.361072054200873183e+00
2.361072054200873183e+00
2.361072054200873183e+00
2.298070131534776017e+00
2.298070131534776017e+00
2.298070131534776017e+00
2.298070131534776017e+00
2.276506973479415219e+00
2.276506973479415219e+00
2.276506973479415219e+00
2.236193243202001746e+00
2.236193243202001746e+00
2.236193243202001746e+00
2.211817499313333268e+00
2.211817499313333268e+00
2.211817499313333268e+00
2.211817499313333268e+00
2.205254799035615054e+00
2.205254799035615054e+00
2.205254799035615054e+00
2.186504226813562823e+00
2.186504226813562823e+00
2.186504226813562823e+00
2.186504226813562823e+00
2.182941618091372327e+00
2.182941618091372327e+00
2.182941618091372327e+00
2.206567339091158875e+00
2.206567339091158875e+00
2.206567339091158875e+00
2.272006836146122755e+00
2.272006836146122755e+00
2.272006836146122755e+00
2.272006836146122755e+00
2.322445875423444495e+00
2.322445875423444495e+00
2.322445875423444495e+00
2.336133793145542814e+00
2.336133793145542814e+00
2.336133793145542814e+00
2.336133793145542814e+00
2.329196081423383191e+00
2.329196081423383191e+00
2.329196081423383191e+00
2.349446699423200169e+00
2.349446699423200169e+00
2.349446699423200169e+00
2.275569444868312807e+00
2.275569444868312807e+00
2.275569444868312807e+00
2.275569444868312807e+00
2.219130222479934300e+00
2.219130222479934300e+00
2.219130222479934300e+00
2.258693929868464956e+00
2.258693929868464956e+00
2.258693929868464956e+00
2.258693929868464956e+00
2.244255989257484707e+00
2.244255989257484707e+00
2.244255989257484707e+00
2.254943815424054865e+00
2.254943815424054865e+00
2.254943815424054865e+00
2.254943815424054865e+00
2.254193792535172935e+00
2.254193792535172935e+00
2.254193792535172935e+00
2.219692739646595747e+00
2.219692739646595747e+00
2.219692739646595747e+00
2.230380565813165905e+00
2.230380565813165905e+00
2.230380565813165905e+00
2.230380565813165905e+00
2.208067384868923178e+00
2.208067384868923178e+00
2.208067384868923178e+00
2.199254615924558287e+00
2.199254615924558287e+00
2.199254615924558287e+00
2.199254615924558287e+00
2.222317819757682944e+00
2.222317819757682944e+00
2.222317819757682944e+00
2.270694296090578934e+00
2.270694296090578934e+00
2.270694296090578934e+00
2.305757866145817125e+00
2.305757866145817125e+00
2.305757866145817125e+00
2.305757866145817125e+00
2.362572099978637485e+00
2.362572099978637485e+00
2.362572099978637485e+00
2.365197180089724238e+00
2.365197180089724238e+00
2.365197180089724238e+00
2.365197180089724238e+00
2.335383770256660885e+00
2.335383770256660885e+00
2.335383770256660885e+00
2.297507614368114126e+00
2.297507614368114126e+00
2.297507614368114126e+00
2.250443678090761956e+00
2.250443678090761956e+00
2.250443678090761956e+00
2.250443678090761956e+00
2.230005554368724940e+00
2.230005554368724940e+00
2.230005554368724940e+00
2.239755851924192243e+00
2.239755851924192243e+00
2.239755851924192243e+00
2.239755851924192243e+00
2.189691824091311467e+00
2.189691824091311467e+00
2.189691824091311467e+00
2.177316446424756524e+00
2.177316446424756524e+00
2.177316446424756524e+00
2.143190404980620745e+00
2.143190404980620745e+00
2.143190404980620745e+00
2.143190404980620745e+00
2.173003814813684542e+00
2.173003814813684542e+00
2.173003814813684542e+00
2.246131046479689974e+00
2.246131046479689974e+00
2.246131046479689974e+00
2.246131046479689974e+00
2.249318643757439062e+00
2.249318643757439062e+00
2.249318643757439062e+00
2.300882717368083696e+00
2.300882717368083696e+00
2.300882717368083696e+00
2.344196539201025331e+00
2.344196539201025331e+00
2.344196539201025331e+00
2.344196539201025331e+00
2.350759239478743989e+00
2.350759239478743989e+00
2.350759239478743989e+00
2.331633655812249906e+00
2.331633655812249906e+00
2.331633655812249906e+00
2.331633655812249906e+00
2.233755668813135031e+00
2.233755668813135031e+00
2.233755668813135031e+00
2.210504959257789892e+00
2.210504959257789892e+00
2.210504959257789892e+00
2.257381389812921579e+00
2.257381389812921579e+00
2.257381389812921579e+00
2.257381389812921579e+00
2.261694021423993561e+00
2.261694021423993561e+00
2.261694021423993561e+00
2.233943174535355514e+00
2.233943174535355514e+00
2.233943174535355514e+00
2.233943174535355514e+00
2.219880245368816230e+00
2.219880245368816230e+00
2.219880245368816230e+00
2.177691457869197489e+00
2.177691457869197489e+00
2.177691457869197489e+00
2.207317361980041248e+00
2.207317361980041248e+00
2.207317361980041248e+00
2.207317361980041248e+00
2.267319193090609808e+00
2.267319193090609808e+00
2.267319193090609808e+00
2.311195532090212890e+00
2.311195532090212890e+00
2.311195532090212890e+00
2.311195532090212890e+00
2.359196996978667915e+00
2.359196996978667915e+00
2.359196996978667915e+00
2.305757866145817125e+00
2.305757866145817125e+00
2.305757866145817125e+00
2.297507614368114126e+00
2.297507614368114126e+00
2.297507614368114126e+00
2.297507614368114126e+00
2.285694753868221074e+00
2.285694753868221074e+00
2.285694753868221074e+00
2.293007477034821662e+00
2.293007477034821662e+00
2.293007477034821662e+00
2.293007477034821662e+00
2.223067842646564873e+00
2.223067842646564873e+00
2.223067842646564873e+00
2.199817133091219734e+00
2.199817133091219734e+00
2.199817133091219734e+00
2.199817133091219734e+00
2.213692556535538980e+00
2.213692556535538980e+00
2.213692556535538980e+00
2.254568803979613900e+00
2.254568803979613900e+00
2.254568803979613900e+00
2.253818781090731527e+00
2.253818781090731527e+00
2.253818781090731527e+00
2.253818781090731527e+00
2.223255348368785356e+00
2.223255348368785356e+00
2.223255348368785356e+00
2.215380108035523765e+00
2.264506607257301685e+00
2.264506607257301685e+00
2.329571092867824156e+00
2.329571092867824156e+00
2.350009216589862060e+00
2.333508713034455617e+00
2.333508713034455617e+00
2.307445417645802355e+00
2.307445417645802355e+00
2.245381023590808045e+00
2.188941801202429094e+00
2.188941801202429094e+00
2.215942625202185212e+00
2.216505142368846659e+00
2.216505142368846659e+00
2.188941801202429094e+00
2.188941801202429094e+00
2.197004547257912055e+00
2.186504226813562823e+00
2.186504226813562823e+00
2.241068391979735619e+00
2.241068391979735619e+00
2.306882900479140464e+00
2.337446333201086635e+00
2.337446333201086635e+00
2.349821710867641578e+00
2.349821710867641578e+00
2.384697775200659287e+00
2.329196081423383191e+00
2.267131687368389326e+00
2.267131687368389326e+00
2.235818231757560781e+00
2.223817865535447247e+00
2.223817865535447247e+00
2.179003997924741309e+00
2.179003997924741309e+00
2.195129490035706787e+00
2.192129398480178182e+00
2.192129398480178182e+00
2.195316995757927270e+00
2.195316995757927270e+00
2.224005371257667729e+00
2.312695577867977192e+00
2.312695577867977192e+00
2.319445783867915889e+00
2.319445783867915889e+00
2.341383953367717208e+00
2.351134250923184954e+00
2.351134250923184954e+00
2.346259102145451525e+00
2.338383861812189490e+00
2.338383861812189490e+00
2.263194067201757864e+00
2.263194067201757864e+00
2.206942350535599839e+00
2.188566789757988129e+00
2.188566789757988129e+00
2.193816949980162967e+00
2.193816949980162967e+00
2.242943449201941331e+00
2.241630909146397510e+00
2.241630909146397510e+00
2.199817133091219734e+00
2.199817133091219734e+00
2.167566148869289222e+00
2.248381115146336207e+00
2.248381115146336207e+00
2.302570268868068482e+00
2.340446424756614796e+00
2.340446424756614796e+00
2.339696401867732423e+00
2.339696401867732423e+00
2.281757133701590057e+00
2.204504776146733125e+00
2.204504776146733125e+00
2.192316904202398664e+00
2.192316904202398664e+00
2.207129856257820322e+00
2.261319009979552597e+00
2.261319009979552597e+00
2.279507065034943825e+00
2.279507065034943825e+00
2.259256447035126847e+00
2.273319376201666131e+00
2.248381115146336207e+00
2.248381115146336207e+00
2.262819055757316900e+00
2.262819055757316900e+00
2.329758598590044638e+00
2.303882808923612302e+00
2.303882808923612302e+00
2.328821069978942226e+00
2.328821069978942226e+00
2.278944547868282378e+00
2.252131229590746742e+00
2.252131229590746742e+00
2.323758415478988315e+00
2.276694479201635701e+00
2.276694479201635701e+00
2.201504684591204519e+00
2.201504684591204519e+00
2.209942442091128445e+00
2.188941801202429094e+00
2.188941801202429094e+00
2.185379192480239485e+00
2.185379192480239485e+00
2.182004089480269915e+00
2.189879329813531950e+00
2.189879329813531950e+00
2.268069215979491737e+00
2.268069215979491737e+00
2.333321207312235135e+00
2.357696951200903612e+00
2.357696951200903612e+00
2.378510086367381593e+00
2.348696676534318240e+00
2.348696676534318240e+00
2.330883632923367976e+00
2.330883632923367976e+00
2.218942716757713818e+00
2.193629444257942485e+00
2.193629444257942485e+00
2.154440748313852350e+00
2.154440748313852350e+00
2.206754844813379357e+00
2.230193060090945423e+00
2.230193060090945423e+00
2.189504318369090985e+00
2.207504867702261730e+00
2.207504867702261730e+00
2.249693655201880027e+00
2.249693655201880027e+00
2.342321481978820064e+00
2.332571184423352761e+00
2.332571184423352761e+00
2.330321115756706529e+00
2.330321115756706529e+00
2.334258735923337547e+00
2.275944456312753772e+00
2.275944456312753772e+00
2.242755943479720404e+00
2.242755943479720404e+00
2.236943266090884119e+00
2.183504135258034218e+00
2.183504135258034218e+00
2.189129306924649576e+00
2.189129306924649576e+00
2.276506973479415219e+00
2.284382213812677254e+00
2.284382213812677254e+00
2.259068941312906365e+00
2.259068941312906365e+00
2.266006653035065987e+00
2.197379558702353020e+00
2.197379558702353020e+00
2.266756675923947917e+00
2.373822443311869090e+00
2.373822443311869090e+00
2.262069032868434526e+00
2.262069032868434526e+00
2.203754753257850751e+00
2.226442945646534444e+00
2.226442945646534444e+00
2.259068941312906365e+00
2.259068941312906365e+00
2.307632923368022837e+00
2.289257362590411127e+00
2.289257362590411127e+00
2.259818964201788294e+00
2.270694296090578934e+00
2.270694296090578934e+00
2.225505417035432032e+00
2.225505417035432032e+00
2.183691640980254700e+00
2.181629078035828950e+00
2.181629078035828950e+00
2.200942167424543072e+00
2.200942167424543072e+00
2.254193792535172935e+00
2.315695669423505798e+00
2.315695669423505798e+00
2.335571275978881367e+00
2.335571275978881367e+00
2.339883907589953349e+00
2.286632282479323930e+00
2.286632282479323930e+00
2.267319193090609808e+00
2.280819605090487201e+00
2.280819605090487201e+00
2.241068391979735619e+00
2.241068391979735619e+00
2.255131321146275347e+00
2.279882076479384789e+00
2.279882076479384789e+00
2.278569536423841413e+00
2.278569536423841413e+00
2.261694021423993561e+00
2.215192602313302839e+00
2.215192602313302839e+00
2.234318185979796478e+00
2.234318185979796478e+00
2.200004638813440216e+00
2.197192052980132537e+00
2.197192052980132537e+00
2.258881435590685438e+00
2.258881435590685438e+00
2.306507889034699499e+00
2.268631733146153184e+00
2.268631733146153184e+00
2.318320749534592551e+00
2.376072511978514878e+00
2.376072511978514878e+00
2.307820429090243319e+00
2.307820429090243319e+00
2.236755760368663637e+00
2.246506057924130939e+00
2.246506057924130939e+00
2.235443220313119816e+00
2.235443220313119816e+00
2.217817682424390480e+00
2.239755851924192243e+00
2.239755851924192243e+00
2.276319467757194737e+00
2.276319467757194737e+00
2.251943723868526259e+00
2.206942350535599839e+00
2.206942350535599839e+00
2.262819055757316900e+00
2.296570085757011714e+00
2.296570085757011714e+00
2.326946012756737403e+00
2.326946012756737403e+00
2.295070039979247412e+00
2.266194158757286470e+00
2.266194158757286470e+00
2.223067842646564873e+00
2.223067842646564873e+00
2.220067751091036712e+00
2.198879604480116878e+00
2.198879604480116878e+00
2.172441297647023095e+00
2.172441297647023095e+00
2.209942442091128445e+00
2.251756218146305777e+00
2.251756218146305777e+00
2.271069307535019899e+00
2.271069307535019899e+00
2.291694936979278285e+00
2.346446607867672007e+00
2.346446607867672007e+00
2.319258278145695407e+00
2.337071321756645670e+00
2.337071321756645670e+00
2.298257637256996500e+00
2.298257637256996500e+00
2.321320841090121156e+00
2.263569078646198829e+00
2.263569078646198829e+00
2.227567979979857782e+00
2.227567979979857782e+00
2.174878872035889810e+00
2.133065095980712478e+00
2.133065095980712478e+00
2.216505142368846659e+00
2.216505142368846659e+00
2.199629627368999252e+00
2.208254890591143660e+00
2.208254890591143660e+00
2.282694662312692468e+00
2.282694662312692468e+00
2.348696676534318240e+00
2.308195440534684284e+00
2.308195440534684284e+00
2.302945280312509890e+00
2.310258003479110034e+00
2.310258003479110034e+00
2.308570451979125249e+00
2.308570451979125249e+00
2.280069582201605716e+00
2.282319650868251504e+00
2.282319650868251504e+00
2.289444868312631609e+00
2.289444868312631609e+00
2.213130039368877089e+00
2.248568620868556689e+00
2.248568620868556689e+00
2.182379100924710880e+00
2.182379100924710880e+00
2.125377361369670925e+00
2.124439832758568070e+00
2.124439832758568070e+00
2.166253608813745402e+00
2.166253608813745402e+00
2.278944547868282378e+00
2.384135258033997840e+00
2.384135258033997840e+00
2.430074159978026671e+00
2.361634571367534630e+00
2.361634571367534630e+00
2.289632374034852091e+00
2.289632374034852091e+00
2.302382763145847999e+00
2.295632557145908859e+00
2.295632557145908859e+00
2.274631916257209951e+00
2.265256630146183614e+00
2.265256630146183614e+00
2.183504135258034218e+00
2.183504135258034218e+00
2.074000793481246330e+00
2.106626789147617806e+00
2.106626789147617806e+00
2.239380840479750834e+00
2.239380840479750834e+00
2.408886013367107282e+00
2.337071321756645670e+00
2.337071321756645670e+00
2.313445600756859122e+00
2.313445600756859122e+00
2.220630268257698603e+00
2.284944730979339145e+00
2.284944730979339145e+00
2.295070039979247412e+00
2.295070039979247412e+00
2.261881527146214044e+00
2.260193975646229259e+00
2.260193975646229259e+00
2.268819238868374111e+00
2.254756309701834383e+00
2.254756309701834383e+00
2.176378917813653668e+00
2.176378917813653668e+00
2.141127842036194995e+00
2.140940336313974068e+00
2.140940336313974068e+00
2.303695303201391820e+00
2.303695303201391820e+00
2.291882442701498768e+00
2.314195623645741495e+00
2.314195623645741495e+00
2.354321848200934042e+00
2.354321848200934042e+00
2.313445600756859122e+00
2.310445509201330516e+00
2.310445509201330516e+00
2.380385143589587305e+00
2.380385143589587305e+00
2.306132877590258534e+00
2.166441114535965884e+00
2.166441114535965884e+00
2.201879696035645484e+00
2.201879696035645484e+00
2.277632007812738557e+00
2.228505508590960638e+00
2.228505508590960638e+00
2.192316904202398664e+00
2.129127475814081016e+00
2.129127475814081016e+00
2.231318094424268317e+00
2.231318094424268317e+00
2.310445509201330516e+00
2.305195348979155678e+00
2.305195348979155678e+00
2.295445051423688376e+00
2.295445051423688376e+00
2.255881344035157721e+00
2.213130039368877089e+00
2.213130039368877089e+00
2.266944181646168399e+00
2.266944181646168399e+00
2.309320474868007622e+00
2.335571275978881367e+00
2.335571275978881367e+00
2.312695577867977192e+00
2.273881893368328022e+00
2.273881893368328022e+00
2.237318277535325084e+00
2.237318277535325084e+00
2.201692190313425002e+00
2.195504501480147752e+00
2.195504501480147752e+00
2.211254982146671821e+00
2.211254982146671821e+00
2.208254890591143660e+00
2.250256172368541474e+00
2.250256172368541474e+00
2.322258369701224012e+00
2.322258369701224012e+00
2.247256080813012868e+00
2.228693014313181120e+00
2.228693014313181120e+00
2.278569536423841413e+00
2.278569536423841413e+00
2.299007660145878429e+00
2.293382488479262626e+00
2.293382488479262626e+00
2.305195348979155678e+00
2.335008758812219920e+00
2.335008758812219920e+00
2.238443311868648422e+00
2.238443311868648422e+00
2.214255073702200427e+00
2.293194982757042144e+00
2.293194982757042144e+00
2.333696218756676100e+00
2.333696218756676100e+00
2.252881252479629115e+00
2.286257271034882521e+00
2.286257271034882521e+00
2.286069765312662039e+00
2.286069765312662039e+00
2.289257362590411127e+00
2.225130405590991067e+00
2.225130405590991067e+00
2.229255531479842567e+00
2.229255531479842567e+00
2.259256447035126847e+00
2.240880886257515137e+00
2.240880886257515137e+00
2.200754661702322146e+00
2.200754661702322146e+00
2.180316537980285130e+00
2.178253975035859380e+00
2.178253975035859380e+00
2.201504684591204519e+00
2.201504684591204519e+00
2.332383678701132279e+00
2.262631550035096417e+00
2.262631550035096417e+00
2.316445692312387283e+00
2.269756767479476078e+00
2.269756767479476078e+00
2.282882168034912951e+00
2.282882168034912951e+00
2.284944730979339145e+00
2.283069673757133433e+00
2.283069673757133433e+00
2.248193609424115724e+00
2.264881618701742649e+00
2.264881618701742649e+00
2.304257820368053267e+00
2.304257820368053267e+00
2.255881344035157721e+00
2.239380840479750834e+00
2.239380840479750834e+00
2.208254890591143660e+00
2.208254890591143660e+00
2.217067659535508550e+00
2.241630909146397510e+00
2.241630909146397510e+00
2.311758049256874337e+00
2.311758049256874337e+00
2.252506241035188150e+00
2.231130588702047834e+00
2.231130588702047834e+00
2.209942442091128445e+00
2.222317819757682944e+00
2.222317819757682944e+00
2.273131870479445649e+00
2.273131870479445649e+00
2.327508529923398850e+00
2.344384044923245813e+00
2.344384044923245813e+00
2.339508896145511940e+00
2.339508896145511940e+00
2.259818964201788294e+00
2.182379100924710880e+00
2.182379100924710880e+00
2.111126926480910715e+00
2.111126926480910715e+00
2.161940977202673420e+00
2.355259376812036454e+00
2.355259376812036454e+00
2.352071779534287366e+00
2.352071779534287366e+00
2.316258186590166801e+00
2.310070497756889552e+00
2.310070497756889552e+00
2.350196722312082542e+00
2.326758507034516477e+00
2.326758507034516477e+00
2.267319193090609808e+00
2.267319193090609808e+00
2.265256630146183614e+00
2.250256172368541474e+00
2.250256172368541474e+00
2.275381939146092325e+00
2.275381939146092325e+00
2.250631183812982439e+00
2.168128666035950669e+00
2.168128666035950669e+00
2.131190038758506766e+00
2.131190038758506766e+00
2.300320200201422249e+00
2.332571184423352761e+00
2.332571184423352761e+00
2.264131595812860720e+00
2.264131595812860720e+00
2.291132419812616394e+00
2.326008484145634547e+00
2.326008484145634547e+00
2.235630726035340299e+00
2.235630726035340299e+00
2.189691824091311467e+00
2.225880428479872997e+00
2.225880428479872997e+00
2.260381481368449741e+00
2.289819879757073018e+00
2.289819879757073018e+00
2.305945371868038052e+00
2.305945371868038052e+00
2.276131962034974254e+00
2.169441206091494490e+00
2.169441206091494490e+00
2.125377361369670925e+00
2.125377361369670925e+00
2.255693838312936794e+00
2.379072603534043484e+00
2.379072603534043484e+00
2.346071596423230599e+00
2.346071596423230599e+00
2.282132145146031021e+00
2.288319833979308715e+00
2.288319833979308715e+00
2.231130588702047834e+00
2.231130588702047834e+00
2.297507614368114126e+00
2.290382396923734465e+00
2.290382396923734465e+00
2.287007293923764895e+00
2.314195623645741495e+00
2.314195623645741495e+00
2.232068117313150690e+00
2.232068117313150690e+00
2.190629352702413879e+00
2.198317087313455875e+00
2.198317087313455875e+00
2.246318552201910457e+00
2.246318552201910457e+00
2.233005645924253102e+00
2.335008758812219920e+00
2.335008758812219920e+00
2.370259834589678594e+00
2.370259834589678594e+00
2.304257820368053267e+00
2.234880703146458369e+00
2.234880703146458369e+00
2.238255806146427940e+00
2.220067751091036712e+00
2.220067751091036712e+00
2.259443952757347329e+00
2.259443952757347329e+00
2.235068208868678852e+00
2.123502304147465658e+00
2.123502304147465658e+00
2.173941343424787398e+00
2.173941343424787398e+00
2.272194341868343237e+00
2.240693380535294654e+00
2.240693380535294654e+00
2.296382580034791232e+00
2.296382580034791232e+00
2.296570085757011714e+00
2.327696035645618888e+00
2.327696035645618888e+00
2.380760155034028269e+00
2.380760155034028269e+00
2.270319284646137969e+00
2.294695028534806447e+00
2.294695028534806447e+00
2.299007660145878429e+00
2.234880703146458369e+00
2.234880703146458369e+00
2.230193060090945423e+00
2.230193060090945423e+00
2.145627979369487459e+00
2.152940702536088047e+00
2.152940702536088047e+00
2.196254524369030126e+00
2.196254524369030126e+00
2.296757591479232197e+00
2.314758140812402942e+00
2.314758140812402942e+00
2.297882625812555535e+00
2.276131962034974254e+00
2.276131962034974254e+00
2.241630909146397510e+00
2.241630909146397510e+00
2.280257087923826198e+00
2.339133884701071420e+00
2.339133884701071420e+00
2.353946836756492633e+00
2.353946836756492633e+00
2.316445692312387283e+00
2.253256263924070080e+00
2.253256263924070080e+00
2.239568346201971760e+00
2.239568346201971760e+00
2.233755668813135031e+00
2.315133152256843907e+00
2.315133152256843907e+00
2.267506698812830290e+00
2.267506698812830290e+00
2.240880886257515137e+00
2.188941801202429094e+00
2.188941801202429094e+00
2.295070039979247412e+00
2.358821985534226506e+00
2.358821985534226506e+00
2.305757866145817125e+00
2.305757866145817125e+00
2.303882808923612302e+00
2.205629810480056463e+00
2.205629810480056463e+00
2.159315897091586223e+00
2.159315897091586223e+00
2.247818597979674760e+00
2.265631641590625023e+00
2.265631641590625023e+00
2.307632923368022837e+00
2.307632923368022837e+00
2.266381664479506952e+00
2.239943357646412725e+00
2.239943357646412725e+00
2.261694021423993561e+00
2.217255165257729033e+00
2.217255165257729033e+00
2.220255256813257638e+00
2.220255256813257638e+00
2.184816675313578038e+00
2.246693563646351421e+00
2.246693563646351421e+00
2.288507339701529197e+00
2.288507339701529197e+00
2.281569627979369130e+00
2.288319833979308715e+00
2.288319833979308715e+00
2.345696584978789634e+00
2.345696584978789634e+00
2.324320932645649762e+00
2.321883358256782603e+00
2.321883358256782603e+00
2.237130771813104602e+00
2.237130771813104602e+00
2.191379375591296252e+00
2.276131962034974254e+00
2.276131962034974254e+00
2.261506515701773079e+00
2.231880611590930208e+00
2.231880611590930208e+00
2.305195348979155678e+00
2.305195348979155678e+00
2.325070955534531691e+00
2.367259743034150432e+00
2.367259743034150432e+00
2.328633564256721744e+00
2.328633564256721744e+00
2.198129581591235393e+00
2.128002441480758122e+00
2.128002441480758122e+00
2.153315713980529011e+00
2.153315713980529011e+00
2.253631275368511044e+00
2.297882625812555535e+00
2.297882625812555535e+00
2.243318460646382295e+00
2.243318460646382295e+00
2.265256630146183614e+00
2.328446058534500818e+00
2.328446058534500818e+00
2.304070314645832784e+00
2.194379467146824858e+00
2.194379467146824858e+00
2.215380108035523765e+00
2.215380108035523765e+00
2.268256721701712220e+00
2.375885006256294396e+00
2.375885006256294396e+00
2.351321756645405436e+00
2.351321756645405436e+00
2.362009582811975594e+00
2.260568987090670667e+00
2.260568987090670667e+00
2.161003448591571008e+00
2.161003448591571008e+00
2.202817224646748340e+00
2.270506790368358452e+00
2.270506790368358452e+00
2.293569994201483109e+00
2.372509903256325270e+00
2.372509903256325270e+00
2.329571092867824156e+00
2.329571092867824156e+00
2.181066560869167059e+00
2.261506515701773079e+00
2.261506515701773079e+00
2.286819788201544412e+00
2.286819788201544412e+00
2.281382122257148648e+00
2.242755943479720404e+00
2.242755943479720404e+00
2.169253700369274007e+00
2.169253700369274007e+00
2.229630542924283532e+00
2.253818781090731527e+00
2.253818781090731527e+00
2.194379467146824858e+00
2.263381572923978347e+00
2.263381572923978347e+00
2.269944273201696561e+00
2.269944273201696561e+00
2.195316995757927270e+00
2.241630909146397510e+00
2.241630909146397510e+00
2.244255989257484707e+00
2.244255989257484707e+00
2.344759056367687222e+00
2.365197180089724238e+00
2.365197180089724238e+00
2.298070131534776017e+00
2.298070131534776017e+00
2.394073061311685624e+00
2.327133518478957885e+00
2.327133518478957885e+00
2.149565599536118921e+00
2.138502761925107798e+00
2.138502761925107798e+00
2.253818781090731527e+00
2.253818781090731527e+00
2.282882168034912951e+00
2.170378734702597345e+00
2.170378734702597345e+00
2.297132602923673161e+00
2.297132602923673161e+00
2.322820886867885459e+00
2.302570268868068482e+00
2.302570268868068482e+00
2.279882076479384789e+00
2.279882076479384789e+00
2.295257545701467894e+00
2.333696218756676100e+00
2.333696218756676100e+00
2.369134800256355700e+00
2.369134800256355700e+00
2.340633930478835278e+00
2.251568712424085295e+00
2.251568712424085295e+00
2.203754753257850751e+00
2.281944639423810539e+00
2.281944639423810539e+00
2.146378002258369833e+00
2.146378002258369833e+00
2.117314615314187964e+00
2.205067293313394572e+00
2.205067293313394572e+00
2.215005096591082356e+00
2.215005096591082356e+00
2.204879787591174090e+00
2.226630451368755370e+00
2.226630451368755370e+00
2.171316263313699757e+00
2.171316263313699757e+00
2.342883999145481511e+00
2.414886196478164049e+00
2.414886196478164049e+00
2.373634937589648164e+00
2.373634937589648164e+00
2.430261665700247153e+00
2.399698232978301426e+00
2.399698232978301426e+00
2.270881801812799416e+00
2.270881801812799416e+00
2.225880428479872997e+00
2.152565691091647082e+00
2.152565691091647082e+00
2.028436902981658463e+00
2.089376262703329878e+00
2.089376262703329878e+00
2.189129306924649576e+00
2.189129306924649576e+00
2.256068849757378203e+00
2.349446699423200169e+00
2.349446699423200169e+00
2.277632007812738557e+00
2.277632007812738557e+00
2.311945554979094819e+00
2.387885372478407930e+00
2.387885372478407930e+00
2.428574114200262368e+00
2.367259743034150432e+00
2.367259743034150432e+00
2.297320108645893644e+00
2.297320108645893644e+00
2.268819238868374111e+00
2.320383312479018745e+00
2.320383312479018745e+00
2.332196172978911797e+00
2.332196172978911797e+00
2.268819238868374111e+00
2.196817041535691573e+00
2.196817041535691573e+00
2.272006836146122755e+00
2.272006836146122755e+00
2.161753471480452937e+00
2.105689260536515395e+00
2.105689260536515395e+00
2.083563585314493150e+00
2.083563585314493150e+00
2.222130314035462462e+00
2.262631550035096417e+00
2.262631550035096417e+00
2.250256172368541474e+00
2.281569627979369130e+00
2.281569627979369130e+00
2.414886196478164049e+00
2.414886196478164049e+00
2.433824274422437206e+00
2.354134342478713116e+00
2.354134342478713116e+00
2.251568712424085295e+00
2.251568712424085295e+00
2.266756675923947917e+00
2.234693197424237443e+00
2.234693197424237443e+00
2.184441663869136629e+00
2.184441663869136629e+00
2.108501846369823074e+00
2.061625415814691387e+00
2.061625415814691387e+00
2.197754570146794428e+00
2.197754570146794428e+00
2.365947202978606612e+00
2.394635578478347071e+00
2.394635578478347071e+00
2.361447065645314147e+00
2.361447065645314147e+00
2.366884731589709023e+00
2.356571916867580274e+00
2.356571916867580274e+00
2.325820978423414065e+00
2.244255989257484707e+00
2.244255989257484707e+00
2.206567339091158875e+00
2.274631916257209951e+00
2.319445783867915889e+00
2.319445783867915889e+00
2.149378093813898438e+00
2.149378093813898438e+00
2.021499191259499284e+00
2.081876033814508364e+00
2.081876033814508364e+00
2.229068025757622085e+00
2.229068025757622085e+00
2.326946012756737403e+00
2.317383220923490139e+00
2.317383220923490139e+00
2.352446790978728330e+00
2.352446790978728330e+00
2.446199652088991705e+00
2.452199835200048916e+00
2.452199835200048916e+00
2.366322214423047576e+00
2.366322214423047576e+00
2.270319284646137969e+00
2.165878597369304437e+00
2.165878597369304437e+00
2.189129306924649576e+00
2.194004455702383449e+00
2.194004455702383449e+00
2.146378002258369833e+00
2.146378002258369833e+00
2.161190954313791490e+00
2.320195806756797818e+00
2.320195806756797818e+00
2.406635944700461049e+00
2.406635944700461049e+00
2.324508438367870244e+00
2.297695120090334608e+00
2.297695120090334608e+00
2.383760246589556875e+00
2.383760246589556875e+00
2.394635578478347071e+00
2.252318735312967224e+00
2.252318735312967224e+00
2.086751182592242237e+00
2.086751182592242237e+00
1.910870815149388058e+00
2.014186468092898252e+00
2.014186468092898252e+00
2.130065004425183872e+00
2.359572008423108880e+00
2.359572008423108880e+00
2.410386059144871140e+00
2.410386059144871140e+00
2.406073427533799602e+00
2.300507705923642732e+00
2.300507705923642732e+00
2.300695211645863214e+00
2.311383037812433372e+00
2.311383037812433372e+00
2.317945738090151586e+00
2.270131778923917043e+00
2.270131778923917043e+00
2.315133152256843907e+00
2.315133152256843907e+00
2.333883724478896582e+00
2.239380840479750834e+00
2.239380840479750834e+00
2.267506698812830290e+00
2.321320841090121156e+00
2.321320841090121156e+00
2.221192785424360050e+00
2.221192785424360050e+00
2.160440931424909561e+00
2.182754112369151844e+00
2.182754112369151844e+00
2.080375988036744506e+00
2.080375988036744506e+00
2.331446150090029423e+00
2.432324228644673347e+00
2.432324228644673347e+00
2.316633198034607766e+00
2.316633198034607766e+00
2.398573198644978088e+00
2.312695577867977192e+00
2.312695577867977192e+00
2.115439558091983141e+00
2.173378826258125951e+00
2.173378826258125951e+00
2.222130314035462462e+00
2.222130314035462462e+00
2.204317270424512643e+00
2.204692281868953607e+00
2.204692281868953607e+00
2.249131138035218136e+00
2.249131138035218136e+00
2.206754844813379357e+00
2.183691640980254700e+00
2.183691640980254700e+00
2.338383861812189490e+00
2.338383861812189490e+00
2.417886288033692654e+00
2.379447614978484449e+00
2.379447614978484449e+00
2.281944639423810539e+00
2.289444868312631609e+00
2.289444868312631609e+00
2.418448805200354101e+00
2.418448805200354101e+00
2.378322580645161111e+00
2.135502670369579192e+00
2.135502670369579192e+00
2.020374156926175946e+00
2.020374156926175946e+00
2.155565782647175688e+00
2.121064729758598499e+00
2.121064729758598499e+00
2.133065095980712478e+00
2.133065095980712478e+00
2.320570818201239227e+00
2.356384411145359792e+00
2.356384411145359792e+00
2.311383037812433372e+00
2.361447065645314147e+00
2.361447065645314147e+00
2.302382763145847999e+00
2.302382763145847999e+00
2.195504501480147752e+00
2.205629810480056463e+00
2.205629810480056463e+00
2.411323587755973996e+00
2.411323587755973996e+00
2.416011230811487387e+00
2.381885189367351607e+00
2.246506057924130939e+00
2.246506057924130939e+00
2.156878322702719064e+00
2.133065095980712478e+00
2.104376720480972018e+00
2.104376720480972018e+00
2.187066743980223826e+00
2.317195715201269657e+00
2.317195715201269657e+00
2.355071871089815971e+00
2.355071871089815971e+00
2.352634296700948813e+00
2.449949766533402684e+00
2.449949766533402684e+00
2.315883175145725836e+00
2.315883175145725836e+00
2.200004638813440216e+00
2.115627063814203623e+00
2.115627063814203623e+00
2.116752098147526517e+00
2.116752098147526517e+00
2.059375347148045154e+00
1.889307657094027704e+00
1.889307657094027704e+00
2.148815576647236547e+00
2.148815576647236547e+00
2.548577776421399932e+00
2.527202124088259172e+00
2.527202124088259172e+00
2.439449446089053009e+00
2.439449446089053009e+00
2.232630634479812137e+00
2.429699148533585706e+00
2.429699148533585706e+00
2.436449354533524403e+00
2.311945554979094819e+00
2.311945554979094819e+00
2.297507614368114126e+00
2.297507614368114126e+00
2.355259376812036454e+00
2.107939329203161627e+00
2.107939329203161627e+00
2.071375713370158689e+00
2.071375713370158689e+00
2.089188756981108952e+00
2.127064912869655711e+00
2.127064912869655711e+00
2.151440656758324188e+00
2.151440656758324188e+00
2.349446699423200169e+00
2.262256538590655452e+00
2.262256538590655452e+00
2.189691824091311467e+00
2.189691824091311467e+00
2.163441022980437278e+00
2.363509628589739453e+00
2.363509628589739453e+00
2.477888119144261214e+00
2.385447798089541660e+00
2.385447798089541660e+00
2.267131687368389326e+00
2.267131687368389326e+00
2.109251869258705447e+00
2.156503311258278099e+00
2.156503311258278099e+00
2.190629352702413879e+00
2.190629352702413879e+00
2.258506424146244473e+00
2.248006103701895242e+00
2.248006103701895242e+00
2.134752647480697263e+00
2.253443769646290562e+00
2.253443769646290562e+00
2.362572099978637485e+00
2.362572099978637485e+00
2.121064729758598499e+00
1.976872829371013607e+00
1.976872829371013607e+00
2.146940519425031280e+00
2.146940519425031280e+00
2.343259010589922919e+00
2.465325235755485789e+00
2.465325235755485789e+00
2.372134891811884305e+00
2.372134891811884305e+00
2.364259651478621826e+00
2.268444227423932702e+00
2.268444227423932702e+00
2.238630817590868904e+00
2.238630817590868904e+00
2.350009216589862060e+00
2.375322489089632505e+00
2.375322489089632505e+00
2.341946470534379099e+00
2.211817499313333268e+00
2.211817499313333268e+00
2.098939054536576698e+00
2.098939054536576698e+00
2.297695120090334608e+00
2.377947569200720146e+00
2.377947569200720146e+00
2.166441114535965884e+00
2.166441114535965884e+00
2.118627155369731785e+00
2.117502121036408447e+00
2.117502121036408447e+00
2.194941984313486305e+00
2.194941984313486305e+00
2.278757042146061895e+00
2.427824091311380439e+00
2.427824091311380439e+00
2.345509079256569152e+00
2.305007843256935196e+00
2.305007843256935196e+00
2.375885006256294396e+00
2.375885006256294396e+00
2.426324045533616136e+00
2.259443952757347329e+00
2.259443952757347329e+00
1.966935026093325822e+00
1.966935026093325822e+00
1.839618640705587893e+00
2.171128757591479275e+00
2.171128757591479275e+00
2.166628620258186366e+00
2.166628620258186366e+00
2.196442030091250608e+00
2.480138187810907002e+00
2.480138187810907002e+00
2.430074159978026671e+00
2.430074159978026671e+00
2.333508713034455617e+00
2.303507797479171337e+00
2.303507797479171337e+00
2.258506424146244473e+00
2.320383312479018745e+00
2.320383312479018745e+00
2.328446058534500818e+00
2.328446058534500818e+00
2.261506515701773079e+00
2.261506515701773079e+00
2.244255989257484707e+00
2.239943357646412725e+00
2.239943357646412725e+00
2.170003723258155937e+00
2.170003723258155937e+00
2.097626514481032878e+00
2.090876308481094181e+00
2.090876308481094181e+00
2.499451277199621568e+00
2.369884823145237629e+00
2.369884823145237629e+00
2.374572466200750576e+00
2.374572466200750576e+00
2.369322305978576182e+00
2.232255623035371173e+00
2.232255623035371173e+00
2.408698507644886799e+00
2.408698507644886799e+00
2.381322672200689716e+00
2.290944914090395912e+00
2.290944914090395912e+00
1.952684591204565612e+00
1.952684591204565612e+00
2.047374980925931620e+00
1.692051637318033430e+00
1.692051637318033430e+00
1.980060426648762473e+00
2.383197729422894984e+00
2.383197729422894984e+00
2.648518326364940556e+00
2.648518326364940556e+00
2.579516220587786623e+00
2.185004181035798521e+00
2.185004181035798521e+00
2.132690084536271069e+00
2.132690084536271069e+00
2.239943357646412725e+00
2.325070955534531691e+00
2.325070955534531691e+00
2.444699606311227846e+00
2.444699606311227846e+00
2.368947294534135217e+00
2.219505233924375265e+00
2.219505233924375265e+00
1.909558275093844459e+00
1.909558275093844459e+00
2.069125644703512901e+00
2.324320932645649762e+00
2.324320932645649762e+00
2.341571459089938134e+00
2.182566606646931362e+00
2.182566606646931362e+00
2.143190404980620745e+00
2.143190404980620745e+00
2.265256630146183614e+00
2.360697042756431774e+00
2.360697042756431774e+00
2.390135441145054607e+00
2.390135441145054607e+00
2.375509994811853431e+00
2.409448530533769173e+00
2.409448530533769173e+00
2.494201116977446731e+00
2.371197363200781449e+00
2.371197363200781449e+00
2.091063814203314664e+00
2.091063814203314664e+00
2.015874019592883037e+00
1.762553788872951444e+00
1.762553788872951444e+00
2.133252601702932960e+00
2.133252601702932960e+00
2.381322672200689716e+00
2.432136722922452865e+00
2.432136722922452865e+00
2.398198187200537124e+00
2.398198187200537124e+00
2.434761803033539618e+00
2.383385235145115466e+00
2.383385235145115466e+00
2.212005005035553751e+00
2.212005005035553751e+00
2.070438184759056277e+00
2.233755668813135031e+00
2.233755668813135031e+00
2.458200018311105683e+00
2.458200018311105683e+00
2.255318826868495830e+00
2.331071138645588459e+00
2.331071138645588459e+00
2.281007110812707683e+00
2.250818689535202921e+00
2.250818689535202921e+00
1.896995391705069034e+00
1.896995391705069034e+00
2.186504226813562823e+00
2.134565141758476781e+00
2.134565141758476781e+00
2.410011047700430176e+00
2.410011047700430176e+00
2.460825098422192880e+00
2.403073335978270997e+00
2.403073335978270997e+00
2.262069032868434526e+00
2.262069032868434526e+00
2.278944547868282378e+00
2.279882076479384789e+00
2.279882076479384789e+00
2.311383037812433372e+00
2.311383037812433372e+00
2.191004364146854844e+00
2.096688985869930022e+00
2.096688985869930022e+00
2.133065095980712478e+00
2.173191320535905025e+00
2.173191320535905025e+00
2.092938871425519931e+00
2.092938871425519931e+00
2.106439283425397324e+00
2.063687978759117581e+00
2.063687978759117581e+00
2.537139927365947845e+00
2.537139927365947845e+00
2.559453108310190128e+00
2.421636402478102745e+00
2.421636402478102745e+00
2.328633564256721744e+00
2.328633564256721744e+00
2.423698965422528495e+00
2.357134434034241721e+00
2.284944730979339145e+00
2.284944730979339145e+00
2.030311960203863730e+00
1.957184728537858298e+00
1.957184728537858298e+00
2.033687063203833301e+00
2.154815759758293314e+00
2.154815759758293314e+00
2.330508621478927012e+00
2.330508621478927012e+00
2.459700064088869986e+00
2.371197363200781449e+00
2.371197363200781449e+00
2.287944822534867306e+00
2.287944822534867306e+00
2.504138920255134515e+00
2.319445783867915889e+00
2.319445783867915889e+00
2.233943174535355514e+00
2.233943174535355514e+00
2.187629261146885273e+00
2.047562486648152102e+00
2.047562486648152102e+00
2.248006103701895242e+00
2.420323862422559369e+00
2.420323862422559369e+00
2.267694204535050773e+00
2.267694204535050773e+00
1.893057771538438017e+00
2.229443037202063049e+00
2.229443037202063049e+00
2.611767204809717136e+00
2.611767204809717136e+00
2.542952604754783685e+00
2.265819147312845505e+00
2.265819147312845505e+00
2.146190496536149350e+00
2.146190496536149350e+00
2.175816400646992221e+00
2.493451094088564801e+00
2.493451094088564801e+00
2.316258186590166801e+00
2.316258186590166801e+00
2.073063264870143918e+00
2.139252784813989727e+00
2.139252784813989727e+00
2.353196813867610704e+00
2.353196813867610704e+00
2.319820795312356854e+00
2.191191869869075770e+00
2.191191869869075770e+00
2.218567705313272853e+00
2.037624683370464318e+00
2.089938779869991325e+00
2.280069582201605716e+00
2.280069582201605716e+00
2.434949308755760100e+00
2.596016724143193066e+00
2.596016724143193066e+00
2.424261482589190386e+00
2.325070955534531691e+00
2.325070955534531691e+00
2.204504776146733125e+00
2.204504776146733125e+00
2.192691915646840073e+00
2.133252601702932960e+00
2.133252601702932960e+00
2.131940061647389140e+00
2.131940061647389140e+00
2.202817224646748340e+00
1.999373516037476817e+00
1.999373516037476817e+00
2.273506881923887057e+00
2.505638966032898818e+00
2.505638966032898818e+00
2.398948210089419053e+00
2.398948210089419053e+00
2.425386516922513280e+00
2.521576952421643814e+00
2.521576952421643814e+00
2.383572740867336393e+00
2.383572740867336393e+00
2.131002533036286284e+00
1.894370311593981837e+00
1.894370311593981837e+00
1.918746055482650315e+00
1.918746055482650315e+00
2.283444685201574842e+00
2.329758598590044638e+00
2.329758598590044638e+00
2.338946378978850937e+00
2.259631458479567812e+00
2.259631458479567812e+00
2.258318918424023991e+00
2.258318918424023991e+00
2.237880794701986531e+00
2.361447065645314147e+00
2.361447065645314147e+00
2.356946928312021239e+00
2.266569170201727434e+00
2.266569170201727434e+00
2.349071687978759204e+00
2.349071687978759204e+00
2.241443403424177028e+00
2.333883724478896582e+00
2.333883724478896582e+00
2.294320017090365038e+00
2.294320017090365038e+00
2.186879238258003344e+00
2.165878597369304437e+00
2.165878597369304437e+00
2.155565782647175688e+00
2.155565782647175688e+00
2.313820612201300086e+00
2.269944273201696561e+00
2.269944273201696561e+00
2.439449446089053009e+00
2.396323129978331856e+00
2.396323129978331856e+00
2.348696676534318240e+00
2.348696676534318240e+00
2.267319193090609808e+00
1.911995849482711396e+00
1.911995849482711396e+00
1.962247383037812432e+00
1.962247383037812432e+00
2.396323129978331856e+00
2.721645558030945988e+00
2.721645558030945988e+00
2.549702810754722826e+00
2.549702810754722826e+00
2.323195898312326424e+00
2.138502761925107798e+00
2.138502761925107798e+00
1.997498458815271549e+00
2.011748893704031538e+00
2.011748893704031538e+00
2.083563585314493150e+00
2.083563585314493150e+00
2.281194616534928166e+00
2.440761986144596829e+00
2.440761986144596829e+00
2.501888851588488727e+00
2.501888851588488727e+00
2.279882076479384789e+00
2.140940336313974068e+00
2.140940336313974068e+00
1.962247383037812432e+00
1.962247383037812432e+00
2.121064729758598499e+00
2.290382396923734465e+00
2.290382396923734465e+00
2.529264687032685366e+00
2.473012970366527341e+00
2.473012970366527341e+00
2.336696310312204705e+00
2.336696310312204705e+00
2.306882900479140464e+00
2.203942258980071234e+00
2.203942258980071234e+00
2.284944730979339145e+00
2.284944730979339145e+00
2.158940885647145258e+00
2.164378551591540134e+00
2.164378551591540134e+00
2.140377819147312621e+00
2.140377819147312621e+00
2.229443037202063049e+00
2.264881618701742649e+00
2.264881618701742649e+00
2.309132969145787140e+00
2.309132969145787140e+00
2.337071321756645670e+00
2.303507797479171337e+00
2.303507797479171337e+00
2.352071779534287366e+00
2.412448622089296890e+00
2.412448622089296890e+00
2.239943357646412725e+00
2.239943357646412725e+00
2.048500015259254514e+00
2.122377269814142320e+00
2.122377269814142320e+00
2.345696584978789634e+00
2.345696584978789634e+00
2.379822626422925413e+00
2.157065828424939546e+00
2.157065828424939546e+00
2.257381389812921579e+00
2.257381389812921579e+00
2.271069307535019899e+00
2.382072695089572090e+00
2.382072695089572090e+00
2.384135258033997840e+00
2.384135258033997840e+00
2.238443311868648422e+00
2.251193700979644330e+00
2.251193700979644330e+00
2.191754387035737217e+00
2.191754387035737217e+00
2.154440748313852350e+00
2.277444502090518075e+00
2.277444502090518075e+00
2.356946928312021239e+00
2.348509170812097757e+00
2.348509170812097757e+00
2.147878048036134135e+00
2.147878048036134135e+00
2.365572191534165203e+00
2.381885189367351607e+00
2.381885189367351607e+00
2.235818231757560781e+00
2.235818231757560781e+00
2.315320657979064389e+00
2.350009216589862060e+00
2.350009216589862060e+00
2.227567979979857782e+00
2.227567979979857782e+00
2.073813287759025847e+00
2.176003906369212704e+00
2.176003906369212704e+00
2.223067842646564873e+00
2.223067842646564873e+00
2.139627796258431136e+00
2.134752647480697263e+00
2.134752647480697263e+00
2.331633655812249906e+00
2.331633655812249906e+00
2.388260383922848895e+00
2.442449537644581614e+00
2.442449537644581614e+00
2.420136356700338887e+00
2.296570085757011714e+00
2.296570085757011714e+00
2.167003631702627775e+00
2.167003631702627775e+00
2.224005371257667729e+00
2.306507889034699499e+00
2.306507889034699499e+00
2.359384502700888397e+00
2.359384502700888397e+00
2.258693929868464956e+00
2.157628345591601438e+00
2.157628345591601438e+00
2.117877132480849411e+00
2.117877132480849411e+00
2.087876216925565576e+00
2.240880886257515137e+00
2.240880886257515137e+00
2.271631824701681346e+00
2.271631824701681346e+00
2.378510086367381593e+00
2.333883724478896582e+00
2.333883724478896582e+00
2.173191320535905025e+00
1.984560563982054937e+00
1.984560563982054937e+00
2.315133152256843907e+00
2.315133152256843907e+00
2.644018189031648092e+00
2.370822351756340485e+00
2.370822351756340485e+00
2.104376720480972018e+00
2.104376720480972018e+00
2.223630359813226764e+00
2.496451185644092963e+00
2.496451185644092963e+00
2.488575945310831372e+00
2.289819879757073018e+00
2.289819879757073018e+00
2.213130039368877089e+00
2.213130039368877089e+00
2.257006378368480615e+00
2.360884548478652700e+00
2.360884548478652700e+00
2.164378551591540134e+00
2.164378551591540134e+00
2.073438276314584883e+00
2.151628162480544670e+00
2.151628162480544670e+00
2.277819513534959039e+00
2.277819513534959039e+00
2.187816766869105756e+00
2.211067476424451339e+00
2.211067476424451339e+00
2.357134434034241721e+00
2.357134434034241721e+00
2.376260017700735361e+00
2.337633838923307117e+00
2.337633838923307117e+00
2.262256538590655452e+00
2.262256538590655452e+00
2.120877224036378017e+00
1.917058503982665529e+00
1.917058503982665529e+00
2.185379192480239485e+00
2.504888943144016888e+00
2.504888943144016888e+00
2.410761070589312105e+00
2.410761070589312105e+00
2.423323953978087530e+00
2.460075075533310951e+00
2.460075075533310951e+00
2.327696035645618888e+00
2.327696035645618888e+00
2.191379375591296252e+00
2.216317636646626177e+00
2.216317636646626177e+00
2.051312601092562637e+00
2.051312601092562637e+00
2.202254707480086449e+00
2.228505508590960638e+00
2.228505508590960638e+00
2.255318826868495830e+00
2.255318826868495830e+00
2.256631366924039650e+00
2.230005554368724940e+00
2.230005554368724940e+00
2.343446516312143402e+00
2.490263496810816157e+00
2.490263496810816157e+00
2.302757774590289408e+00
2.302757774590289408e+00
2.429699148533585706e+00
2.312508072145756710e+00
2.312508072145756710e+00
2.257193884090700653e+00
2.257193884090700653e+00
2.225880428479872997e+00
2.287194799645985377e+00
2.287194799645985377e+00
2.158190862758262885e+00
2.158190862758262885e+00
2.158190862758262885e+00
2.258506424146244473e+00
2.258506424146244473e+00
2.083376079592272667e+00
2.031999511703848516e+00
2.031999511703848516e+00
2.038562211981566730e+00
2.038562211981566730e+00
2.356384411145359792e+00
2.272756859035004684e+00
2.272756859035004684e+00
2.272381847590563719e+00
2.272381847590563719e+00
2.557203039643543896e+00
2.624142582476271635e+00
2.624142582476271635e+00
2.384322763756218322e+00
2.384322763756218322e+00
2.110564409314249268e+00
2.064438001647999510e+00
2.064438001647999510e+00
2.260381481368449741e+00
2.260381481368449741e+00
2.361259559923093665e+00
2.270694296090578934e+00
2.270694296090578934e+00
2.286632282479323930e+00
2.166253608813745402e+00
2.166253608813745402e+00
2.257006378368480615e+00
2.257006378368480615e+00
2.262256538590655452e+00
2.388822901089510786e+00
2.388822901089510786e+00
2.244068483535264225e+00
2.244068483535264225e+00
2.202442213202307375e+00
2.288694845423749680e+00
2.288694845423749680e+00
2.283069673757133433e+00
2.283069673757133433e+00
2.189691824091311467e+00
2.134565141758476781e+00
2.134565141758476781e+00
2.274069399090548504e+00
2.274069399090548504e+00
2.091626331369976111e+00
2.212755027924436124e+00
2.212755027924436124e+00
2.350571733756523507e+00
2.432886745811334794e+00
2.432886745811334794e+00
2.451637318033387469e+00
2.451637318033387469e+00
2.406260933256020085e+00
2.180129032258064647e+00
2.180129032258064647e+00
2.169441206091494490e+00
2.169441206091494490e+00
2.353759331034272151e+00
2.405135898922696747e+00
2.405135898922696747e+00
2.365009674367503756e+00
2.365009674367503756e+00
2.311383037812433372e+00
2.257193884090700653e+00
2.257193884090700653e+00
2.277069490646077110e+00
2.119002166814172750e+00
2.119002166814172750e+00
2.151253151036103706e+00
2.151253151036103706e+00
2.005186193426313324e+00
2.051875118259224084e+00
2.051875118259224084e+00
2.308382946256904766e+00
2.312133060701315301e+00
2.312133060701315301e+00
2.407010956144902014e+00
2.407010956144902014e+00
2.353009308145390222e+00
2.398385692922757606e+00
2.398385692922757606e+00
2.330508621478927012e+00
2.330508621478927012e+00
2.160815942869350526e+00
1.967872554704428234e+00
1.967872554704428234e+00
2.093501388592180934e+00
2.093501388592180934e+00
2.482763267921994643e+00
2.344196539201025331e+00
2.344196539201025331e+00
2.366697225867488541e+00
2.366697225867488541e+00
2.301257728812525105e+00
2.323383404034546906e+00
2.323383404034546906e+00
2.037624683370464318e+00
2.037624683370464318e+00
1.969935117648853984e+00
2.410386059144871140e+00
2.410386059144871140e+00
2.569390911587878357e+00
2.569390911587878357e+00
2.494201116977446731e+00
2.285319742423780109e+00
2.285319742423780109e+00
2.262444044312875935e+00
2.097626514481032878e+00
2.097626514481032878e+00
2.289819879757073018e+00
2.289819879757073018e+00
2.264319101535081202e+00
2.261506515701773079e+00
2.261506515701773079e+00
2.146753013702810797e+00
2.146753013702810797e+00
2.086938688314462720e+00
2.309507980590228104e+00
2.309507980590228104e+00
2.430074159978026671e+00
2.430074159978026671e+00
2.387885372478407930e+00
2.152190679647205673e+00
2.152190679647205673e+00
2.286819788201544412e+00
2.286819788201544412e+00
2.354696859645375007e+00
2.195129490035706787e+00
2.195129490035706787e+00
2.299007660145878429e+00
2.299007660145878429e+00
2.351884273812066883e+00
2.298257637256996500e+00
2.298257637256996500e+00
2.348884182256538722e+00
2.166628620258186366e+00
2.166628620258186366e+00
2.145815485091708386e+00
2.145815485091708386e+00
2.148628070925016065e+00
2.148253059480575100e+00
2.148253059480575100e+00
2.288132328257088233e+00
2.288132328257088233e+00
2.571640980254524589e+00
2.495326151310770069e+00
2.495326151310770069e+00
2.149940610980559885e+00
2.149940610980559885e+00
2.153690725424969976e+00
2.228880520035401602e+00
2.228880520035401602e+00
2.314758140812402942e+00
2.314758140812402942e+00
2.318883266701254442e+00
2.191566881313516735e+00
2.191566881313516735e+00
2.151065645313883223e+00
2.151065645313883223e+00
2.203379741813409787e+00
2.250068666646320992e+00
2.250068666646320992e+00
2.245381023590808045e+00
2.259631458479567812e+00
2.259631458479567812e+00
2.375322489089632505e+00
2.375322489089632505e+00
2.382822717978454019e+00
2.388635395367290304e+00
2.388635395367290304e+00
2.256443861201819168e+00
2.256443861201819168e+00
2.159690908536027187e+00
2.136252693258461566e+00
2.136252693258461566e+00
2.085438642536698417e+00
2.085438642536698417e+00
2.113189489425336465e+00
2.096126468703268575e+00
2.096126468703268575e+00
2.466637775811029609e+00
2.466637775811029609e+00
2.512951689199499850e+00
2.261694021423993561e+00
2.261694021423993561e+00
2.266006653035065987e+00
2.280444593646046680e+00
2.280444593646046680e+00
2.434949308755760100e+00
2.434949308755760100e+00
2.273131870479445649e+00
2.388635395367290304e+00
2.388635395367290304e+00
2.245568529313028083e+00
2.245568529313028083e+00
2.064813013092440475e+00
1.989998229926450479e+00
1.989998229926450479e+00
2.243693472090823260e+00
2.243693472090823260e+00
2.397635670033875677e+00
2.331446150090029423e+00
2.331446150090029423e+00
2.337633838923307117e+00
2.337633838923307117e+00
2.077563402203436382e+00
2.117689626758628929e+00
2.117689626758628929e+00
2.136065187536240639e+00
2.364259651478621826e+00
2.364259651478621826e+00
2.426699056978057101e+00
2.426699056978057101e+00
2.282694662312692468e+00
2.475075533310953091e+00
2.475075533310953091e+00
2.499451277199621568e+00
2.499451277199621568e+00
2.305570360423596643e+00
2.226442945646534444e+00
2.226442945646534444e+00
2.274819421979430434e+00
2.274819421979430434e+00
2.277444502090518075e+00
2.321133335367900674e+00
2.321133335367900674e+00
2.242568437757499922e+00
2.242568437757499922e+00
2.170566240424817828e+00
2.196442030091250608e+00
2.196442030091250608e+00
2.272756859035004684e+00
2.272756859035004684e+00
2.228505508590960638e+00
2.034999603259376677e+00
2.034999603259376677e+00
2.194379467146824858e+00
2.510514114810632691e+00
2.510514114810632691e+00
2.386760338145085036e+00
2.386760338145085036e+00
2.228880520035401602e+00
2.258693929868464956e+00
2.258693929868464956e+00
2.260568987090670667e+00
2.260568987090670667e+00
2.083751091036713632e+00
2.121064729758598499e+00
2.121064729758598499e+00
2.262631550035096417e+00
2.262631550035096417e+00
2.352259285256507848e+00
2.444137089144566399e+00
2.444137089144566399e+00
2.378885097811823002e+00
2.378885097811823002e+00
2.351696768089846401e+00
2.330696127201147494e+00
2.330696127201147494e+00
2.191191869869075770e+00
2.197942075869014911e+00
2.197942075869014911e+00
2.272194341868343237e+00
2.272194341868343237e+00
2.309695486312448587e+00
2.212380016479995160e+00
2.212380016479995160e+00
2.141127842036194995e+00
2.141127842036194995e+00
2.292444959868159771e+00
2.283069673757133433e+00
2.283069673757133433e+00
2.220442762535478121e+00
2.220442762535478121e+00
2.248568620868556689e+00
2.180879055146946577e+00
2.180879055146946577e+00
2.257006378368480615e+00
2.257006378368480615e+00
2.327883541367839371e+00
2.281757133701590057e+00
2.281757133701590057e+00
2.323195898312326424e+00
2.323195898312326424e+00
2.268631733146153184e+00
2.264881618701742649e+00
2.264881618701742649e+00
2.354321848200934042e+00
2.249318643757439062e+00
2.249318643757439062e+00
2.230005554368724940e+00
2.230005554368724940e+00
2.220817773979919085e+00
2.289632374034852091e+00
2.289632374034852091e+00
2.185379192480239485e+00
2.185379192480239485e+00
2.158003357036042402e+00
2.237880794701986531e+00
2.237880794701986531e+00
2.328821069978942226e+00
2.328821069978942226e+00
2.341008941923276243e+00
2.399698232978301426e+00
2.399698232978301426e+00
2.281007110812707683e+00
2.281007110812707683e+00
2.306695394756919981e+00
2.269381756035035114e+00
2.269381756035035114e+00
2.239943357646412725e+00
2.239943357646412725e+00
2.290194891201513983e+00
2.249131138035218136e+00
2.249131138035218136e+00
2.261694021423993561e+00
2.191004364146854844e+00
2.191004364146854844e+00
2.079063447981200685e+00
2.079063447981200685e+00
2.094251411481063307e+00
2.339883907589953349e+00
2.339883907589953349e+00
2.448637226477858864e+00
2.448637226477858864e+00
2.405510910367137711e+00
2.275569444868312807e+00
2.275569444868312807e+00
2.243505966368602778e+00
2.243505966368602778e+00
2.218755211035493335e+00
2.170566240424817828e+00
2.170566240424817828e+00
2.277632007812738557e+00
2.277632007812738557e+00
2.236193243202001746e+00
2.212755027924436124e+00
2.212755027924436124e+00
2.338758873256630455e+00
2.308382946256904766e+00
2.308382946256904766e+00
2.257756401257362544e+00
2.257756401257362544e+00
2.358071962645344577e+00
2.287944822534867306e+00
2.287944822534867306e+00
2.289069856868190644e+00
2.289069856868190644e+00
2.205629810480056463e+00
2.190816858424634361e+00
2.190816858424634361e+00
2.300695211645863214e+00
2.300695211645863214e+00
2.358821985534226506e+00
2.362384594256416559e+00
2.362384594256416559e+00
2.307070406201360946e+00
2.307070406201360946e+00
2.346259102145451525e+00
2.422948942533646566e+00
2.422948942533646566e+00
2.233005645924253102e+00
2.041187292092654371e+00
2.041187292092654371e+00
2.083938596758934114e+00
2.083938596758934114e+00
2.287194799645985377e+00
2.260943998535111632e+00
2.260943998535111632e+00
2.155378276924954761e+00
2.155378276924954761e+00
2.157065828424939546e+00
2.267131687368389326e+00
2.267131687368389326e+00
2.362947111423078006e+00
2.362947111423078006e+00
2.426324045533616136e+00
2.343259010589922919e+00
2.343259010589922919e+00
2.294695028534806447e+00
2.294695028534806447e+00
2.251568712424085295e+00
2.193066927091281038e+00
2.193066927091281038e+00
2.129877498702963390e+00
2.129877498702963390e+00
2.036874660481581945e+00
2.084876125370036970e+00
2.084876125370036970e+00
2.275006927701650916e+00
2.275006927701650916e+00
2.477700613422040732e+00
2.439824457533493973e+00
2.439824457533493973e+00
2.477888119144261214e+00
2.377010040589617734e+00
2.377010040589617734e+00
2.339133884701071420e+00
2.339133884701071420e+00
2.239755851924192243e+00
2.178253975035859380e+00
2.178253975035859380e+00
2.034062074648274265e+00
2.034062074648274265e+00
2.018124088259529714e+00
2.164941068758201581e+00
2.164941068758201581e+00
2.266756675923947917e+00
2.266756675923947917e+00
2.384697775200659287e+00
2.194566972869045340e+00
2.194566972869045340e+00
2.255506332590716312e+00
2.255506332590716312e+00
2.419761345255897922e+00
2.419573839533677440e+00
2.419573839533677440e+00
2.456887478255561863e+00
2.344196539201025331e+00
2.344196539201025331e+00
2.209379924924466998e+00
2.209379924924466998e+00
2.132315073091830104e+00
2.268819238868374111e+00
2.268819238868374111e+00
2.362384594256416559e+00
2.362384594256416559e+00
2.248568620868556689e+00
2.276131962034974254e+00
2.276131962034974254e+00
2.196817041535691573e+00
2.196817041535691573e+00
2.082063539536728847e+00
2.230005554368724940e+00
2.230005554368724940e+00
2.278007019257179522e+00
2.278007019257179522e+00
2.319445783867915889e+00
2.330133610034486047e+00
2.330133610034486047e+00
2.313633106479079604e+00
2.318133243812372069e+00
2.318133243812372069e+00
2.276131962034974254e+00
2.276131962034974254e+00
2.326008484145634547e+00
2.323383404034546906e+00
2.323383404034546906e+00
2.289632374034852091e+00
2.289632374034852091e+00
2.166066103091524919e+00
2.132315073091830104e+00
2.132315073091830104e+00
2.037624683370464318e+00
2.037624683370464318e+00
2.166628620258186366e+00
2.354696859645375007e+00
2.354696859645375007e+00
2.387322855311746483e+00
2.387322855311746483e+00
2.327508529923398850e+00
2.359947019867549844e+00
2.359947019867549844e+00
2.323945921201208797e+00
2.323945921201208797e+00
2.327508529923398850e+00
2.405885921811578676e+00
2.405885921811578676e+00
2.367447248756370914e+00
2.307070406201360946e+00
2.307070406201360946e+00
2.129877498702963390e+00
2.129877498702963390e+00
2.079813470870083059e+00
2.103064180425428198e+00
2.103064180425428198e+00
1.988498184148686176e+00
1.988498184148686176e+00
2.398573198644978088e+00
2.492326059755241463e+00
2.492326059755241463e+00
2.426511551255836618e+00
2.426511551255836618e+00
2.419198828089236475e+00
2.371197363200781449e+00
2.371197363200781449e+00
2.300132694479201767e+00
2.301257728812525105e+00
2.301257728812525105e+00
2.262069032868434526e+00
2.262069032868434526e+00
2.326946012756737403e+00
2.247631092257453833e+00
2.247631092257453833e+00
2.116002075258644588e+00
2.116002075258644588e+00
2.077750907925656865e+00
2.134190130314035372e+00
2.134190130314035372e+00
2.325258461256752618e+00
2.325258461256752618e+00
2.340071413312173831e+00
2.355259376812036454e+00
2.355259376812036454e+00
2.340446424756614796e+00
2.340446424756614796e+00
2.323008392590105942e+00
2.269756767479476078e+00
2.269756767479476078e+00
2.262819055757316900e+00
2.226067934202093479e+00
2.226067934202093479e+00
2.250256172368541474e+00
2.250256172368541474e+00
2.285132236701559627e+00
2.218942716757713818e+00
2.218942716757713818e+00
2.239755851924192243e+00
2.239755851924192243e+00
2.107564317758720662e+00
2.208629902035584625e+00
2.208629902035584625e+00
2.296570085757011714e+00
2.296570085757011714e+00
2.351509262367625919e+00
2.339133884701071420e+00
2.339133884701071420e+00
2.326195989867855030e+00
2.326195989867855030e+00
2.303695303201391820e+00
2.319633289590136371e+00
2.307070406201360946e+00
2.307070406201360946e+00
2.305757866145817125e+00
2.305757866145817125e+00
2.200567155980101663e+00
2.189504318369090985e+00
2.189504318369090985e+00
2.156128299813837135e+00
2.156128299813837135e+00
2.091438825647755628e+00
2.314195623645741495e+00
2.314195623645741495e+00
2.361447065645314147e+00
2.361447065645314147e+00
2.289819879757073018e+00
2.256443861201819168e+00
2.256443861201819168e+00
2.191004364146854844e+00
2.236380748924222672e+00
2.236380748924222672e+00
2.284007202368236289e+00
2.284007202368236289e+00
2.350759239478743989e+00
2.351696768089846401e+00
2.351696768089846401e+00
2.324883449812311209e+00
2.324883449812311209e+00
2.248381115146336207e+00
2.166816125980407293e+00
2.166816125980407293e+00
2.218005188146610962e+00
2.184816675313578038e+00
2.184816675313578038e+00
2.137940244758446351e+00
2.137940244758446351e+00
2.247631092257453833e+00
2.260381481368449741e+00
2.260381481368449741e+00
2.400073244422742391e+00
2.400073244422742391e+00
2.454449903866695148e+00
2.349821710867641578e+00
2.349821710867641578e+00
2.221005279702139568e+00
2.221005279702139568e+00
2.180316537980285130e+00
2.282694662312692468e+00
2.282694662312692468e+00
2.232630634479812137e+00
2.141502853480635959e+00
2.141502853480635959e+00
2.206567339091158875e+00
2.206567339091158875e+00
2.299007660145878429e+00
2.252506241035188150e+00
2.252506241035188150e+00
2.286069765312662039e+00
2.286069765312662039e+00
2.330321115756706529e+00
2.308007934812463802e+00
2.308007934812463802e+00
2.374009949034089573e+00
2.374009949034089573e+00
2.287944822534867306e+00
2.116939603869747000e+00
2.116939603869747000e+00
2.199067110202337361e+00
2.199067110202337361e+00
2.172628803369243577e+00
2.297132602923673161e+00
2.297132602923673161e+00
2.450324777977843649e+00
2.354321848200934042e+00
2.354321848200934042e+00
2.213692556535538980e+00
2.213692556535538980e+00
2.092938871425519931e+00
2.164941068758201581e+00
2.164941068758201581e+00
2.257943906979583026e+00
