2.222880336924344391e+00
2.222880336924344391e+00
2.222880336924344391e+00
2.225130405590991067e+00
2.225130405590991067e+00
2.225130405590991067e+00
2.199817133091219734e+00
2.199817133091219734e+00
2.199817133091219734e+00
2.197754570146794428e+00
2.197754570146794428e+00
2.197754570146794428e+00
2.197754570146794428e+00
2.184066652424695665e+00
2.184066652424695665e+00
2.184066652424695665e+00
2.186316721091342341e+00
2.186316721091342341e+00
2.186316721091342341e+00
2.186316721091342341e+00
2.238818323313089387e+00
2.238818323313089387e+00
2.238818323313089387e+00
2.284569719534897736e+00
2.284569719534897736e+00
2.284569719534897736e+00
2.301632740256966070e+00
2.301632740256966070e+00
2.301632740256966070e+00
2.301632740256966070e+00
2.308382946256904766e+00
2.308382946256904766e+00
2.308382946256904766e+00
2.279882076479384789e+00
2.279882076479384789e+00
2.279882076479384789e+00
2.279882076479384789e+00
2.279319559312723342e+00
2.279319559312723342e+00
2.279319559312723342e+00
2.278194524979400004e+00
2.278194524979400004e+00
2.278194524979400004e+00
2.278194524979400004e+00
2.275756950590533290e+00
2.275756950590533290e+00
2.275756950590533290e+00
2.271069307535019899e+00
2.271069307535019899e+00
2.271069307535019899e+00
2.248006103701895242e+00
2.248006103701895242e+00
2.248006103701895242e+00
2.248006103701895242e+00
2.216505142368846659e+00
2.216505142368846659e+00
2.216505142368846659e+00
2.238443311868648422e+00
2.238443311868648422e+00
2.238443311868648422e+00
2.238443311868648422e+00
2.212005005035553751e+00
2.212005005035553751e+00
2.212005005035553751e+00
2.230193060090945423e+00
2.230193060090945423e+00
2.230193060090945423e+00
2.230193060090945423e+00
2.300507705923642732e+00
2.300507705923642732e+00
2.300507705923642732e+00
2.302945280312509890e+00
2.302945280312509890e+00
2.302945280312509890e+00
2.302945280312509890e+00
2.301257728812525105e+00
2.301257728812525105e+00
2.301257728812525105e+00
2.324133426923429280e+00
2.324133426923429280e+00
2.324133426923429280e+00
2.289444868312631609e+00
2.289444868312631609e+00
2.289444868312631609e+00
2.289444868312631609e+00
2.254756309701834383e+00
2.254756309701834383e+00
2.254756309701834383e+00
2.248381115146336207e+00
2.248381115146336207e+00
2.248381115146336207e+00
2.236380748924222672e+00
2.236380748924222672e+00
2.236380748924222672e+00
2.225880428479872997e+00
2.225880428479872997e+00
2.225880428479872997e+00
2.215567613757744247e+00
2.215567613757744247e+00
2.215567613757744247e+00
2.215567613757744247e+00
2.203004730368968822e+00
2.203004730368968822e+00
2.203004730368968822e+00
2.222317819757682944e+00
2.222317819757682944e+00
2.222317819757682944e+00
2.199629627368999252e+00
2.199629627368999252e+00
2.199629627368999252e+00
2.199629627368999252e+00
2.203567247535630269e+00
2.203567247535630269e+00
2.203567247535630269e+00
2.237130771813104602e+00
2.237130771813104602e+00
2.237130771813104602e+00
2.261506515701773079e+00
2.261506515701773079e+00
2.261506515701773079e+00
2.261506515701773079e+00
2.313820612201300086e+00
2.313820612201300086e+00
2.313820612201300086e+00
2.332758690145573244e+00
2.332758690145573244e+00
2.332758690145573244e+00
2.332758690145573244e+00
2.319633289590136371e+00
2.319633289590136371e+00
2.319633289590136371e+00
2.282882168034912951e+00
2.282882168034912951e+00
2.282882168034912951e+00
2.257756401257362544e+00
2.257756401257362544e+00
2.257756401257362544e+00
2.257756401257362544e+00
2.246881069368571904e+00
2.243130954924161813e+00
2.243130954924161813e+00
2.243130954924161813e+00
2.225130405590991067e+00
2.225130405590991067e+00
2.225130405590991067e+00
2.225130405590991067e+00
2.225317911313211550e+00
2.225317911313211550e+00
2.225317911313211550e+00
2.208817407757805107e+00
2.208817407757805107e+00
2.208817407757805107e+00
2.208817407757805107e+00
2.169816217535935454e+00
2.169816217535935454e+00
2.169816217535935454e+00
2.211254982146671821e+00
2.211254982146671821e+00
2.211254982146671821e+00
2.281757133701590057e+00
2.281757133701590057e+00
2.281757133701590057e+00
2.281757133701590057e+00
2.320383312479018745e+00
2.320383312479018745e+00
2.320383312479018745e+00
2.347946653645436310e+00
2.347946653645436310e+00
2.347946653645436310e+00
2.347946653645436310e+00
2.322820886867885459e+00
2.322820886867885459e+00
2.322820886867885459e+00
2.277632007812738557e+00
2.277632007812738557e+00
2.277632007812738557e+00
2.277632007812738557e+00
2.277256996368297592e+00
2.277256996368297592e+00
2.277256996368297592e+00
2.261694021423993561e+00
2.261694021423993561e+00
2.261694021423993561e+00
2.235818231757560781e+00
2.235818231757560781e+00
2.235818231757560781e+00
2.235818231757560781e+00
2.240318369090853690e+00
2.240318369090853690e+00
2.240318369090853690e+00
2.246693563646351421e+00
2.246693563646351421e+00
2.246693563646351421e+00
2.246693563646351421e+00
2.236005737479781263e+00
2.236005737479781263e+00
2.236005737479781263e+00
2.192879421369060555e+00
2.192879421369060555e+00
2.192879421369060555e+00
2.179379009369182274e+00
2.179379009369182274e+00
2.179379009369182274e+00
2.179379009369182274e+00
2.242568437757499922e+00
2.242568437757499922e+00
2.242568437757499922e+00
2.300132694479201767e+00
2.300132694479201767e+00
2.300132694479201767e+00
2.300132694479201767e+00
2.321133335367900674e+00
2.321133335367900674e+00
2.321133335367900674e+00
2.338571367534409973e+00
2.338571367534409973e+00
2.338571367534409973e+00
2.318133243812372069e+00
2.318133243812372069e+00
2.318133243812372069e+00
2.318133243812372069e+00
2.279882076479384789e+00
2.279882076479384789e+00
2.279882076479384789e+00
2.269756767479476078e+00
2.269756767479476078e+00
2.269756767479476078e+00
2.269756767479476078e+00
2.263944090090640238e+00
2.263944090090640238e+00
2.263944090090640238e+00
2.252881252479629115e+00
2.252881252479629115e+00
2.252881252479629115e+00
2.234880703146458369e+00
2.234880703146458369e+00
2.234880703146458369e+00
2.234880703146458369e+00
2.203192236091189304e+00
2.203192236091189304e+00
2.203192236091189304e+00
2.183129123813593253e+00
2.183129123813593253e+00
2.183129123813593253e+00
2.183129123813593253e+00
2.179754020813623683e+00
2.179754020813623683e+00
2.179754020813623683e+00
2.203754753257850751e+00
2.203754753257850751e+00
2.203754753257850751e+00
2.256256355479598685e+00
2.256256355479598685e+00
2.256256355479598685e+00
2.281569627979369130e+00
2.281569627979369130e+00
2.281569627979369130e+00
2.316258186590166801e+00
2.316258186590166801e+00
2.316258186590166801e+00
2.307632923368022837e+00
2.307632923368022837e+00
2.307632923368022837e+00
2.307632923368022837e+00
2.277069490646077110e+00
2.277069490646077110e+00
2.277069490646077110e+00
2.257381389812921579e+00
2.257381389812921579e+00
2.257381389812921579e+00
2.257381389812921579e+00
2.260193975646229259e+00
2.260193975646229259e+00
2.260193975646229259e+00
2.252693746757408633e+00
2.252693746757408633e+00
2.252693746757408633e+00
2.243505966368602778e+00
2.243505966368602778e+00
2.243505966368602778e+00
2.243505966368602778e+00
2.236005737479781263e+00
2.236005737479781263e+00
2.236005737479781263e+00
2.229443037202063049e+00
2.229443037202063049e+00
2.229443037202063049e+00
2.230005554368724940e+00
2.230005554368724940e+00
2.230005554368724940e+00
2.230005554368724940e+00
2.213130039368877089e+00
2.213130039368877089e+00
2.213130039368877089e+00
2.240693380535294654e+00
2.240693380535294654e+00
2.240693380535294654e+00
2.255693838312936794e+00
2.255693838312936794e+00
2.255693838312936794e+00
2.255693838312936794e+00
2.284944730979339145e+00
2.284944730979339145e+00
2.284944730979339145e+00
2.313445600756859122e+00
2.313445600756859122e+00
2.313445600756859122e+00
2.313445600756859122e+00
2.309320474868007622e+00
2.309320474868007622e+00
2.309320474868007622e+00
2.252881252479629115e+00
2.252881252479629115e+00
2.252881252479629115e+00
2.229068025757622085e+00
2.229068025757622085e+00
2.229068025757622085e+00
2.229068025757622085e+00
2.214817590868861874e+00
2.214817590868861874e+00
2.214817590868861874e+00
2.267694204535050773e+00
2.267694204535050773e+00
2.267694204535050773e+00
2.246318552201910457e+00
2.246318552201910457e+00
2.246318552201910457e+00
2.246318552201910457e+00
2.226817957090975852e+00
2.226817957090975852e+00
2.226817957090975852e+00
2.236943266090884119e+00
2.236943266090884119e+00
2.236943266090884119e+00
2.236943266090884119e+00
2.223442854091006282e+00
2.223442854091006282e+00
2.223442854091006282e+00
2.208442396313364142e+00
2.208442396313364142e+00
2.208442396313364142e+00
2.248943632312997654e+00
2.248943632312997654e+00
2.248943632312997654e+00
2.248943632312997654e+00
2.301070223090304623e+00
2.301070223090304623e+00
2.301070223090304623e+00
2.308382946256904766e+00
2.308382946256904766e+00
2.308382946256904766e+00
2.308382946256904766e+00
2.327883541367839371e+00
2.327883541367839371e+00
2.327883541367839371e+00
2.293945005645924073e+00
2.293945005645924073e+00
2.293945005645924073e+00
2.289444868312631609e+00
2.289444868312631609e+00
2.289444868312631609e+00
2.289444868312631609e+00
2.269381756035035114e+00
2.269381756035035114e+00
2.269381756035035114e+00
2.265256630146183614e+00
2.265256630146183614e+00
2.265256630146183614e+00
2.265256630146183614e+00
2.271069307535019899e+00
2.271069307535019899e+00
2.271069307535019899e+00
2.249131138035218136e+00
2.249131138035218136e+00
2.249131138035218136e+00
2.249131138035218136e+00
2.233193151646474028e+00
2.233193151646474028e+00
2.233193151646474028e+00
2.228318002868740155e+00
2.228318002868740155e+00
2.228318002868740155e+00
2.200754661702322146e+00
2.200754661702322146e+00
2.200754661702322146e+00
2.200754661702322146e+00
2.210692464980010374e+00
2.210692464980010374e+00
2.210692464980010374e+00
2.243880977813043742e+00
2.243880977813043742e+00
2.243880977813043742e+00
2.243880977813043742e+00
2.257381389812921579e+00
2.257381389812921579e+00
2.257381389812921579e+00
2.283444685201574842e+00
2.283444685201574842e+00
2.283444685201574842e+00
2.299945188756981285e+00
2.299945188756981285e+00
2.299945188756981285e+00
2.299945188756981285e+00
2.282319650868251504e+00
2.282319650868251504e+00
2.282319650868251504e+00
2.267694204535050773e+00
2.267694204535050773e+00
2.267694204535050773e+00
2.267694204535050773e+00
2.279507065034943825e+00
2.279507065034943825e+00
2.279507065034943825e+00
2.247818597979674760e+00
2.247818597979674760e+00
2.247818597979674760e+00
2.245381023590808045e+00
2.245381023590808045e+00
2.245381023590808045e+00
2.245381023590808045e+00
2.225692922757652514e+00
2.225692922757652514e+00
2.225692922757652514e+00
2.225505417035432032e+00
2.225505417035432032e+00
2.225505417035432032e+00
2.223817865535447247e+00
2.223817865535447247e+00
2.223817865535447247e+00
2.223817865535447247e+00
2.201129673146763555e+00
2.201129673146763555e+00
2.201129673146763555e+00
2.234505691702016961e+00
2.234505691702016961e+00
2.234505691702016961e+00
2.234505691702016961e+00
2.285882259590441556e+00
2.285882259590441556e+00
2.285882259590441556e+00
2.301070223090304623e+00
2.301070223090304623e+00
2.301070223090304623e+00
2.327883541367839371e+00
2.327883541367839371e+00
2.327883541367839371e+00
2.327883541367839371e+00
2.330696127201147494e+00
2.330696127201147494e+00
2.330696127201147494e+00
2.316633198034607766e+00
2.316633198034607766e+00
2.316633198034607766e+00
2.316633198034607766e+00
2.278382030701620931e+00
2.278382030701620931e+00
2.278382030701620931e+00
2.244631000701926116e+00
2.244631000701926116e+00
2.244631000701926116e+00
2.244631000701926116e+00
2.248568620868556689e+00
2.248568620868556689e+00
2.248568620868556689e+00
2.234693197424237443e+00
2.234693197424237443e+00
2.234693197424237443e+00
2.197379558702353020e+00
2.197379558702353020e+00
2.197379558702353020e+00
2.197379558702353020e+00
2.197192052980132537e+00
2.197192052980132537e+00
2.197192052980132537e+00
2.174503860591448845e+00
2.174503860591448845e+00
2.174503860591448845e+00
2.174503860591448845e+00
2.187254249702444309e+00
2.187254249702444309e+00
2.187254249702444309e+00
2.231505600146489243e+00
2.231505600146489243e+00
2.231505600146489243e+00
2.297132602923673161e+00
2.297132602923673161e+00
2.297132602923673161e+00
2.297132602923673161e+00
2.296195074312570750e+00
2.296195074312570750e+00
2.296195074312570750e+00
2.334821253089998994e+00
2.334821253089998994e+00
2.334821253089998994e+00
2.334821253089998994e+00
2.317570726645710621e+00
2.317570726645710621e+00
2.317570726645710621e+00
2.287382305368205859e+00
2.287382305368205859e+00
2.287382305368205859e+00
2.287382305368205859e+00
2.238630817590868904e+00
2.238630817590868904e+00
2.238630817590868904e+00
2.257381389812921579e+00
2.257381389812921579e+00
2.257381389812921579e+00
2.245381023590808045e+00
2.245381023590808045e+00
2.245381023590808045e+00
2.245381023590808045e+00
2.253443769646290562e+00
2.253443769646290562e+00
2.253443769646290562e+00
2.227380474257637299e+00
2.227380474257637299e+00
2.227380474257637299e+00
2.227380474257637299e+00
2.223067842646564873e+00
2.223067842646564873e+00
2.223067842646564873e+00
2.204504776146733125e+00
2.204504776146733125e+00
2.204504776146733125e+00
2.212755027924436124e+00
2.212755027924436124e+00
2.212755027924436124e+00
2.212755027924436124e+00
2.251756218146305777e+00
2.251756218146305777e+00
2.251756218146305777e+00
2.260943998535111632e+00
2.260943998535111632e+00
2.260943998535111632e+00
2.260943998535111632e+00
2.307820429090243319e+00
2.307820429090243319e+00
2.307820429090243319e+00
2.311195532090212890e+00
2.311195532090212890e+00
2.311195532090212890e+00
2.295632557145908859e+00
2.295632557145908859e+00
2.295632557145908859e+00
2.295632557145908859e+00
2.313070589312418157e+00
2.313070589312418157e+00
2.313070589312418157e+00
2.308570451979125249e+00
2.308570451979125249e+00
2.308570451979125249e+00
2.308570451979125249e+00
2.267881710257271255e+00
2.267881710257271255e+00
2.267881710257271255e+00
2.241068391979735619e+00
2.241068391979735619e+00
2.241068391979735619e+00
2.218755211035493335e+00
2.218755211035493335e+00
2.218755211035493335e+00
2.218755211035493335e+00
2.219317728202154782e+00
2.219317728202154782e+00
2.219317728202154782e+00
2.199442121646778769e+00
2.199442121646778769e+00
2.199442121646778769e+00
2.199442121646778769e+00
2.181629078035828950e+00
2.181629078035828950e+00
2.181629078035828950e+00
2.209567430646687480e+00
2.209567430646687480e+00
2.209567430646687480e+00
2.209567430646687480e+00
2.253256263924070080e+00
2.253256263924070080e+00
2.253256263924070080e+00
2.268069215979491737e+00
2.268069215979491737e+00
2.268069215979491737e+00
2.302382763145847999e+00
2.302382763145847999e+00
2.302382763145847999e+00
2.302382763145847999e+00
2.323008392590105942e+00
2.323008392590105942e+00
2.323008392590105942e+00
2.294507522812585520e+00
2.294507522812585520e+00
2.294507522812585520e+00
2.294507522812585520e+00
2.287944822534867306e+00
2.287944822534867306e+00
2.287944822534867306e+00
2.287944822534867306e+00
2.287944822534867306e+00
2.287944822534867306e+00
2.265444135868404540e+00
2.265444135868404540e+00
2.265444135868404540e+00
2.265444135868404540e+00
2.248193609424115724e+00
2.248193609424115724e+00
2.248193609424115724e+00
2.227005462813196335e+00
2.227005462813196335e+00
2.227005462813196335e+00
2.227005462813196335e+00
2.225880428479872997e+00
2.225880428479872997e+00
2.225880428479872997e+00
2.221755302591021497e+00
2.221755302591021497e+00
2.221755302591021497e+00
2.181254066591387542e+00
2.181254066591387542e+00
2.181254066591387542e+00
2.181254066591387542e+00
2.226442945646534444e+00
2.226442945646534444e+00
2.226442945646534444e+00
2.253256263924070080e+00
2.253256263924070080e+00
2.253256263924070080e+00
2.253256263924070080e+00
2.263756584368419311e+00
2.263756584368419311e+00
2.263756584368419311e+00
2.311195532090212890e+00
2.311195532090212890e+00
2.311195532090212890e+00
2.312508072145756710e+00
2.312508072145756710e+00
2.312508072145756710e+00
2.312508072145756710e+00
2.292819971312600735e+00
2.292819971312600735e+00
2.292819971312600735e+00
2.284757225257118218e+00
2.284757225257118218e+00
2.284757225257118218e+00
2.284757225257118218e+00
2.259068941312906365e+00
2.259068941312906365e+00
2.259068941312906365e+00
2.250818689535202921e+00
2.250818689535202921e+00
2.250818689535202921e+00
2.243505966368602778e+00
2.243505966368602778e+00
2.243505966368602778e+00
2.243505966368602778e+00
2.230193060090945423e+00
2.230193060090945423e+00
2.230193060090945423e+00
2.217067659535508550e+00
2.217067659535508550e+00
2.217067659535508550e+00
2.217067659535508550e+00
2.211254982146671821e+00
2.211254982146671821e+00
2.211254982146671821e+00
2.215942625202185212e+00
2.215942625202185212e+00
2.215942625202185212e+00
2.215942625202185212e+00
2.268069215979491737e+00
2.268069215979491737e+00
2.268069215979491737e+00
2.299570177312540320e+00
2.299570177312540320e+00
2.299570177312540320e+00
2.301820245979186552e+00
2.301820245979186552e+00
2.301820245979186552e+00
2.301820245979186552e+00
2.338758873256630455e+00
2.338758873256630455e+00
2.338758873256630455e+00
2.303695303201391820e+00
2.303695303201391820e+00
2.303695303201391820e+00
2.303695303201391820e+00
2.292257454145939732e+00
2.292257454145939732e+00
2.292257454145939732e+00
2.270694296090578934e+00
2.270694296090578934e+00
2.270694296090578934e+00
2.247818597979674760e+00
2.247818597979674760e+00
2.247818597979674760e+00
2.247818597979674760e+00
2.258318918424023991e+00
2.258318918424023991e+00
2.258318918424023991e+00
2.246693563646351421e+00
2.246693563646351421e+00
2.246693563646351421e+00
2.220442762535478121e+00
2.220442762535478121e+00
2.220442762535478121e+00
2.220442762535478121e+00
2.200379650257881181e+00
2.200379650257881181e+00
2.200379650257881181e+00
2.174878872035889810e+00
2.174878872035889810e+00
2.174878872035889810e+00
2.174878872035889810e+00
2.196817041535691573e+00
2.196817041535691573e+00
2.196817041535691573e+00
2.254568803979613900e+00
2.254568803979613900e+00
2.254568803979613900e+00
2.310258003479110034e+00
2.310258003479110034e+00
2.310258003479110034e+00
2.310258003479110034e+00
2.322258369701224012e+00
2.322258369701224012e+00
2.322258369701224012e+00
2.320945829645680192e+00
2.320945829645680192e+00
2.320945829645680192e+00
2.320945829645680192e+00
2.263006561479537382e+00
2.263006561479537382e+00
2.263006561479537382e+00
2.260193975646229259e+00
2.260193975646229259e+00
2.260193975646229259e+00
2.253256263924070080e+00
2.253256263924070080e+00
2.253256263924070080e+00
2.253256263924070080e+00
2.233943174535355514e+00
2.233943174535355514e+00
2.233943174535355514e+00
2.227192968535416817e+00
2.227192968535416817e+00
2.227192968535416817e+00
2.227192968535416817e+00
2.237130771813104602e+00
2.237130771813104602e+00
2.237130771813104602e+00
2.239193334757530351e+00
2.239193334757530351e+00
2.239193334757530351e+00
2.250818689535202921e+00
2.250818689535202921e+00
2.250818689535202921e+00
2.250818689535202921e+00
2.215192602313302839e+00
2.215192602313302839e+00
2.215192602313302839e+00
2.246693563646351421e+00
2.246693563646351421e+00
2.246693563646351421e+00
2.246693563646351421e+00
2.289444868312631609e+00
2.289444868312631609e+00
2.289444868312631609e+00
2.302007751701407035e+00
2.302007751701407035e+00
2.302007751701407035e+00
2.295257545701467894e+00
2.295257545701467894e+00
2.295257545701467894e+00
2.295257545701467894e+00
2.284757225257118218e+00
2.284757225257118218e+00
2.284757225257118218e+00
2.256443861201819168e+00
2.256443861201819168e+00
2.256443861201819168e+00
2.256443861201819168e+00
2.237505783257545566e+00
2.237505783257545566e+00
2.237505783257545566e+00
2.285694753868221074e+00
2.285694753868221074e+00
2.285694753868221074e+00
2.285694753868221074e+00
2.252131229590746742e+00
2.252131229590746742e+00
2.252131229590746742e+00
2.250631183812982439e+00
2.250631183812982439e+00
2.250631183812982439e+00
2.223817865535447247e+00
2.223817865535447247e+00
2.223817865535447247e+00
2.223817865535447247e+00
2.222505325479903426e+00
2.222505325479903426e+00
2.222505325479903426e+00
2.220817773979919085e+00
2.220817773979919085e+00
2.220817773979919085e+00
2.220817773979919085e+00
2.199629627368999252e+00
2.199629627368999252e+00
2.199629627368999252e+00
2.261881527146214044e+00
2.261881527146214044e+00
2.261881527146214044e+00
2.296757591479232197e+00
2.296757591479232197e+00
2.296757591479232197e+00
2.296757591479232197e+00
2.296945097201452679e+00
2.296945097201452679e+00
2.296945097201452679e+00
2.326008484145634547e+00
2.326008484145634547e+00
2.326008484145634547e+00
2.326008484145634547e+00
2.332946195867793726e+00
2.332946195867793726e+00
2.332946195867793726e+00
2.317945738090151586e+00
2.317945738090151586e+00
2.317945738090151586e+00
2.317945738090151586e+00
2.294882534257026929e+00
2.294882534257026929e+00
2.294882534257026929e+00
2.258881435590685438e+00
2.258881435590685438e+00
2.258881435590685438e+00
2.238443311868648422e+00
2.238443311868648422e+00
2.238443311868648422e+00
2.238443311868648422e+00
2.237880794701986531e+00
2.237880794701986531e+00
2.237880794701986531e+00
2.223442854091006282e+00
2.223442854091006282e+00
2.223442854091006282e+00
2.223442854091006282e+00
2.203567247535630269e+00
2.203567247535630269e+00
2.203567247535630269e+00
2.194004455702383449e+00
2.194004455702383449e+00
2.194004455702383449e+00
2.185754203924680450e+00
2.185754203924680450e+00
2.185754203924680450e+00
2.185754203924680450e+00
2.233568163090914993e+00
2.233568163090914993e+00
2.233568163090914993e+00
2.282319650868251504e+00
2.282319650868251504e+00
2.282319650868251504e+00
2.282319650868251504e+00
2.276131962034974254e+00
2.276131962034974254e+00
2.276131962034974254e+00
2.278194524979400004e+00
2.278194524979400004e+00
2.278194524979400004e+00
2.278757042146061895e+00
2.278757042146061895e+00
2.278757042146061895e+00
2.278757042146061895e+00
2.279694570757164307e+00
2.279694570757164307e+00
2.279694570757164307e+00
2.283819696646015807e+00
2.283819696646015807e+00
2.283819696646015807e+00
2.283819696646015807e+00
2.253818781090731527e+00
2.253818781090731527e+00
2.253818781090731527e+00
2.272944364757225166e+00
2.272944364757225166e+00
2.272944364757225166e+00
2.272944364757225166e+00
2.259818964201788294e+00
2.259818964201788294e+00
2.259818964201788294e+00
2.254943815424054865e+00
2.254943815424054865e+00
2.254943815424054865e+00
2.264506607257301685e+00
2.264506607257301685e+00
2.264506607257301685e+00
2.264506607257301685e+00
2.251381206701864812e+00
2.251381206701864812e+00
2.251381206701864812e+00
2.230005554368724940e+00
2.230005554368724940e+00
2.230005554368724940e+00
2.230005554368724940e+00
2.244068483535264225e+00
2.244068483535264225e+00
2.244068483535264225e+00
2.237693288979766049e+00
2.237693288979766049e+00
2.237693288979766049e+00
2.243318460646382295e+00
2.243318460646382295e+00
2.243318460646382295e+00
2.243318460646382295e+00
2.278569536423841413e+00
2.278569536423841413e+00
2.278569536423841413e+00
2.285694753868221074e+00
2.285694753868221074e+00
2.285694753868221074e+00
2.285694753868221074e+00
2.260756492812891150e+00
2.260756492812891150e+00
2.260756492812891150e+00
2.274631916257209951e+00
2.274631916257209951e+00
2.274631916257209951e+00
2.274631916257209951e+00
2.272381847590563719e+00
2.272381847590563719e+00
2.272381847590563719e+00
2.273694387646107540e+00
2.273694387646107540e+00
2.273694387646107540e+00
2.259631458479567812e+00
2.259631458479567812e+00
2.259631458479567812e+00
2.259631458479567812e+00
2.261319009979552597e+00
2.261319009979552597e+00
2.261319009979552597e+00
2.250631183812982439e+00
2.250631183812982439e+00
2.250631183812982439e+00
2.250631183812982439e+00
2.228505508590960638e+00
2.228505508590960638e+00
2.228505508590960638e+00
2.278382030701620931e+00
2.278382030701620931e+00
2.278382030701620931e+00
2.295445051423688376e+00
2.295445051423688376e+00
2.295445051423688376e+00
2.295445051423688376e+00
2.296757591479232197e+00
2.296757591479232197e+00
2.296757591479232197e+00
2.344571550645466296e+00
2.344571550645466296e+00
2.344571550645466296e+00
2.344571550645466296e+00
2.293569994201483109e+00
2.293569994201483109e+00
2.293569994201483109e+00
2.237693288979766049e+00
2.237693288979766049e+00
2.237693288979766049e+00
2.232068117313150690e+00
2.232068117313150690e+00
2.232068117313150690e+00
2.232068117313150690e+00
2.234693197424237443e+00
2.234693197424237443e+00
2.234693197424237443e+00
2.220442762535478121e+00
2.220442762535478121e+00
2.220442762535478121e+00
2.254943815424054865e+00
2.254943815424054865e+00
2.254943815424054865e+00
2.254943815424054865e+00
2.230568071535386387e+00
2.230568071535386387e+00
2.230568071535386387e+00
2.219130222479934300e+00
2.219130222479934300e+00
2.219130222479934300e+00
2.219130222479934300e+00
2.217630176702169997e+00
2.217630176702169997e+00
2.217630176702169997e+00
2.206379833368938392e+00
2.206379833368938392e+00
2.206379833368938392e+00
2.224942899868770141e+00
2.224942899868770141e+00
2.224942899868770141e+00
2.224942899868770141e+00
2.261319009979552597e+00
2.261319009979552597e+00
2.261319009979552597e+00
2.299570177312540320e+00
2.299570177312540320e+00
2.299570177312540320e+00
2.299570177312540320e+00
2.301257728812525105e+00
2.301257728812525105e+00
2.301257728812525105e+00
2.300882717368083696e+00
2.300882717368083696e+00
2.300882717368083696e+00
2.326383495590075512e+00
2.326383495590075512e+00
2.326383495590075512e+00
2.326383495590075512e+00
2.304070314645832784e+00
2.304070314645832784e+00
2.304070314645832784e+00
2.281007110812707683e+00
2.281007110812707683e+00
2.281007110812707683e+00
2.281007110812707683e+00
2.230755577257606870e+00
2.230755577257606870e+00
2.230755577257606870e+00
2.221005279702139568e+00
2.221005279702139568e+00
2.221005279702139568e+00
2.260381481368449741e+00
2.260381481368449741e+00
2.260381481368449741e+00
2.260381481368449741e+00
2.247068575090792386e+00
2.247068575090792386e+00
2.247068575090792386e+00
2.199442121646778769e+00
2.199442121646778769e+00
2.199442121646778769e+00
2.199442121646778769e+00
2.186691732535783306e+00
2.186691732535783306e+00
2.186691732535783306e+00
2.251756218146305777e+00
2.251756218146305777e+00
2.251756218146305777e+00
2.251756218146305777e+00
2.291882442701498768e+00
2.291882442701498768e+00
2.291882442701498768e+00
2.290194891201513983e+00
2.290194891201513983e+00
2.290194891201513983e+00
2.318320749534592551e+00
2.318320749534592551e+00
2.318320749534592551e+00
2.318320749534592551e+00
2.312695577867977192e+00
2.312695577867977192e+00
2.312695577867977192e+00
2.286632282479323930e+00
2.286632282479323930e+00
2.286632282479323930e+00
2.286632282479323930e+00
2.275569444868312807e+00
2.275569444868312807e+00
2.275569444868312807e+00
2.273319376201666131e+00
2.273319376201666131e+00
2.273319376201666131e+00
2.244068483535264225e+00
2.244068483535264225e+00
2.244068483535264225e+00
2.244068483535264225e+00
2.227567979979857782e+00
2.227567979979857782e+00
2.227567979979857782e+00
2.220442762535478121e+00
2.220442762535478121e+00
2.220442762535478121e+00
2.220442762535478121e+00
2.176003906369212704e+00
2.176003906369212704e+00
2.176003906369212704e+00
2.165128574480422063e+00
2.165128574480422063e+00
2.165128574480422063e+00
2.256256355479598685e+00
2.256256355479598685e+00
2.256256355479598685e+00
2.256256355479598685e+00
2.264694112979522167e+00
2.264694112979522167e+00
2.264694112979522167e+00
2.291132419812616394e+00
2.291132419812616394e+00
2.291132419812616394e+00
2.291132419812616394e+00
2.324320932645649762e+00
2.324320932645649762e+00
2.324320932645649762e+00
2.324320932645649762e+00
2.324320932645649762e+00
2.324320932645649762e+00
2.324320932645649762e+00
2.303882808923612302e+00
2.303882808923612302e+00
2.303882808923612302e+00
2.270319284646137969e+00
2.270319284646137969e+00
2.270319284646137969e+00
2.255881344035157721e+00
2.255881344035157721e+00
2.255881344035157721e+00
2.255881344035157721e+00
2.272194341868343237e+00
2.272194341868343237e+00
2.272194341868343237e+00
2.262444044312875935e+00
2.262444044312875935e+00
2.262444044312875935e+00
2.262444044312875935e+00
2.217817682424390480e+00
2.217817682424390480e+00
2.217817682424390480e+00
2.235630726035340299e+00
2.235630726035340299e+00
2.235630726035340299e+00
2.220067751091036712e+00
2.220067751091036712e+00
2.220067751091036712e+00
2.220067751091036712e+00
2.220442762535478121e+00
2.220442762535478121e+00
2.220442762535478121e+00
2.251568712424085295e+00
2.251568712424085295e+00
2.251568712424085295e+00
2.251568712424085295e+00
2.267881710257271255e+00
2.267881710257271255e+00
2.267881710257271255e+00
2.311758049256874337e+00
2.311758049256874337e+00
2.311758049256874337e+00
2.378510086367381593e+00
2.378510086367381593e+00
2.378510086367381593e+00
2.378510086367381593e+00
2.354696859645375007e+00
2.354696859645375007e+00
2.354696859645375007e+00
2.315508163701284872e+00
2.315508163701284872e+00
2.315508163701284872e+00
2.315508163701284872e+00
2.263944090090640238e+00
2.263944090090640238e+00
2.263944090090640238e+00
2.249318643757439062e+00
2.249318643757439062e+00
2.249318643757439062e+00
2.242193426313058957e+00
2.242193426313058957e+00
2.242193426313058957e+00
2.242193426313058957e+00
2.194566972869045340e+00
2.194566972869045340e+00
2.194566972869045340e+00
2.169066194647053525e+00
2.169066194647053525e+00
2.169066194647053525e+00
2.169066194647053525e+00
2.197942075869014911e+00
2.197942075869014911e+00
2.197942075869014911e+00
2.181254066591387542e+00
2.181254066591387542e+00
2.181254066591387542e+00
2.181254066591387542e+00
2.183504135258034218e+00
2.183504135258034218e+00
2.183504135258034218e+00
2.276319467757194737e+00
2.276319467757194737e+00
2.276319467757194737e+00
2.314383129367961978e+00
2.314383129367961978e+00
2.314383129367961978e+00
2.314383129367961978e+00
2.335946287423322332e+00
2.335946287423322332e+00
2.335946287423322332e+00
2.315883175145725836e+00
2.315883175145725836e+00
2.315883175145725836e+00
2.315883175145725836e+00
2.325070955534531691e+00
2.325070955534531691e+00
2.325070955534531691e+00
2.333321207312235135e+00
2.333321207312235135e+00
2.333321207312235135e+00
2.287757316812646824e+00
2.287757316812646824e+00
2.287757316812646824e+00
2.287757316812646824e+00
2.261694021423993561e+00
2.261694021423993561e+00
2.261694021423993561e+00
2.245943540757469048e+00
2.245943540757469048e+00
2.245943540757469048e+00
2.245943540757469048e+00
2.233193151646474028e+00
2.233193151646474028e+00
2.233193151646474028e+00
2.247068575090792386e+00
2.247068575090792386e+00
2.247068575090792386e+00
2.227755485702078264e+00
2.227755485702078264e+00
2.227755485702078264e+00
2.227755485702078264e+00
2.197379558702353020e+00
2.197379558702353020e+00
2.197379558702353020e+00
2.200192144535660699e+00
2.200192144535660699e+00
2.200192144535660699e+00
2.200192144535660699e+00
2.280444593646046680e+00
2.280444593646046680e+00
2.280444593646046680e+00
2.278757042146061895e+00
2.278757042146061895e+00
2.278757042146061895e+00
2.278757042146061895e+00
2.301632740256966070e+00
2.301632740256966070e+00
2.301632740256966070e+00
2.354696859645375007e+00
2.354696859645375007e+00
2.354696859645375007e+00
2.336883816034425188e+00
2.336883816034425188e+00
2.336883816034425188e+00
2.336883816034425188e+00
2.297695120090334608e+00
2.297695120090334608e+00
2.297695120090334608e+00
2.278007019257179522e+00
2.278007019257179522e+00
2.278007019257179522e+00
2.278007019257179522e+00
2.214255073702200427e+00
2.214255073702200427e+00
2.214255073702200427e+00
2.161378460036011973e+00
2.161378460036011973e+00
2.161378460036011973e+00
2.161378460036011973e+00
2.161565965758232455e+00
2.161565965758232455e+00
2.161565965758232455e+00
2.171691274758141166e+00
2.171691274758141166e+00
2.171691274758141166e+00
2.169816217535935454e+00
2.169816217535935454e+00
2.169816217535935454e+00
2.169816217535935454e+00
2.215380108035523765e+00
2.215380108035523765e+00
2.215380108035523765e+00
2.263006561479537382e+00
2.263006561479537382e+00
2.263006561479537382e+00
2.355634388256477418e+00
2.355634388256477418e+00
2.355634388256477418e+00
2.355634388256477418e+00
2.353009308145390222e+00
2.353009308145390222e+00
2.353009308145390222e+00
2.344384044923245813e+00
2.344384044923245813e+00
2.344384044923245813e+00
2.344384044923245813e+00
2.326383495590075512e+00
2.326383495590075512e+00
2.326383495590075512e+00
2.314570635090182460e+00
2.314570635090182460e+00
2.314570635090182460e+00
2.314570635090182460e+00
2.331446150090029423e+00
2.331446150090029423e+00
2.331446150090029423e+00
2.272194341868343237e+00
2.272194341868343237e+00
2.272194341868343237e+00
2.233755668813135031e+00
2.233755668813135031e+00
2.233755668813135031e+00
2.233755668813135031e+00
2.219505233924375265e+00
2.219505233924375265e+00
2.219505233924375265e+00
2.192129398480178182e+00
2.192129398480178182e+00
2.192129398480178182e+00
2.192129398480178182e+00
2.222880336924344391e+00
2.222880336924344391e+00
2.222880336924344391e+00
2.176003906369212704e+00
2.176003906369212704e+00
2.176003906369212704e+00
2.215192602313302839e+00
2.215192602313302839e+00
2.215192602313302839e+00
2.215192602313302839e+00
2.268444227423932702e+00
2.268444227423932702e+00
2.268444227423932702e+00
2.308570451979125249e+00
2.308570451979125249e+00
2.308570451979125249e+00
2.308570451979125249e+00
2.347196630756553937e+00
2.347196630756553937e+00
2.347196630756553937e+00
2.413011139255958781e+00
2.413011139255958781e+00
2.413011139255958781e+00
2.413011139255958781e+00
2.302945280312509890e+00
2.302945280312509890e+00
2.302945280312509890e+00
2.262256538590655452e+00
2.262256538590655452e+00
2.262256538590655452e+00
2.223442854091006282e+00
2.223442854091006282e+00
2.223442854091006282e+00
2.223442854091006282e+00
2.238255806146427940e+00
2.238255806146427940e+00
2.238255806146427940e+00
2.259818964201788294e+00
2.259818964201788294e+00
2.259818964201788294e+00
2.259818964201788294e+00
2.254943815424054865e+00
2.254943815424054865e+00
2.254943815424054865e+00
2.254381298257393418e+00
2.254381298257393418e+00
2.254381298257393418e+00
2.275194433423871843e+00
2.275194433423871843e+00
2.275194433423871843e+00
2.275194433423871843e+00
2.186691732535783306e+00
2.186691732535783306e+00
2.186691732535783306e+00
2.220067751091036712e+00
2.220067751091036712e+00
2.220067751091036712e+00
2.220067751091036712e+00
2.264319101535081202e+00
2.264319101535081202e+00
2.264319101535081202e+00
2.270319284646137969e+00
2.270319284646137969e+00
2.270319284646137969e+00
2.270319284646137969e+00
2.277819513534959039e+00
2.277819513534959039e+00
2.277819513534959039e+00
2.321133335367900674e+00
2.321133335367900674e+00
2.321133335367900674e+00
2.312695577867977192e+00
2.312695577867977192e+00
2.312695577867977192e+00
2.312695577867977192e+00
2.248006103701895242e+00
2.248006103701895242e+00
2.248006103701895242e+00
2.247256080813012868e+00
2.247256080813012868e+00
2.247256080813012868e+00
2.247256080813012868e+00
2.243693472090823260e+00
2.243693472090823260e+00
2.243693472090823260e+00
2.260568987090670667e+00
2.260568987090670667e+00
2.260568987090670667e+00
2.233943174535355514e+00
2.233943174535355514e+00
2.233943174535355514e+00
2.233943174535355514e+00
2.239755851924192243e+00
2.239755851924192243e+00
2.239755851924192243e+00
2.199629627368999252e+00
2.199629627368999252e+00
2.199629627368999252e+00
2.199629627368999252e+00
2.151440656758324188e+00
2.151440656758324188e+00
2.151440656758324188e+00
2.164191045869319652e+00
2.164191045869319652e+00
2.164191045869319652e+00
2.263381572923978347e+00
2.263381572923978347e+00
2.263381572923978347e+00
2.263381572923978347e+00
2.328633564256721744e+00
2.328633564256721744e+00
2.328633564256721744e+00
2.370634846034120002e+00
2.370634846034120002e+00
2.370634846034120002e+00
2.370634846034120002e+00
2.368572283089693808e+00
2.368572283089693808e+00
2.368572283089693808e+00
2.382822717978454019e+00
2.382822717978454019e+00
2.382822717978454019e+00
2.382822717978454019e+00
2.360884548478652700e+00
2.360884548478652700e+00
2.360884548478652700e+00
2.316070680867946319e+00
2.316070680867946319e+00
2.316070680867946319e+00
2.275194433423871843e+00
2.275194433423871843e+00
2.275194433423871843e+00
2.275194433423871843e+00
2.278757042146061895e+00
2.278757042146061895e+00
2.278757042146061895e+00
2.267506698812830290e+00
2.267506698812830290e+00
2.267506698812830290e+00
2.267506698812830290e+00
2.203192236091189304e+00
2.203192236091189304e+00
2.203192236091189304e+00
2.165503585924863472e+00
2.165503585924863472e+00
2.165503585924863472e+00
2.118064638203069894e+00
2.118064638203069894e+00
2.118064638203069894e+00
2.118064638203069894e+00
2.234318185979796478e+00
2.234318185979796478e+00
2.234318185979796478e+00
2.299195165868098911e+00
2.299195165868098911e+00
2.299195165868098911e+00
2.299195165868098911e+00
2.285882259590441556e+00
2.285882259590441556e+00
2.285882259590441556e+00
2.255881344035157721e+00
2.255881344035157721e+00
2.255881344035157721e+00
2.258131412701803509e+00
2.258131412701803509e+00
2.258131412701803509e+00
2.258131412701803509e+00
2.311945554979094819e+00
2.311945554979094819e+00
2.311945554979094819e+00
2.293569994201483109e+00
2.293569994201483109e+00
2.293569994201483109e+00
2.293569994201483109e+00
2.228130497146519229e+00
2.228130497146519229e+00
2.228130497146519229e+00
2.230193060090945423e+00
2.230193060090945423e+00
2.230193060090945423e+00
2.254568803979613900e+00
2.254568803979613900e+00
2.254568803979613900e+00
2.254568803979613900e+00
2.216130130924405695e+00
2.216130130924405695e+00
2.216130130924405695e+00
2.236568254646443155e+00
2.236568254646443155e+00
2.236568254646443155e+00
2.236568254646443155e+00
2.228693014313181120e+00
2.228693014313181120e+00
2.228693014313181120e+00
2.231318094424268317e+00
2.231318094424268317e+00
2.231318094424268317e+00
2.231318094424268317e+00
2.312883083590197675e+00
2.312883083590197675e+00
2.312883083590197675e+00
2.286819788201544412e+00
2.286819788201544412e+00
2.286819788201544412e+00
2.228693014313181120e+00
2.228693014313181120e+00
2.228693014313181120e+00
2.228693014313181120e+00
2.268819238868374111e+00
2.268819238868374111e+00
2.268819238868374111e+00
2.298070131534776017e+00
2.298070131534776017e+00
2.298070131534776017e+00
2.298070131534776017e+00
2.344759056367687222e+00
2.344759056367687222e+00
2.344759056367687222e+00
2.306882900479140464e+00
2.306882900479140464e+00
2.306882900479140464e+00
2.256256355479598685e+00
2.256256355479598685e+00
2.256256355479598685e+00
2.256256355479598685e+00
2.236568254646443155e+00
2.236568254646443155e+00
2.236568254646443155e+00
2.280632099368266719e+00
2.280632099368266719e+00
2.280632099368266719e+00
2.231318094424268317e+00
2.231318094424268317e+00
2.231318094424268317e+00
2.231318094424268317e+00
2.217630176702169997e+00
2.217630176702169997e+00
2.217630176702169997e+00
2.246131046479689974e+00
2.246131046479689974e+00
2.246131046479689974e+00
2.246131046479689974e+00
2.253256263924070080e+00
2.253256263924070080e+00
2.253256263924070080e+00
2.298070131534776017e+00
2.298070131534776017e+00
2.298070131534776017e+00
2.326383495590075512e+00
2.326383495590075512e+00
2.326383495590075512e+00
2.326383495590075512e+00
2.317758232367931104e+00
2.317758232367931104e+00
2.317758232367931104e+00
2.333508713034455617e+00
2.333508713034455617e+00
2.333508713034455617e+00
2.333508713034455617e+00
2.286069765312662039e+00
2.286069765312662039e+00
2.286069765312662039e+00
2.246693563646351421e+00
2.246693563646351421e+00
2.246693563646351421e+00
2.246693563646351421e+00
2.233193151646474028e+00
2.233193151646474028e+00
2.233193151646474028e+00
2.261131504257332114e+00
2.261131504257332114e+00
2.261131504257332114e+00
2.285132236701559627e+00
2.285132236701559627e+00
2.285132236701559627e+00
2.285132236701559627e+00
2.238255806146427940e+00
2.238255806146427940e+00
2.238255806146427940e+00
2.184066652424695665e+00
2.184066652424695665e+00
2.184066652424695665e+00
2.184066652424695665e+00
2.226630451368755370e+00
2.226630451368755370e+00
2.226630451368755370e+00
2.254943815424054865e+00
2.254943815424054865e+00
2.254943815424054865e+00
2.274819421979430434e+00
2.274819421979430434e+00
2.274819421979430434e+00
2.274819421979430434e+00
2.318133243812372069e+00
2.318133243812372069e+00
2.318133243812372069e+00
2.301632740256966070e+00
2.301632740256966070e+00
2.301632740256966070e+00
2.301632740256966070e+00
2.359384502700888397e+00
2.359384502700888397e+00
2.359384502700888397e+00
2.338008850367748082e+00
2.338008850367748082e+00
2.338008850367748082e+00
2.261131504257332114e+00
2.261131504257332114e+00
2.261131504257332114e+00
2.261131504257332114e+00
2.223067842646564873e+00
2.223067842646564873e+00
2.223067842646564873e+00
2.243505966368602778e+00
2.243505966368602778e+00
2.243505966368602778e+00
2.243505966368602778e+00
2.222317819757682944e+00
2.222317819757682944e+00
2.222317819757682944e+00
2.194754478591265823e+00
2.194754478591265823e+00
2.194754478591265823e+00
2.194004455702383449e+00
2.194004455702383449e+00
2.194004455702383449e+00
2.194004455702383449e+00
2.184254158146916147e+00
2.184254158146916147e+00
2.184254158146916147e+00
2.279319559312723342e+00
2.279319559312723342e+00
2.279319559312723342e+00
2.279319559312723342e+00
2.213880062257759462e+00
2.213880062257759462e+00
2.213880062257759462e+00
2.248381115146336207e+00
2.248381115146336207e+00
2.248381115146336207e+00
2.287194799645985377e+00
2.287194799645985377e+00
2.287194799645985377e+00
2.287194799645985377e+00
2.287007293923764895e+00
2.287007293923764895e+00
2.287007293923764895e+00
2.326571001312295994e+00
2.326571001312295994e+00
2.326571001312295994e+00
2.326571001312295994e+00
2.361259559923093665e+00
2.361259559923093665e+00
2.361259559923093665e+00
2.344196539201025331e+00
2.344196539201025331e+00
2.344196539201025331e+00
2.258881435590685438e+00
2.258881435590685438e+00
2.258881435590685438e+00
2.258881435590685438e+00
2.217817682424390480e+00
2.217817682424390480e+00
2.217817682424390480e+00
2.256256355479598685e+00
2.256256355479598685e+00
2.256256355479598685e+00
2.256256355479598685e+00
2.302007751701407035e+00
2.302007751701407035e+00
2.302007751701407035e+00
2.334071230201117064e+00
2.334071230201117064e+00
2.334071230201117064e+00
2.334071230201117064e+00
2.244068483535264225e+00
2.244068483535264225e+00
2.244068483535264225e+00
2.194941984313486305e+00
2.194941984313486305e+00
2.194941984313486305e+00
2.180879055146946577e+00
2.180879055146946577e+00
2.180879055146946577e+00
2.180879055146946577e+00
2.171691274758141166e+00
2.171691274758141166e+00
2.171691274758141166e+00
2.286632282479323930e+00
2.286632282479323930e+00
2.286632282479323930e+00
2.286632282479323930e+00
2.316258186590166801e+00
2.316258186590166801e+00
2.316258186590166801e+00
2.327696035645618888e+00
2.327696035645618888e+00
2.327696035645618888e+00
2.278194524979400004e+00
2.278194524979400004e+00
2.278194524979400004e+00
2.278194524979400004e+00
2.316633198034607766e+00
2.316633198034607766e+00
2.316633198034607766e+00
2.299195165868098911e+00
2.299195165868098911e+00
2.299195165868098911e+00
2.299195165868098911e+00
2.264319101535081202e+00
2.264319101535081202e+00
2.264319101535081202e+00
2.254943815424054865e+00
2.254943815424054865e+00
2.254943815424054865e+00
2.288694845423749680e+00
2.288694845423749680e+00
2.288694845423749680e+00
2.288694845423749680e+00
2.310633014923550999e+00
2.310633014923550999e+00
2.310633014923550999e+00
2.213692556535538980e+00
2.213692556535538980e+00
2.213692556535538980e+00
2.213692556535538980e+00
2.180879055146946577e+00
2.180879055146946577e+00
2.180879055146946577e+00
2.235818231757560781e+00
2.235818231757560781e+00
2.235818231757560781e+00
2.290194891201513983e+00
2.290194891201513983e+00
2.290194891201513983e+00
2.290194891201513983e+00
2.251381206701864812e+00
2.251381206701864812e+00
2.251381206701864812e+00
2.297507614368114126e+00
2.297507614368114126e+00
2.297507614368114126e+00
2.297507614368114126e+00
2.393698049867244659e+00
2.393698049867244659e+00
2.393698049867244659e+00
2.331071138645588459e+00
2.331071138645588459e+00
2.331071138645588459e+00
2.331071138645588459e+00
2.207317361980041248e+00
2.207317361980041248e+00
2.207317361980041248e+00
2.198504593035676358e+00
2.198504593035676358e+00
2.198504593035676358e+00
2.216130130924405695e+00
2.216130130924405695e+00
2.216130130924405695e+00
2.216130130924405695e+00
2.275381939146092325e+00
2.275381939146092325e+00
2.275381939146092325e+00
2.264506607257301685e+00
2.264506607257301685e+00
2.264506607257301685e+00
2.264506607257301685e+00
2.229068025757622085e+00
2.229068025757622085e+00
2.229068025757622085e+00
2.183691640980254700e+00
2.183691640980254700e+00
2.183691640980254700e+00
2.163253517258217240e+00
2.163253517258217240e+00
2.163253517258217240e+00
2.163253517258217240e+00
2.274819421979430434e+00
2.274819421979430434e+00
2.274819421979430434e+00
2.321508346812341639e+00
2.321508346812341639e+00
2.321508346812341639e+00
2.321508346812341639e+00
2.331821161534470832e+00
2.331821161534470832e+00
2.331821161534470832e+00
2.346634113589892490e+00
2.346634113589892490e+00
2.346634113589892490e+00
2.386010315256203107e+00
2.386010315256203107e+00
2.386010315256203107e+00
2.386010315256203107e+00
2.374572466200750576e+00
2.374572466200750576e+00
2.374572466200750576e+00
2.285132236701559627e+00
2.285132236701559627e+00
2.285132236701559627e+00
2.285132236701559627e+00
2.262256538590655452e+00
2.262256538590655452e+00
2.262256538590655452e+00
2.207317361980041248e+00
2.207317361980041248e+00
2.207317361980041248e+00
2.207317361980041248e+00
2.302945280312509890e+00
2.302945280312509890e+00
2.254193792535172935e+00
2.254193792535172935e+00
2.171878780480361648e+00
2.171878780480361648e+00
2.171878780480361648e+00
2.171878780480361648e+00
2.131940061647389140e+00
2.131940061647389140e+00
2.131940061647389140e+00
2.143190404980620745e+00
2.143190404980620745e+00
2.143190404980620745e+00
2.220817773979919085e+00
2.220817773979919085e+00
2.220817773979919085e+00
2.220817773979919085e+00
2.256631366924039650e+00
2.256631366924039650e+00
2.256631366924039650e+00
2.305007843256935196e+00
2.305007843256935196e+00
2.305007843256935196e+00
2.305007843256935196e+00
2.368759788811914291e+00
2.368759788811914291e+00
2.368759788811914291e+00
2.334258735923337547e+00
2.334258735923337547e+00
2.334258735923337547e+00
2.272006836146122755e+00
2.272006836146122755e+00
2.272006836146122755e+00
2.272006836146122755e+00
2.298257637256996500e+00
2.298257637256996500e+00
2.298257637256996500e+00
2.258131412701803509e+00
2.258131412701803509e+00
2.258131412701803509e+00
2.258131412701803509e+00
2.263569078646198829e+00
2.263569078646198829e+00
2.263569078646198829e+00
2.248381115146336207e+00
2.248381115146336207e+00
2.248381115146336207e+00
2.248381115146336207e+00
2.269569261757255596e+00
2.269569261757255596e+00
2.269569261757255596e+00
2.242943449201941331e+00
2.242943449201941331e+00
2.242943449201941331e+00
2.235068208868678852e+00
2.235068208868678852e+00
2.235068208868678852e+00
2.235068208868678852e+00
2.272569353312784202e+00
2.272569353312784202e+00
2.272569353312784202e+00
2.298632648701437464e+00
2.298632648701437464e+00
2.298632648701437464e+00
2.298632648701437464e+00
2.261881527146214044e+00
2.261881527146214044e+00
2.261881527146214044e+00
2.249506149479659545e+00
2.249506149479659545e+00
2.249506149479659545e+00
2.265819147312845505e+00
2.265819147312845505e+00
2.265819147312845505e+00
2.265819147312845505e+00
2.306882900479140464e+00
2.306882900479140464e+00
2.306882900479140464e+00
2.200567155980101663e+00
2.200567155980101663e+00
2.200567155980101663e+00
2.200567155980101663e+00
2.248943632312997654e+00
2.248943632312997654e+00
2.248943632312997654e+00
2.318508255256813033e+00
2.318508255256813033e+00
2.318508255256813033e+00
2.318508255256813033e+00
2.266006653035065987e+00
2.266006653035065987e+00
2.266006653035065987e+00
2.242193426313058957e+00
2.242193426313058957e+00
2.242193426313058957e+00
2.215567613757744247e+00
2.215567613757744247e+00
2.215567613757744247e+00
2.215567613757744247e+00
2.218567705313272853e+00
2.218567705313272853e+00
2.218567705313272853e+00
2.239380840479750834e+00
2.239380840479750834e+00
2.239380840479750834e+00
2.239380840479750834e+00
2.249693655201880027e+00
2.249693655201880027e+00
2.249693655201880027e+00
2.272006836146122755e+00
2.272006836146122755e+00
2.272006836146122755e+00
2.332571184423352761e+00
2.332571184423352761e+00
2.332571184423352761e+00
2.380572649311807787e+00
2.380572649311807787e+00
2.380572649311807787e+00
2.410198553422650658e+00
2.410198553422650658e+00
2.410198553422650658e+00
2.319070772423474924e+00
2.319070772423474924e+00
2.319070772423474924e+00
2.319070772423474924e+00
2.250631183812982439e+00
2.250631183812982439e+00
2.250631183812982439e+00
2.209379924924466998e+00
2.209379924924466998e+00
2.209379924924466998e+00
2.209379924924466998e+00
2.141877864925076924e+00
2.141877864925076924e+00
2.141877864925076924e+00
2.174503860591448845e+00
2.174503860591448845e+00
2.174503860591448845e+00
2.239568346201971760e+00
2.239568346201971760e+00
2.239568346201971760e+00
2.239568346201971760e+00
2.218755211035493335e+00
2.218755211035493335e+00
2.218755211035493335e+00
2.174128849147007880e+00
2.174128849147007880e+00
2.174128849147007880e+00
2.174128849147007880e+00
2.206942350535599839e+00
2.206942350535599839e+00
2.206942350535599839e+00
2.272194341868343237e+00
2.272194341868343237e+00
2.272194341868343237e+00
2.316445692312387283e+00
2.316445692312387283e+00
2.316445692312387283e+00
2.316445692312387283e+00
2.311008026367992407e+00
2.311008026367992407e+00
2.311008026367992407e+00
2.296570085757011714e+00
2.296570085757011714e+00
2.296570085757011714e+00
2.319070772423474924e+00
2.319070772423474924e+00
2.319070772423474924e+00
2.319070772423474924e+00
2.335571275978881367e+00
2.335571275978881367e+00
2.335571275978881367e+00
2.301820245979186552e+00
2.301820245979186552e+00
2.301820245979186552e+00
2.301820245979186552e+00
2.268444227423932702e+00
2.268444227423932702e+00
2.268444227423932702e+00
2.223442854091006282e+00
2.223442854091006282e+00
2.223442854091006282e+00
2.223442854091006282e+00
2.246131046479689974e+00
2.246131046479689974e+00
2.246131046479689974e+00
2.289819879757073018e+00
2.289819879757073018e+00
2.289819879757073018e+00
2.291319925534837321e+00
2.291319925534837321e+00
2.291319925534837321e+00
2.291319925534837321e+00
2.233380657368694511e+00
2.233380657368694511e+00
2.233380657368694511e+00
2.171316263313699757e+00
2.171316263313699757e+00
2.171316263313699757e+00
2.171316263313699757e+00
2.241630909146397510e+00
2.241630909146397510e+00
2.241630909146397510e+00
2.326195989867855030e+00
2.326195989867855030e+00
2.326195989867855030e+00
2.277069490646077110e+00
2.277069490646077110e+00
2.277069490646077110e+00
2.277069490646077110e+00
2.277632007812738557e+00
2.277632007812738557e+00
2.277632007812738557e+00
2.288132328257088233e+00
2.288132328257088233e+00
2.288132328257088233e+00
2.288132328257088233e+00
2.223442854091006282e+00
2.223442854091006282e+00
2.223442854091006282e+00
2.260756492812891150e+00
2.260756492812891150e+00
2.260756492812891150e+00
2.271256813257240381e+00
2.271256813257240381e+00
2.271256813257240381e+00
2.271256813257240381e+00
2.337821344645527599e+00
2.337821344645527599e+00
2.337821344645527599e+00
2.345321573534348669e+00
2.345321573534348669e+00
2.345321573534348669e+00
2.345321573534348669e+00
2.228318002868740155e+00
2.228318002868740155e+00
2.228318002868740155e+00
2.196067018646809643e+00
2.196067018646809643e+00
2.196067018646809643e+00
2.196067018646809643e+00
2.211629993591112786e+00
2.211629993591112786e+00
2.211629993591112786e+00
2.199067110202337361e+00
2.199067110202337361e+00
2.199067110202337361e+00
2.265631641590625023e+00
2.265631641590625023e+00
2.265631641590625023e+00
2.265631641590625023e+00
2.286257271034882521e+00
2.286257271034882521e+00
2.286257271034882521e+00
2.332758690145573244e+00
2.332758690145573244e+00
2.332758690145573244e+00
2.332758690145573244e+00
2.360509537034211291e+00
2.360509537034211291e+00
2.360509537034211291e+00
2.353759331034272151e+00
2.353759331034272151e+00
2.353759331034272151e+00
2.380010132145145896e+00
2.380010132145145896e+00
2.380010132145145896e+00
2.380010132145145896e+00
2.374759971922971058e+00
2.374759971922971058e+00
2.374759971922971058e+00
2.233568163090914993e+00
2.233568163090914993e+00
2.233568163090914993e+00
2.233568163090914993e+00
2.161378460036011973e+00
2.161378460036011973e+00
2.161378460036011973e+00
2.091251319925535146e+00
2.091251319925535146e+00
2.091251319925535146e+00
2.127064912869655711e+00
2.127064912869655711e+00
2.127064912869655711e+00
2.127064912869655711e+00
2.198879604480116878e+00
2.198879604480116878e+00
2.198879604480116878e+00
2.222130314035462462e+00
2.222130314035462462e+00
2.222130314035462462e+00
2.283257179479354360e+00
2.283257179479354360e+00
2.283257179479354360e+00
2.283257179479354360e+00
2.287382305368205859e+00
2.287382305368205859e+00
2.287382305368205859e+00
2.242943449201941331e+00
2.242943449201941331e+00
2.242943449201941331e+00
2.242943449201941331e+00
2.234130680257575996e+00
2.234130680257575996e+00
2.234130680257575996e+00
2.346259102145451525e+00
2.346259102145451525e+00
2.346259102145451525e+00
2.346259102145451525e+00
2.363697134311959935e+00
2.363697134311959935e+00
2.363697134311959935e+00
2.273506881923887057e+00
2.273506881923887057e+00
2.273506881923887057e+00
2.236380748924222672e+00
2.236380748924222672e+00
2.236380748924222672e+00
2.236380748924222672e+00
2.284757225257118218e+00
2.284757225257118218e+00
2.284757225257118218e+00
2.266381664479506952e+00
2.266381664479506952e+00
2.266381664479506952e+00
2.266381664479506952e+00
2.264506607257301685e+00
2.264506607257301685e+00
2.264506607257301685e+00
2.219317728202154782e+00
2.219317728202154782e+00
2.219317728202154782e+00
2.246318552201910457e+00
2.246318552201910457e+00
2.246318552201910457e+00
2.246318552201910457e+00
2.294507522812585520e+00
2.294507522812585520e+00
2.294507522812585520e+00
2.266381664479506952e+00
2.266381664479506952e+00
2.266381664479506952e+00
2.266381664479506952e+00
2.189879329813531950e+00
2.189879329813531950e+00
2.189879329813531950e+00
2.198317087313455875e+00
2.198317087313455875e+00
2.198317087313455875e+00
2.316258186590166801e+00
2.316258186590166801e+00
2.316258186590166801e+00
2.316258186590166801e+00
2.326008484145634547e+00
2.326008484145634547e+00
2.326008484145634547e+00
2.320758323923459709e+00
2.320758323923459709e+00
2.320758323923459709e+00
2.320758323923459709e+00
2.292257454145939732e+00
2.292257454145939732e+00
2.292257454145939732e+00
2.214067567979979945e+00
2.214067567979979945e+00
2.214067567979979945e+00
2.214067567979979945e+00
2.206942350535599839e+00
2.206942350535599839e+00
2.206942350535599839e+00
2.227755485702078264e+00
2.227755485702078264e+00
2.227755485702078264e+00
2.253256263924070080e+00
2.253256263924070080e+00
2.253256263924070080e+00
2.253256263924070080e+00
2.148253059480575100e+00
2.148253059480575100e+00
2.148253059480575100e+00
2.185191686758019003e+00
2.185191686758019003e+00
2.185191686758019003e+00
2.185191686758019003e+00
2.249693655201880027e+00
2.249693655201880027e+00
2.249693655201880027e+00
2.293757499923703591e+00
2.293757499923703591e+00
2.293757499923703591e+00
2.360322031311990809e+00
2.360322031311990809e+00
2.360322031311990809e+00
2.360322031311990809e+00
2.356759422589800756e+00
2.356759422589800756e+00
2.356759422589800756e+00
2.313633106479079604e+00
2.313633106479079604e+00
2.313633106479079604e+00
2.313633106479079604e+00
2.333508713034455617e+00
2.333508713034455617e+00
2.333508713034455617e+00
2.359009491256446989e+00
2.359009491256446989e+00
2.359009491256446989e+00
2.306882900479140464e+00
2.306882900479140464e+00
2.306882900479140464e+00
2.306882900479140464e+00
2.276694479201635701e+00
2.276694479201635701e+00
2.276694479201635701e+00
2.286069765312662039e+00
2.286069765312662039e+00
2.286069765312662039e+00
2.286069765312662039e+00
2.194754478591265823e+00
2.194754478591265823e+00
2.194754478591265823e+00
2.193254432813501520e+00
2.193254432813501520e+00
2.193254432813501520e+00
2.186504226813562823e+00
2.186504226813562823e+00
2.186504226813562823e+00
2.186504226813562823e+00
2.143565416425061709e+00
2.143565416425061709e+00
2.143565416425061709e+00
2.211817499313333268e+00
2.211817499313333268e+00
2.211817499313333268e+00
2.211817499313333268e+00
2.279507065034943825e+00
2.279507065034943825e+00
2.279507065034943825e+00
2.350196722312082542e+00
2.350196722312082542e+00
2.350196722312082542e+00
2.350196722312082542e+00
2.293569994201483109e+00
2.293569994201483109e+00
2.293569994201483109e+00
2.282882168034912951e+00
2.282882168034912951e+00
2.282882168034912951e+00
2.337071321756645670e+00
2.337071321756645670e+00
2.337071321756645670e+00
2.337071321756645670e+00
2.322070863979003530e+00
2.322070863979003530e+00
2.322070863979003530e+00
2.305570360423596643e+00
2.305570360423596643e+00
2.305570360423596643e+00
2.305570360423596643e+00
2.294132511368144556e+00
2.294132511368144556e+00
2.294132511368144556e+00
2.229443037202063049e+00
2.229443037202063049e+00
2.229443037202063049e+00
2.212942533646656607e+00
2.212942533646656607e+00
2.212942533646656607e+00
2.212942533646656607e+00
2.224755394146549659e+00
2.224755394146549659e+00
2.224755394146549659e+00
2.234318185979796478e+00
2.234318185979796478e+00
2.234318185979796478e+00
2.234318185979796478e+00
2.199629627368999252e+00
2.199629627368999252e+00
2.199629627368999252e+00
2.228130497146519229e+00
2.228130497146519229e+00
2.228130497146519229e+00
2.228130497146519229e+00
2.223817865535447247e+00
2.223817865535447247e+00
2.223817865535447247e+00
2.215942625202185212e+00
2.215942625202185212e+00
2.215942625202185212e+00
2.291132419812616394e+00
2.291132419812616394e+00
2.291132419812616394e+00
2.291132419812616394e+00
2.317758232367931104e+00
2.317758232367931104e+00
2.317758232367931104e+00
2.339133884701071420e+00
2.339133884701071420e+00
2.339133884701071420e+00
2.339133884701071420e+00
2.324695944090090727e+00
2.324695944090090727e+00
2.324695944090090727e+00
2.282319650868251504e+00
2.282319650868251504e+00
2.282319650868251504e+00
2.305382854701376161e+00
2.305382854701376161e+00
2.305382854701376161e+00
2.305382854701376161e+00
2.222505325479903426e+00
2.222505325479903426e+00
2.222505325479903426e+00
2.141502853480635959e+00
2.141502853480635959e+00
2.141502853480635959e+00
2.141502853480635959e+00
2.227192968535416817e+00
2.227192968535416817e+00
2.227192968535416817e+00
2.190816858424634361e+00
2.190816858424634361e+00
2.190816858424634361e+00
2.152940702536088047e+00
2.152940702536088047e+00
2.152940702536088047e+00
2.152940702536088047e+00
2.233380657368694511e+00
2.233380657368694511e+00
2.233380657368694511e+00
2.362947111423078006e+00
2.362947111423078006e+00
2.362947111423078006e+00
2.362947111423078006e+00
2.337633838923307117e+00
2.337633838923307117e+00
2.337633838923307117e+00
2.335383770256660885e+00
2.335383770256660885e+00
2.335383770256660885e+00
2.297320108645893644e+00
2.297320108645893644e+00
2.297320108645893644e+00
2.297320108645893644e+00
2.231318094424268317e+00
2.231318094424268317e+00
2.231318094424268317e+00
2.280632099368266719e+00
2.280632099368266719e+00
2.280632099368266719e+00
2.280632099368266719e+00
2.321320841090121156e+00
2.321320841090121156e+00
2.321320841090121156e+00
2.336508804589983779e+00
2.336508804589983779e+00
2.336508804589983779e+00
2.378322580645161111e+00
2.378322580645161111e+00
2.378322580645161111e+00
2.378322580645161111e+00
2.276506973479415219e+00
2.276506973479415219e+00
2.276506973479415219e+00
2.164753563035981099e+00
2.164753563035981099e+00
2.164753563035981099e+00
2.102876674703207716e+00
2.102876674703207716e+00
2.102876674703207716e+00
2.102876674703207716e+00
2.165878597369304437e+00
2.165878597369304437e+00
2.165878597369304437e+00
2.242943449201941331e+00
2.242943449201941331e+00
2.242943449201941331e+00
2.242943449201941331e+00
2.321133335367900674e+00
2.321133335367900674e+00
2.321133335367900674e+00
2.316070680867946319e+00
2.316070680867946319e+00
2.316070680867946319e+00
2.316070680867946319e+00
2.326758507034516477e+00
2.326758507034516477e+00
2.326758507034516477e+00
2.389760429700613198e+00
2.389760429700613198e+00
2.389760429700613198e+00
2.311195532090212890e+00
2.311195532090212890e+00
2.311195532090212890e+00
2.311195532090212890e+00
2.214442579424420909e+00
2.214442579424420909e+00
2.214442579424420909e+00
2.180316537980285130e+00
2.180316537980285130e+00
2.180316537980285130e+00
2.180316537980285130e+00
2.234693197424237443e+00
2.234693197424237443e+00
2.234693197424237443e+00
2.224567888424329176e+00
2.224567888424329176e+00
2.224567888424329176e+00
2.218567705313272853e+00
2.218567705313272853e+00
2.218567705313272853e+00
2.218567705313272853e+00
2.183129123813593253e+00
2.183129123813593253e+00
2.183129123813593253e+00
2.241255897701956545e+00
2.241255897701956545e+00
2.241255897701956545e+00
2.241255897701956545e+00
2.272944364757225166e+00
2.272944364757225166e+00
2.272944364757225166e+00
2.300507705923642732e+00
2.300507705923642732e+00
2.300507705923642732e+00
2.278194524979400004e+00
2.278194524979400004e+00
2.278194524979400004e+00
2.278194524979400004e+00
2.262819055757316900e+00
2.262819055757316900e+00
2.262819055757316900e+00
2.280257087923826198e+00
2.280257087923826198e+00
2.280257087923826198e+00
2.280257087923826198e+00
2.268256721701712220e+00
2.268256721701712220e+00
2.268256721701712220e+00
2.310820520645771925e+00
2.310820520645771925e+00
2.310820520645771925e+00
2.338008850367748082e+00
2.338008850367748082e+00
2.338008850367748082e+00
2.338008850367748082e+00
2.304820337534714714e+00
2.304820337534714714e+00
2.304820337534714714e+00
2.197192052980132537e+00
2.197192052980132537e+00
2.197192052980132537e+00
2.197192052980132537e+00
2.208067384868923178e+00
2.208067384868923178e+00
2.208067384868923178e+00
2.305007843256935196e+00
2.305007843256935196e+00
2.305007843256935196e+00
2.316070680867946319e+00
2.316070680867946319e+00
2.316070680867946319e+00
2.316070680867946319e+00
2.269569261757255596e+00
2.269569261757255596e+00
2.269569261757255596e+00
2.234505691702016961e+00
2.234505691702016961e+00
2.234505691702016961e+00
2.234505691702016961e+00
2.362572099978637485e+00
2.362572099978637485e+00
2.362572099978637485e+00
2.364822168645283273e+00
2.364822168645283273e+00
2.364822168645283273e+00
2.364822168645283273e+00
2.272006836146122755e+00
2.272006836146122755e+00
2.272006836146122755e+00
2.285319742423780109e+00
2.285319742423780109e+00
2.285319742423780109e+00
2.224005371257667729e+00
2.224005371257667729e+00
2.224005371257667729e+00
2.224005371257667729e+00
2.197004547257912055e+00
2.197004547257912055e+00
2.197004547257912055e+00
2.260193975646229259e+00
2.260193975646229259e+00
2.260193975646229259e+00
2.260193975646229259e+00
2.240505874813074172e+00
2.240505874813074172e+00
2.240505874813074172e+00
2.268256721701712220e+00
2.268256721701712220e+00
2.268256721701712220e+00
2.227755485702078264e+00
2.227755485702078264e+00
2.227755485702078264e+00
2.227755485702078264e+00
2.194566972869045340e+00
2.194566972869045340e+00
2.194566972869045340e+00
2.206004821924497428e+00
2.206004821924497428e+00
2.206004821924497428e+00
2.206004821924497428e+00
2.196254524369030126e+00
2.196254524369030126e+00
2.196254524369030126e+00
2.278569536423841413e+00
2.278569536423841413e+00
2.278569536423841413e+00
2.310445509201330516e+00
2.310445509201330516e+00
2.310445509201330516e+00
2.310445509201330516e+00
2.296382580034791232e+00
2.296382580034791232e+00
2.296382580034791232e+00
2.347009125034333454e+00
2.347009125034333454e+00
2.347009125034333454e+00
2.347009125034333454e+00
2.328446058534500818e+00
2.328446058534500818e+00
2.328446058534500818e+00
2.277819513534959039e+00
2.277819513534959039e+00
2.277819513534959039e+00
2.277819513534959039e+00
2.290569902645954947e+00
2.290569902645954947e+00
2.290569902645954947e+00
2.263381572923978347e+00
2.263381572923978347e+00
2.263381572923978347e+00
2.234505691702016961e+00
2.234505691702016961e+00
2.234505691702016961e+00
2.234505691702016961e+00
2.148253059480575100e+00
2.148253059480575100e+00
2.064813013092440475e+00
2.174316354869228363e+00
2.174316354869228363e+00
2.251193700979644330e+00
2.251193700979644330e+00
2.215567613757744247e+00
2.218380199591051927e+00
2.218380199591051927e+00
2.289069856868190644e+00
2.289069856868190644e+00
2.362197088534196077e+00
2.376822534867396808e+00
2.376822534867396808e+00
2.437386883144627259e+00
2.344384044923245813e+00
2.344384044923245813e+00
2.314383129367961978e+00
2.314383129367961978e+00
2.318508255256813033e+00
2.318883266701254442e+00
2.318883266701254442e+00
2.250818689535202921e+00
2.250818689535202921e+00
2.219317728202154782e+00
2.214817590868861874e+00
2.214817590868861874e+00
2.215755119479964730e+00
2.215755119479964730e+00
2.245568529313028083e+00
2.318695760979033516e+00
2.318695760979033516e+00
2.215755119479964730e+00
2.285132236701559627e+00
2.285132236701559627e+00
2.340071413312173831e+00
2.340071413312173831e+00
2.300695211645863214e+00
2.285507248146000592e+00
2.285507248146000592e+00
2.276506973479415219e+00
2.276506973479415219e+00
2.138315256202887316e+00
2.212192510757774677e+00
2.212192510757774677e+00
2.262256538590655452e+00
2.262256538590655452e+00
2.275944456312753772e+00
2.256256355479598685e+00
2.230943082979827352e+00
2.230943082979827352e+00
2.295632557145908859e+00
2.279319559312723342e+00
2.279319559312723342e+00
2.233568163090914993e+00
2.233568163090914993e+00
2.205817316202276945e+00
2.274444410534989469e+00
2.274444410534989469e+00
2.314383129367961978e+00
2.314383129367961978e+00
2.308757957701345731e+00
2.335571275978881367e+00
2.335571275978881367e+00
2.213692556535538980e+00
2.138127750480666833e+00
2.138127750480666833e+00
2.189691824091311467e+00
2.189691824091311467e+00
2.271631824701681346e+00
2.270506790368358452e+00
2.270506790368358452e+00
2.243505966368602778e+00
2.243505966368602778e+00
2.282882168034912951e+00
2.323758415478988315e+00
2.323758415478988315e+00
2.428761619922483295e+00
2.428761619922483295e+00
2.369697317423017147e+00
2.289069856868190644e+00
2.289069856868190644e+00
2.239193334757530351e+00
2.239193334757530351e+00
2.165316080202642990e+00
2.147878048036134135e+00
2.147878048036134135e+00
2.200004638813440216e+00
2.239755851924192243e+00
2.239755851924192243e+00
2.270131778923917043e+00
2.270131778923917043e+00
2.302945280312509890e+00
2.233943174535355514e+00
2.233943174535355514e+00
2.218942716757713818e+00
2.218942716757713818e+00
2.368197271645252844e+00
2.327133518478957885e+00
2.327133518478957885e+00
2.299945188756981285e+00
2.299945188756981285e+00
2.297507614368114126e+00
2.224005371257667729e+00
2.244818506424146598e+00
2.244818506424146598e+00
2.334821253089998994e+00
2.345696584978789634e+00
2.345696584978789634e+00
2.263381572923978347e+00
2.263381572923978347e+00
2.210317453535568966e+00
2.239005829035309869e+00
2.239005829035309869e+00
2.094251411481063307e+00
2.094251411481063307e+00
2.105501754814294912e+00
2.248193609424115724e+00
2.248193609424115724e+00
2.377760063478499664e+00
2.359384502700888397e+00
2.359384502700888397e+00
2.324133426923429280e+00
2.324133426923429280e+00
2.392760521256141804e+00
2.251568712424085295e+00
2.251568712424085295e+00
2.234318185979796478e+00
2.234318185979796478e+00
2.308945463423566213e+00
2.278944547868282378e+00
2.278944547868282378e+00
2.286819788201544412e+00
2.286819788201544412e+00
2.274069399090548504e+00
2.224567888424329176e+00
2.224567888424329176e+00
2.230380565813165905e+00
2.253068758201849597e+00
2.253068758201849597e+00
2.246693563646351421e+00
2.246693563646351421e+00
2.237130771813104602e+00
2.218755211035493335e+00
2.218755211035493335e+00
2.352071779534287366e+00
2.352071779534287366e+00
2.360509537034211291e+00
2.351321756645405436e+00
2.351321756645405436e+00
2.331071138645588459e+00
2.226255439924313961e+00
2.226255439924313961e+00
2.169816217535935454e+00
2.169816217535935454e+00
2.190441846980193397e+00
2.239005829035309869e+00
2.239005829035309869e+00
2.239943357646412725e+00
2.239943357646412725e+00
2.179191503646961792e+00
2.188941801202429094e+00
2.188941801202429094e+00
2.253818781090731527e+00
2.253818781090731527e+00
2.411136082033753514e+00
2.427074068422498510e+00
2.427074068422498510e+00
2.273506881923887057e+00
2.275006927701650916e+00
2.275006927701650916e+00
2.290007385479293500e+00
2.290007385479293500e+00
2.292257454145939732e+00
2.289257362590411127e+00
2.289257362590411127e+00
2.275194433423871843e+00
2.275194433423871843e+00
2.317195715201269657e+00
2.301445234534745587e+00
2.301445234534745587e+00
2.218567705313272853e+00
2.178441480758079862e+00
2.178441480758079862e+00
2.106439283425397324e+00
2.106439283425397324e+00
2.107939329203161627e+00
2.227005462813196335e+00
2.227005462813196335e+00
2.314008117923521013e+00
2.314008117923521013e+00
2.339321390423291458e+00
2.367447248756370914e+00
2.367447248756370914e+00
2.355634388256477418e+00
2.355634388256477418e+00
2.309695486312448587e+00
2.225130405590991067e+00
2.225130405590991067e+00
2.235630726035340299e+00
2.236943266090884119e+00
2.236943266090884119e+00
2.298632648701437464e+00
2.298632648701437464e+00
2.237505783257545566e+00
2.153128208258308529e+00
2.153128208258308529e+00
2.169441206091494490e+00
2.169441206091494490e+00
2.381885189367351607e+00
2.404198370311593891e+00
2.404198370311593891e+00
2.337071321756645670e+00
2.337071321756645670e+00
2.356946928312021239e+00
2.371384868923001932e+00
2.371384868923001932e+00
2.236193243202001746e+00
2.155753288369396170e+00
2.155753288369396170e+00
2.107939329203161627e+00
2.107939329203161627e+00
2.183691640980254700e+00
2.268631733146153184e+00
2.268631733146153184e+00
2.268256721701712220e+00
2.268256721701712220e+00
2.260568987090670667e+00
2.177316446424756524e+00
2.177316446424756524e+00
2.178816492202520827e+00
2.178816492202520827e+00
2.301632740256966070e+00
2.383947752311777357e+00
2.383947752311777357e+00
2.355259376812036454e+00
2.355259376812036454e+00
2.370259834589678594e+00
2.385822809533982625e+00
2.385822809533982625e+00
2.308757957701345731e+00
2.220630268257698603e+00
2.220630268257698603e+00
2.197942075869014911e+00
2.197942075869014911e+00
2.263944090090640238e+00
2.264131595812860720e+00
2.264131595812860720e+00
2.195504501480147752e+00
2.195504501480147752e+00
2.155003265480513797e+00
2.123502304147465658e+00
2.123502304147465658e+00
2.220630268257698603e+00
2.220630268257698603e+00
2.374384960478530537e+00
2.451637318033387469e+00
2.451637318033387469e+00
2.335946287423322332e+00
2.368759788811914291e+00
2.368759788811914291e+00
2.325820978423414065e+00
2.325820978423414065e+00
2.291132419812616394e+00
2.139440290536210654e+00
2.139440290536210654e+00
2.207504867702261730e+00
2.207504867702261730e+00
2.215005096591082356e+00
2.234130680257575996e+00
2.234130680257575996e+00
2.164753563035981099e+00
2.164753563035981099e+00
2.251193700979644330e+00
2.260193975646229259e+00
2.260193975646229259e+00
2.289257362590411127e+00
2.434199285866878171e+00
2.434199285866878171e+00
2.408886013367107282e+00
2.408886013367107282e+00
2.421636402478102745e+00
2.325633472701193583e+00
2.325633472701193583e+00
2.183316629535813735e+00
2.183316629535813735e+00
2.158378368480483367e+00
2.171878780480361648e+00
2.171878780480361648e+00
2.251381206701864812e+00
2.251381206701864812e+00
2.250068666646320992e+00
2.165503585924863472e+00
2.165503585924863472e+00
2.101564134647663895e+00
2.101564134647663895e+00
2.114689535203100768e+00
2.234880703146458369e+00
2.234880703146458369e+00
2.309695486312448587e+00
2.217630176702169997e+00
2.217630176702169997e+00
2.322633381145664977e+00
2.322633381145664977e+00
2.445824640644550740e+00
2.420323862422559369e+00
2.420323862422559369e+00
2.376260017700735361e+00
2.376260017700735361e+00
2.309132969145787140e+00
2.151065645313883223e+00
2.151065645313883223e+00
2.203754753257850751e+00
2.203754753257850751e+00
2.303507797479171337e+00
2.291507431257057803e+00
2.291507431257057803e+00
2.194191961424603932e+00
2.191754387035737217e+00
2.191754387035737217e+00
2.335571275978881367e+00
2.335571275978881367e+00
2.325820978423414065e+00
2.329008575701162709e+00
2.329008575701162709e+00
2.303882808923612302e+00
2.303882808923612302e+00
2.267131687368389326e+00
2.194004455702383449e+00
2.194004455702383449e+00
2.333696218756676100e+00
2.372134891811884305e+00
2.372134891811884305e+00
2.289257362590411127e+00
2.289257362590411127e+00
2.119377178258613714e+00
2.147503036591693171e+00
2.147503036591693171e+00
2.215192602313302839e+00
2.215192602313302839e+00
2.163816034424878687e+00
2.189129306924649576e+00
2.189129306924649576e+00
2.357696951200903612e+00
2.357696951200903612e+00
2.411698599200414961e+00
2.392198004089480357e+00
2.392198004089480357e+00
2.365572191534165203e+00
2.245193517868587563e+00
2.245193517868587563e+00
2.267131687368389326e+00
2.267131687368389326e+00
2.299945188756981285e+00
2.192504409924619146e+00
2.192504409924619146e+00
2.081501022370067400e+00
2.081501022370067400e+00
2.202254707480086449e+00
2.264131595812860720e+00
2.264131595812860720e+00
2.319633289590136371e+00
2.319633289590136371e+00
2.255881344035157721e+00
2.260381481368449741e+00
2.260381481368449741e+00
2.318883266701254442e+00
2.318883266701254442e+00
2.194379467146824858e+00
2.367259743034150432e+00
2.367259743034150432e+00
2.461012604144413807e+00
2.296007568590349823e+00
2.296007568590349823e+00
2.169628711813714972e+00
2.169628711813714972e+00
2.046624958037049247e+00
2.087501205481124167e+00
2.087501205481124167e+00
2.372509903256325270e+00
2.372509903256325270e+00
2.444512100589007364e+00
2.463825189977721486e+00
2.463825189977721486e+00
2.156315805536057617e+00
2.156315805536057617e+00
2.007623767815180038e+00
2.292069948423719250e+00
2.292069948423719250e+00
2.308945463423566213e+00
2.308945463423566213e+00
2.165878597369304437e+00
2.351884273812066883e+00
2.351884273812066883e+00
2.354134342478713116e+00
2.301445234534745587e+00
2.301445234534745587e+00
2.216317636646626177e+00
2.216317636646626177e+00
2.220067751091036712e+00
2.416011230811487387e+00
2.416011230811487387e+00
2.271444318979460864e+00
2.271444318979460864e+00
2.274631916257209951e+00
2.219880245368816230e+00
2.219880245368816230e+00
2.252693746757408633e+00
2.252693746757408633e+00
2.214630085146641392e+00
2.348509170812097757e+00
2.348509170812097757e+00
2.260943998535111632e+00
2.329383587145603673e+00
2.329383587145603673e+00
2.457262489700002828e+00
2.457262489700002828e+00
2.399698232978301426e+00
2.249318643757439062e+00
2.249318643757439062e+00
2.241818414868617992e+00
2.241818414868617992e+00
2.260006469924008776e+00
2.274444410534989469e+00
2.274444410534989469e+00
2.220630268257698603e+00
2.220630268257698603e+00
2.107001800592058771e+00
2.092188848536637558e+00
2.092188848536637558e+00
2.220255256813257638e+00
2.220255256813257638e+00
2.292257454145939732e+00
2.315883175145725836e+00
2.315883175145725836e+00
2.355259376812036454e+00
2.144690450758385047e+00
2.144690450758385047e+00
2.082063539536728847e+00
2.082063539536728847e+00
2.317758232367931104e+00
2.358259468367565059e+00
2.358259468367565059e+00
2.312508072145756710e+00
2.312508072145756710e+00
2.390322946867275089e+00
2.340821436201055761e+00
2.340821436201055761e+00
2.339883907589953349e+00
2.339883907589953349e+00
2.247631092257453833e+00
2.155940794091616652e+00
2.155940794091616652e+00
2.180316537980285130e+00
2.083376079592272667e+00
2.083376079592272667e+00
2.075125827814569668e+00
2.075125827814569668e+00
2.357509445478682686e+00
2.549327799310281861e+00
2.549327799310281861e+00
2.449762260811182202e+00
2.449762260811182202e+00
2.275756950590533290e+00
2.191566881313516735e+00
2.191566881313516735e+00
2.139627796258431136e+00
2.137002716147343495e+00
2.137002716147343495e+00
2.308382946256904766e+00
2.308382946256904766e+00
2.287757316812646824e+00
2.331821161534470832e+00
2.331821161534470832e+00
2.461575121311075254e+00
2.461575121311075254e+00
2.298257637256996500e+00
2.185754203924680450e+00
2.185754203924680450e+00
2.063125461592455689e+00
2.063125461592455689e+00
2.115064546647541732e+00
2.317195715201269657e+00
2.317195715201269657e+00
2.304632831812494231e+00
2.304632831812494231e+00
2.295445051423688376e+00
2.516139286477248493e+00
2.516139286477248493e+00
2.501701345866268245e+00
2.464950224311044824e+00
2.464950224311044824e+00
1.999561021759697299e+00
1.999561021759697299e+00
2.042499832148198191e+00
1.990185735648670962e+00
1.990185735648670962e+00
2.119752189703054679e+00
2.119752189703054679e+00
2.456137455366679934e+00
2.541077547532578418e+00
2.541077547532578418e+00
2.389760429700613198e+00
2.389760429700613198e+00
2.316258186590166801e+00
2.209567430646687480e+00
2.209567430646687480e+00
2.152565691091647082e+00
2.152565691091647082e+00
2.308945463423566213e+00
2.318883266701254442e+00
2.318883266701254442e+00
2.282507156590471986e+00
2.167378643147068740e+00
2.167378643147068740e+00
2.258506424146244473e+00
2.258506424146244473e+00
2.222880336924344391e+00
2.326383495590075512e+00
2.326383495590075512e+00
2.326571001312295994e+00
2.326571001312295994e+00
2.364822168645283273e+00
2.167378643147068740e+00
2.167378643147068740e+00
2.103064180425428198e+00
2.103064180425428198e+00
2.289632374034852091e+00
2.378135074922940628e+00
2.378135074922940628e+00
2.231505600146489243e+00
2.293194982757042144e+00
2.293194982757042144e+00
2.325258461256752618e+00
2.325258461256752618e+00
2.222880336924344391e+00
2.233193151646474028e+00
2.233193151646474028e+00
2.123689809869686140e+00
2.123689809869686140e+00
2.161753471480452937e+00
2.238068300424207457e+00
2.238068300424207457e+00
2.151065645313883223e+00
2.151065645313883223e+00
2.434386791589098653e+00
2.403635853144932444e+00
2.403635853144932444e+00
2.397260658589434712e+00
2.397260658589434712e+00
2.254193792535172935e+00
2.245568529313028083e+00
2.245568529313028083e+00
2.284757225257118218e+00
2.333321207312235135e+00
2.333321207312235135e+00
2.296945097201452679e+00
2.296945097201452679e+00
2.309695486312448587e+00
2.174316354869228363e+00
2.174316354869228363e+00
2.168128666035950669e+00
2.168128666035950669e+00
2.438324411755729670e+00
2.460262581255531433e+00
2.460262581255531433e+00
2.240318369090853690e+00
2.240318369090853690e+00
1.995435895870845799e+00
1.980247932370982955e+00
1.980247932370982955e+00
2.278194524979400004e+00
2.278194524979400004e+00
2.402885830256050514e+00
2.208442396313364142e+00
2.208442396313364142e+00
2.181816583758049433e+00
2.181816583758049433e+00
2.239005829035309869e+00
2.354509353923154524e+00
2.354509353923154524e+00
2.411323587755973996e+00
2.387697866756187448e+00
2.387697866756187448e+00
2.372322397534104788e+00
2.372322397534104788e+00
2.278757042146061895e+00
2.185379192480239485e+00
2.185379192480239485e+00
2.245943540757469048e+00
2.295257545701467894e+00
2.295257545701467894e+00
2.088626239814447505e+00
2.088626239814447505e+00
2.231505600146489243e+00
2.272381847590563719e+00
2.272381847590563719e+00
2.410948576311533031e+00
2.410948576311533031e+00
2.459512558366649504e+00
2.279694570757164307e+00
2.279694570757164307e+00
2.270694296090578934e+00
2.209379924924466998e+00
2.209379924924466998e+00
2.230568071535386387e+00
2.230568071535386387e+00
2.221942808313242423e+00
2.096876491592150504e+00
2.096876491592150504e+00
2.145252967925046494e+00
2.145252967925046494e+00
2.201317178868984037e+00
2.099501571703238145e+00
2.099501571703238145e+00
2.197379558702353020e+00
2.197379558702353020e+00
2.405135898922696747e+00
2.486513382366405178e+00
2.486513382366405178e+00
2.259443952757347329e+00
2.237880794701986531e+00
2.237880794701986531e+00
2.458950041199987613e+00
2.458950041199987613e+00
2.467387798699911539e+00
2.302945280312509890e+00
2.302945280312509890e+00
2.300132694479201767e+00
2.300132694479201767e+00
2.280819605090487201e+00
2.272569353312784202e+00
2.272569353312784202e+00
2.239568346201971760e+00
2.239568346201971760e+00
2.176003906369212704e+00
2.217442670979949515e+00
2.217442670979949515e+00
2.306695394756919981e+00
2.306695394756919981e+00
2.309507980590228104e+00
2.296570085757011714e+00
2.296570085757011714e+00
2.059000335703604190e+00
1.921558641315958216e+00
1.921558641315958216e+00
2.300695211645863214e+00
2.300695211645863214e+00
2.463637684255501004e+00
2.446012146366771223e+00
2.446012146366771223e+00
2.416573747978148834e+00
2.416573747978148834e+00
2.252318735312967224e+00
2.127064912869655711e+00
2.127064912869655711e+00
2.256256355479598685e+00
2.256256355479598685e+00
2.399323221533860018e+00
2.076625873592333971e+00
2.076625873592333971e+00
2.157440839869380955e+00
2.157440839869380955e+00
2.464575212866603859e+00
2.470762901699881109e+00
2.470762901699881109e+00
2.216505142368846659e+00
2.102126651814325342e+00
2.102126651814325342e+00
2.201692190313425002e+00
2.201692190313425002e+00
2.420511368144779851e+00
2.357696951200903612e+00
2.357696951200903612e+00
2.174316354869228363e+00
2.174316354869228363e+00
2.206192327646717910e+00
2.289819879757073018e+00
2.289819879757073018e+00
2.315320657979064389e+00
2.256256355479598685e+00
2.256256355479598685e+00
2.270506790368358452e+00
2.270506790368358452e+00
2.320570818201239227e+00
2.407385967589342979e+00
2.407385967589342979e+00
2.443949583422345917e+00
2.443949583422345917e+00
2.305570360423596643e+00
2.055062715536973172e+00
2.055062715536973172e+00
1.995435895870845799e+00
1.995435895870845799e+00
2.192504409924619146e+00
2.411323587755973996e+00
2.411323587755973996e+00
2.311945554979094819e+00
2.311945554979094819e+00
2.248006103701895242e+00
2.228318002868740155e+00
2.228318002868740155e+00
2.239755851924192243e+00
2.287007293923764895e+00
2.287007293923764895e+00
2.328633564256721744e+00
2.328633564256721744e+00
2.387885372478407930e+00
2.148815576647236547e+00
2.148815576647236547e+00
2.082813562425611220e+00
2.082813562425611220e+00
2.157253334147160473e+00
2.139815301980651618e+00
2.139815301980651618e+00
1.997685964537492032e+00
1.997685964537492032e+00
2.128564958647419569e+00
2.423323953978087530e+00
2.423323953978087530e+00
2.538077455977050256e+00
2.538077455977050256e+00
2.574078554643390859e+00
2.505263954588457853e+00
2.505263954588457853e+00
2.436636860255744885e+00
2.273694387646107540e+00
2.273694387646107540e+00
2.091251319925535146e+00
2.091251319925535146e+00
2.253631275368511044e+00
2.373259926145207199e+00
2.373259926145207199e+00
2.215567613757744247e+00
2.215567613757744247e+00
2.212005005035553751e+00
2.262819055757316900e+00
2.262819055757316900e+00
2.181441572313608468e+00
2.212380016479995160e+00
2.212380016479995160e+00
2.482013245033112270e+00
2.482013245033112270e+00
2.313633106479079604e+00
2.161940977202673420e+00
2.161940977202673420e+00
2.231880611590930208e+00
2.231880611590930208e+00
2.289069856868190644e+00
2.122752281258583285e+00
2.122752281258583285e+00
2.025249305703909375e+00
2.025249305703909375e+00
2.275569444868312807e+00
2.255131321146275347e+00
2.255131321146275347e+00
2.371384868923001932e+00
2.371384868923001932e+00
2.476950590533158358e+00
2.344384044923245813e+00
2.344384044923245813e+00
2.341758964812158617e+00
2.341758964812158617e+00
2.278194524979400004e+00
2.252131229590746742e+00
2.252131229590746742e+00
2.053750175481429796e+00
2.010436353648488161e+00
2.010436353648488161e+00
2.249693655201880027e+00
2.249693655201880027e+00
2.223442854091006282e+00
2.334633747367778511e+00
2.334633747367778511e+00
2.537327433088168327e+00
2.537327433088168327e+00
2.382822717978454019e+00
2.228880520035401602e+00
2.228880520035401602e+00
2.237318277535325084e+00
2.237318277535325084e+00
2.363509628589739453e+00
2.269569261757255596e+00
2.269569261757255596e+00
2.224567888424329176e+00
2.032374523148289480e+00
2.032374523148289480e+00
2.044937406537064906e+00
2.044937406537064906e+00
2.081688528092287882e+00
2.357696951200903612e+00
2.357696951200903612e+00
2.527952146977141545e+00
2.527952146977141545e+00
2.553265419476912879e+00
2.531327249977111116e+00
2.531327249977111116e+00
2.397260658589434712e+00
2.397260658589434712e+00
2.335758781701101849e+00
2.311758049256874337e+00
2.311758049256874337e+00
2.060125370036927084e+00
2.060125370036927084e+00
2.274069399090548504e+00
2.233755668813135031e+00
2.233755668813135031e+00
1.956997222815637594e+00
2.038374706259346247e+00
2.038374706259346247e+00
1.930558915982543589e+00
1.930558915982543589e+00
2.224192876979888212e+00
2.310445509201330516e+00
2.310445509201330516e+00
2.432886745811334794e+00
2.432886745811334794e+00
2.446949674977874079e+00
2.432699240089114312e+00
2.432699240089114312e+00
2.579328714865566141e+00
2.579328714865566141e+00
2.464762718588824342e+00
2.346071596423230599e+00
2.346071596423230599e+00
2.191941892757957699e+00
2.040249763481551515e+00
2.040249763481551515e+00
1.633362346263008469e+00
1.633362346263008469e+00
1.869619556260872173e+00
2.379635120700704931e+00
2.379635120700704931e+00
2.567890865810114054e+00
2.567890865810114054e+00
2.331071138645588459e+00
2.325445966978973100e+00
2.325445966978973100e+00
2.495326151310770069e+00
2.495326151310770069e+00
2.368009765923032361e+00
2.467012787255470574e+00
2.467012787255470574e+00
2.267131687368389326e+00
2.224567888424329176e+00
2.224567888424329176e+00
2.195129490035706787e+00
2.195129490035706787e+00
2.154065736869411385e+00
2.254006286812952009e+00
2.254006286812952009e+00
2.187254249702444309e+00
2.187254249702444309e+00
2.150690633869442259e+00
2.247256080813012868e+00
2.247256080813012868e+00
2.242755943479720404e+00
2.242755943479720404e+00
2.280444593646046680e+00
2.210129947813348927e+00
2.368759788811914291e+00
2.368759788811914291e+00
2.444324594866786882e+00
2.344384044923245813e+00
2.344384044923245813e+00
2.286819788201544412e+00
2.286819788201544412e+00
2.215567613757744247e+00
2.318695760979033516e+00
2.318695760979033516e+00
2.438886928922391562e+00
2.438886928922391562e+00
2.477138096255378841e+00
2.157253334147160473e+00
2.157253334147160473e+00
1.845806329538865365e+00
1.845806329538865365e+00
2.116939603869747000e+00
2.260756492812891150e+00
2.260756492812891150e+00
2.347384136478774419e+00
2.268069215979491737e+00
2.268069215979491737e+00
2.300320200201422249e+00
2.300320200201422249e+00
2.270694296090578934e+00
2.236568254646443155e+00
2.236568254646443155e+00
2.265069124423963132e+00
2.265069124423963132e+00
2.363509628589739453e+00
2.414136173589282119e+00
2.414136173589282119e+00
2.488200933866389963e+00
2.488200933866389963e+00
2.416573747978148834e+00
2.268631733146153184e+00
2.268631733146153184e+00
2.133627613147373925e+00
2.133627613147373925e+00
2.127627430036317158e+00
2.147315530869472244e+00
2.147315530869472244e+00
2.100814111758781966e+00
2.145815485091708386e+00
2.145815485091708386e+00
2.079813470870083059e+00
2.079813470870083059e+00
2.404010864589373409e+00
2.515951780755027567e+00
2.515951780755027567e+00
2.302757774590289408e+00
2.302757774590289408e+00
2.022811731315042216e+00
2.286819788201544412e+00
2.286819788201544412e+00
2.228130497146519229e+00
2.274631916257209951e+00
2.274631916257209951e+00
2.344384044923245813e+00
2.262069032868434526e+00
2.262069032868434526e+00
2.198129581591235393e+00
2.175816400646992221e+00
2.175816400646992221e+00
2.207317361980041248e+00
2.207317361980041248e+00
2.238630817590868904e+00
2.427449079866939474e+00
2.427449079866939474e+00
2.413761162144840711e+00
2.378135074922940628e+00
2.378135074922940628e+00
2.394823084200567997e+00
2.394823084200567997e+00
2.432136722922452865e+00
2.220442762535478121e+00
2.220442762535478121e+00
2.202629718924527857e+00
2.202629718924527857e+00
2.053562669759208870e+00
2.241818414868617992e+00
2.241818414868617992e+00
2.200942167424543072e+00
2.182004089480269915e+00
2.182004089480269915e+00
2.255881344035157721e+00
2.255881344035157721e+00
2.430636677144688562e+00
2.345321573534348669e+00
2.345321573534348669e+00
2.168878688924833043e+00
2.168878688924833043e+00
2.254193792535172935e+00
2.363697134311959935e+00
2.363697134311959935e+00
2.405510910367137711e+00
2.405510910367137711e+00
2.336321298867763296e+00
2.404760887478255782e+00
2.404760887478255782e+00
2.324508438367870244e+00
2.162691000091555793e+00
2.162691000091555793e+00
2.195316995757927270e+00
2.195316995757927270e+00
2.133627613147373925e+00
2.011748893704031538e+00
2.011748893704031538e+00
1.935246559038056535e+00
2.203379741813409787e+00
2.203379741813409787e+00
2.269006744590594149e+00
2.269006744590594149e+00
2.287194799645985377e+00
2.540890041810357936e+00
2.540890041810357936e+00
2.550265327921384717e+00
2.550265327921384717e+00
2.397073152867214230e+00
2.331258644367808941e+00
2.331258644367808941e+00
2.122002258369701355e+00
2.122002258369701355e+00
2.018311593981750196e+00
2.172628803369243577e+00
2.172628803369243577e+00
2.231318094424268317e+00
2.285882259590441556e+00
2.285882259590441556e+00
2.215942625202185212e+00
2.215942625202185212e+00
2.387135349589526001e+00
2.412073610644855925e+00
2.412073610644855925e+00
2.250818689535202921e+00
2.250818689535202921e+00
2.353946836756492633e+00
2.340258919034394314e+00
2.340258919034394314e+00
2.308570451979125249e+00
2.308570451979125249e+00
2.136627704702902530e+00
2.275194433423871843e+00
2.275194433423871843e+00
2.398760704367198571e+00
2.393885555589465142e+00
2.393885555589465142e+00
2.196629535813471090e+00
2.196629535813471090e+00
1.987373149815363060e+00
1.974247749259926188e+00
1.974247749259926188e+00
2.045499923703726353e+00
2.045499923703726353e+00
2.405698416089358194e+00
2.432136722922452865e+00
2.432136722922452865e+00
2.397823175756096159e+00
2.397823175756096159e+00
2.372134891811884305e+00
2.150690633869442259e+00
2.150690633869442259e+00
2.264131595812860720e+00
2.229443037202063049e+00
2.229443037202063049e+00
2.250068666646320992e+00
2.250068666646320992e+00
2.202817224646748340e+00
2.246693563646351421e+00
2.246693563646351421e+00
2.327133518478957885e+00
2.327133518478957885e+00
2.277632007812738557e+00
2.273131870479445649e+00
2.273131870479445649e+00
2.178628986480300345e+00
2.178628986480300345e+00
2.422011413922543710e+00
2.404948393200476264e+00
2.404948393200476264e+00
2.430261665700247153e+00
2.430261665700247153e+00
2.134377636036255854e+00
2.247256080813012868e+00
2.247256080813012868e+00
2.404948393200476264e+00
2.272944364757225166e+00
2.272944364757225166e+00
2.299945188756981285e+00
2.299945188756981285e+00
2.123877315591906623e+00
1.943309305093539274e+00
1.943309305093539274e+00
2.197754570146794428e+00
2.197754570146794428e+00
2.309320474868007622e+00
2.182941618091372327e+00
2.197754570146794428e+00
2.197754570146794428e+00
2.339133884701071420e+00
2.339133884701071420e+00
2.443949583422345917e+00
2.478825647755364070e+00
2.478825647755364070e+00
2.401010773033844803e+00
2.401010773033844803e+00
2.219317728202154782e+00
2.220630268257698603e+00
2.220630268257698603e+00
2.202067201757865966e+00
2.202067201757865966e+00
2.200192144535660699e+00
2.149940610980559885e+00
2.149940610980559885e+00
2.389947935422834124e+00
2.389947935422834124e+00
2.276694479201635701e+00
2.306132877590258534e+00
2.306132877590258534e+00
2.248568620868556689e+00
2.160253425702688634e+00
2.160253425702688634e+00
2.085438642536698417e+00
2.085438642536698417e+00
2.240505874813074172e+00
2.186691732535783306e+00
2.186691732535783306e+00
2.423136448255867048e+00
2.423136448255867048e+00
2.472075441755424485e+00
2.413948667867061193e+00
2.413948667867061193e+00
2.365759697256386129e+00
2.365759697256386129e+00
2.268819238868374111e+00
2.125564867091891408e+00
2.125564867091891408e+00
2.077188390758995418e+00
1.938434156315805401e+00
1.938434156315805401e+00
2.124439832758568070e+00
2.124439832758568070e+00
2.521576952421643814e+00
2.671769035920285695e+00
2.671769035920285695e+00
2.571453474532304107e+00
2.571453474532304107e+00
2.341383953367717208e+00
2.097814020203253360e+00
2.097814020203253360e+00
1.908245735038300861e+00
1.908245735038300861e+00
2.203192236091189304e+00
2.261506515701773079e+00
2.261506515701773079e+00
2.094251411481063307e+00
2.094251411481063307e+00
2.138690267647328280e+00
2.158565874202703849e+00
2.158565874202703849e+00
2.296382580034791232e+00
2.296382580034791232e+00
2.485763359477523249e+00
2.429511642811365224e+00
2.429511642811365224e+00
2.227380474257637299e+00
2.227380474257637299e+00
2.264131595812860720e+00
2.359759514145329362e+00
2.359759514145329362e+00
2.211442487868892304e+00
2.211442487868892304e+00
2.179379009369182274e+00
2.320758323923459709e+00
2.320758323923459709e+00
2.456887478255561863e+00
2.456887478255561863e+00
2.539577501754814115e+00
2.278382030701620931e+00
2.278382030701620931e+00
2.009498825037385306e+00
2.192691915646840073e+00
2.192691915646840073e+00
1.940309213538010891e+00
1.940309213538010891e+00
2.359572008423108880e+00
2.445074617755668811e+00
2.445074617755668811e+00
2.418448805200354101e+00
2.418448805200354101e+00
2.164003540147099169e+00
2.205067293313394572e+00
2.205067293313394572e+00
2.376635029145176325e+00
2.376635029145176325e+00
2.336508804589983779e+00
2.318508255256813033e+00
2.318508255256813033e+00
2.230568071535386387e+00
2.230568071535386387e+00
2.157253334147160473e+00
2.112814477980895500e+00
2.112814477980895500e+00
2.088813745536667987e+00
2.125564867091891408e+00
2.125564867091891408e+00
2.193629444257942485e+00
2.193629444257942485e+00
2.153690725424969976e+00
2.325445966978973100e+00
2.325445966978973100e+00
2.329008575701162709e+00
2.329008575701162709e+00
2.355071871089815971e+00
2.485388348033082284e+00
2.485388348033082284e+00
2.488013428144169481e+00
2.488013428144169481e+00
2.307632923368022837e+00
2.212755027924436124e+00
2.212755027924436124e+00
2.136065187536240639e+00
2.273319376201666131e+00
2.273319376201666131e+00
2.302195257423627517e+00
2.302195257423627517e+00
2.203942258980071234e+00
2.080188482314524023e+00
2.080188482314524023e+00
2.407010956144902014e+00
2.407010956144902014e+00
2.461950132755516218e+00
2.223067842646564873e+00
2.223067842646564873e+00
2.312320566423536228e+00
2.474700521866512126e+00
2.474700521866512126e+00
2.242943449201941331e+00
2.251006195257423848e+00
2.251006195257423848e+00
2.415823725089266905e+00
2.415823725089266905e+00
2.088438734092227023e+00
2.016624042481765411e+00
2.016624042481765411e+00
2.274069399090548504e+00
2.274069399090548504e+00
2.360697042756431774e+00
2.210129947813348927e+00
2.210129947813348927e+00
2.054125186925870761e+00
1.979685415204321286e+00
1.979685415204321286e+00
2.200754661702322146e+00
2.200754661702322146e+00
2.516889309366130423e+00
2.460262581255531433e+00
2.460262581255531433e+00
2.369509811700796664e+00
2.369509811700796664e+00
2.275006927701650916e+00
2.200004638813440216e+00
2.200004638813440216e+00
2.230568071535386387e+00
2.230568071535386387e+00
2.439074434644612044e+00
2.298257637256996500e+00
2.298257637256996500e+00
2.153128208258308529e+00
2.307820429090243319e+00
2.307820429090243319e+00
2.053000152592547423e+00
2.053000152592547423e+00
2.218380199591051927e+00
2.258693929868464956e+00
2.258693929868464956e+00
2.163441022980437278e+00
2.163441022980437278e+00
2.329383587145603673e+00
2.514264229255043226e+00
2.514264229255043226e+00
2.409073519089327764e+00
2.409073519089327764e+00
2.324320932645649762e+00
2.167191137424848257e+00
2.167191137424848257e+00
2.155003265480513797e+00
2.155003265480513797e+00
2.121627246925260390e+00
2.256631366924039650e+00
2.256631366924039650e+00
2.353759331034272151e+00
2.293945005645924073e+00
2.293945005645924073e+00
2.198692098757896396e+00
2.198692098757896396e+00
2.246318552201910457e+00
2.424448988311410869e+00
2.424448988311410869e+00
2.347946653645436310e+00
2.243505966368602778e+00
2.243505966368602778e+00
2.040062257759331033e+00
2.149753105258339403e+00
2.149753105258339403e+00
2.242568437757499922e+00
2.242568437757499922e+00
2.153878231147190458e+00
2.186129215369121415e+00
2.186129215369121415e+00
2.302195257423627517e+00
2.302195257423627517e+00
2.330883632923367976e+00
2.282132145146031021e+00
2.282132145146031021e+00
2.376447523422955843e+00
2.376447523422955843e+00
2.251756218146305777e+00
2.302195257423627517e+00
2.302195257423627517e+00
2.289257362590411127e+00
2.381697683645130681e+00
2.381697683645130681e+00
2.303507797479171337e+00
2.303507797479171337e+00
2.263194067201757864e+00
2.183691640980254700e+00
2.183691640980254700e+00
2.116939603869747000e+00
2.116939603869747000e+00
2.246881069368571904e+00
2.293382488479262626e+00
2.293382488479262626e+00
2.313258095034638639e+00
2.313258095034638639e+00
2.265444135868404540e+00
2.114127018036439321e+00
2.114127018036439321e+00
2.076625873592333971e+00
2.076625873592333971e+00
2.286819788201544412e+00
2.414323679311502602e+00
2.414323679311502602e+00
2.232630634479812137e+00
2.410011047700430176e+00
2.410011047700430176e+00
2.335571275978881367e+00
2.335571275978881367e+00
2.444699606311227846e+00
2.266194158757286470e+00
2.266194158757286470e+00
2.214067567979979945e+00
2.214067567979979945e+00
2.377385052034058699e+00
2.363322122867518971e+00
2.363322122867518971e+00
2.298070131534776017e+00
2.125189855647450443e+00
2.125189855647450443e+00
2.164191045869319652e+00
2.009498825037385306e+00
2.009498825037385306e+00
2.249881160924100509e+00
2.249881160924100509e+00
2.377572557756279181e+00
2.341758964812158617e+00
2.341758964812158617e+00
2.170378734702597345e+00
2.103814203314310571e+00
2.103814203314310571e+00
2.254193792535172935e+00
2.254193792535172935e+00
2.431011688589129527e+00
2.359759514145329362e+00
2.359759514145329362e+00
2.461950132755516218e+00
2.461950132755516218e+00
2.310258003479110034e+00
2.292632465590380253e+00
2.292632465590380253e+00
2.055250221259193655e+00
1.937684133426923250e+00
1.937684133426923250e+00
2.256818872646260132e+00
2.256818872646260132e+00
2.394448072756126589e+00
2.364822168645283273e+00
2.364822168645283273e+00
2.447512192144535526e+00
2.447512192144535526e+00
2.287944822534867306e+00
2.145440473647266977e+00
2.145440473647266977e+00
2.295445051423688376e+00
2.303507797479171337e+00
2.303507797479171337e+00
2.128189947202978605e+00
2.128189947202978605e+00
2.045687429425947279e+00
2.196442030091250608e+00
2.196442030091250608e+00
2.249506149479659545e+00
2.249506149479659545e+00
2.353009308145390222e+00
2.333508713034455617e+00
2.333508713034455617e+00
2.313070589312418157e+00
2.326383495590075512e+00
2.326383495590075512e+00
2.410948576311533031e+00
2.410948576311533031e+00
2.365572191534165203e+00
2.332008667256691314e+00
2.332008667256691314e+00
2.150878139591662741e+00
2.150878139591662741e+00
2.304257820368053267e+00
2.271631824701681346e+00
2.271631824701681346e+00
2.216505142368846659e+00
2.216505142368846659e+00
2.130440015869624837e+00
2.121627246925260390e+00
2.121627246925260390e+00
2.232818140202032620e+00
2.232818140202032620e+00
2.230755577257606870e+00
2.302570268868068482e+00
2.302570268868068482e+00
2.249693655201880027e+00
2.273881893368328022e+00
2.255506332590716312e+00
2.336133793145542814e+00
2.474138004699850679e+00
2.474138004699850679e+00
2.385635303811762142e+00
2.385635303811762142e+00
2.277819513534959039e+00
2.323570909756767389e+00
2.323570909756767389e+00
2.029936948759422766e+00
2.029936948759422766e+00
1.938059144871364436e+00
2.407010956144902014e+00
2.407010956144902014e+00
2.425574022644734207e+00
2.425574022644734207e+00
2.296757591479232197e+00
2.302007751701407035e+00
2.302007751701407035e+00
2.331258644367808941e+00
2.331258644367808941e+00
2.372134891811884305e+00
2.284382213812677254e+00
2.284382213812677254e+00
2.217067659535508550e+00
2.173191320535905025e+00
2.173191320535905025e+00
2.119189672536393232e+00
2.119189672536393232e+00
2.280444593646046680e+00
2.406073427533799602e+00
2.406073427533799602e+00
2.370634846034120002e+00
2.370634846034120002e+00
2.191566881313516735e+00
2.067438093203528116e+00
2.067438093203528116e+00
2.135127658925138228e+00
2.096688985869930022e+00
2.096688985869930022e+00
2.281944639423810539e+00
2.281944639423810539e+00
2.393510544145024177e+00
2.362009582811975594e+00
2.362009582811975594e+00
2.330696127201147494e+00
2.330696127201147494e+00
2.295257545701467894e+00
2.340446424756614796e+00
2.340446424756614796e+00
2.337258827478866152e+00
2.337258827478866152e+00
2.286444776757103448e+00
2.258881435590685438e+00
2.258881435590685438e+00
2.380760155034028269e+00
2.270694296090578934e+00
2.270694296090578934e+00
2.231505600146489243e+00
2.231505600146489243e+00
2.200942167424543072e+00
2.099314065981017663e+00
2.099314065981017663e+00
2.201129673146763555e+00
2.201129673146763555e+00
2.293007477034821662e+00
2.256443861201819168e+00
2.256443861201819168e+00
2.257006378368480615e+00
2.337821344645527599e+00
2.337821344645527599e+00
2.256443861201819168e+00
2.256443861201819168e+00
2.209567430646687480e+00
2.374947477645191540e+00
2.374947477645191540e+00
2.365947202978606612e+00
2.433449262977995797e+00
2.433449262977995797e+00
2.284382213812677254e+00
2.284382213812677254e+00
2.173566331980346433e+00
2.141690359202856442e+00
2.141690359202856442e+00
2.271256813257240381e+00
2.271256813257240381e+00
2.195316995757927270e+00
2.044187383648182976e+00
2.044187383648182976e+00
2.071750724814600098e+00
2.334258735923337547e+00
2.334258735923337547e+00
2.484825830866420393e+00
2.484825830866420393e+00
2.444512100589007364e+00
2.366134708700827094e+00
2.366134708700827094e+00
2.234505691702016961e+00
2.234505691702016961e+00
2.048125003814813549e+00
2.144315439313944083e+00
2.144315439313944083e+00
2.330133610034486047e+00
2.330133610034486047e+00
2.225505417035432032e+00
2.250818689535202921e+00
2.250818689535202921e+00
2.230943082979827352e+00
2.230943082979827352e+00
2.404198370311593891e+00
2.346071596423230599e+00
2.346071596423230599e+00
2.337821344645527599e+00
2.337821344645527599e+00
2.326383495590075512e+00
2.298445142979216982e+00
2.298445142979216982e+00
2.193254432813501520e+00
2.286257271034882521e+00
2.286257271034882521e+00
2.389010406811731269e+00
2.389010406811731269e+00
2.319070772423474924e+00
2.257756401257362544e+00
2.257756401257362544e+00
2.126502395702994264e+00
2.126502395702994264e+00
1.967497543259987047e+00
2.003686147648549021e+00
2.003686147648549021e+00
2.303132786034730373e+00
2.517451826532791870e+00
2.517451826532791870e+00
2.403823358867152926e+00
2.329946104312265120e+00
2.266756675923947917e+00
2.266756675923947917e+00
2.222505325479903426e+00
2.222505325479903426e+00
2.190629352702413879e+00
2.194191961424603932e+00
2.194191961424603932e+00
2.245943540757469048e+00
2.308757957701345731e+00
2.308757957701345731e+00
2.377197546311838217e+00
2.377197546311838217e+00
2.407948484756004870e+00
2.317570726645710621e+00
2.317570726645710621e+00
2.263944090090640238e+00
2.263944090090640238e+00
2.192316904202398664e+00
2.129314981536301499e+00
2.129314981536301499e+00
2.118627155369731785e+00
2.118627155369731785e+00
2.238068300424207457e+00
2.392198004089480357e+00
2.392198004089480357e+00
2.382822717978454019e+00
2.382822717978454019e+00
2.408698507644886799e+00
2.297695120090334608e+00
2.297695120090334608e+00
2.155565782647175688e+00
2.193066927091281038e+00
2.193066927091281038e+00
2.151065645313883223e+00
2.151065645313883223e+00
2.227567979979857782e+00
2.334071230201117064e+00
2.334071230201117064e+00
2.212942533646656607e+00
2.212942533646656607e+00
2.245381023590808045e+00
2.395760612811670409e+00
2.395760612811670409e+00
2.407948484756004870e+00
2.407948484756004870e+00
2.325070955534531691e+00
2.287944822534867306e+00
2.287944822534867306e+00
2.163253517258217240e+00
2.055437726981414581e+00
2.055437726981414581e+00
2.091626331369976111e+00
2.091626331369976111e+00
2.372322397534104788e+00
2.409261024811548246e+00
2.409261024811548246e+00
2.210692464980010374e+00
2.210692464980010374e+00
2.209754936368907963e+00
2.263569078646198829e+00
2.263569078646198829e+00
2.313820612201300086e+00
2.313820612201300086e+00
2.347759147923215384e+00
2.298820154423657947e+00
2.298820154423657947e+00
2.212942533646656607e+00
2.244443494979705633e+00
2.244443494979705633e+00
2.230755577257606870e+00
2.276881984923856628e+00
2.276881984923856628e+00
2.308570451979125249e+00
2.308570451979125249e+00
2.348134159367656792e+00
2.341383953367717208e+00
2.341383953367717208e+00
2.278382030701620931e+00
2.278382030701620931e+00
2.250443678090761956e+00
2.255506332590716312e+00
2.255506332590716312e+00
2.155003265480513797e+00
2.155003265480513797e+00
1.993560838648640532e+00
2.204692281868953607e+00
2.204692281868953607e+00
2.313258095034638639e+00
2.386947843867305519e+00
2.386947843867305519e+00
2.309132969145787140e+00
2.309132969145787140e+00
2.333696218756676100e+00
2.371572374645222414e+00
2.371572374645222414e+00
2.333883724478896582e+00
2.333883724478896582e+00
2.231318094424268317e+00
2.271069307535019899e+00
2.271069307535019899e+00
2.181816583758049433e+00
2.181816583758049433e+00
2.205067293313394572e+00
2.212755027924436124e+00
2.212755027924436124e+00
2.172816309091464060e+00
2.282882168034912951e+00
2.282882168034912951e+00
2.338383861812189490e+00
2.338383861812189490e+00
2.351134250923184954e+00
2.228880520035401602e+00
2.228880520035401602e+00
2.267694204535050773e+00
2.267694204535050773e+00
2.302570268868068482e+00
2.380197637867366822e+00
2.380197637867366822e+00
2.299007660145878429e+00
2.299007660145878429e+00
2.205442304757835537e+00
2.270694296090578934e+00
2.270694296090578934e+00
2.276694479201635701e+00
2.276694479201635701e+00
2.299007660145878429e+00
2.199817133091219734e+00
2.199817133091219734e+00
2.221005279702139568e+00
2.233755668813135031e+00
2.233755668813135031e+00
2.144690450758385047e+00
2.144690450758385047e+00
2.465512741477706271e+00
2.465512741477706271e+00
2.361072054200873183e+00
2.315695669423505798e+00
2.315695669423505798e+00
2.268069215979491737e+00
2.268069215979491737e+00
2.228318002868740155e+00
2.238255806146427940e+00
2.238255806146427940e+00
2.225130405590991067e+00
2.252506241035188150e+00
2.252506241035188150e+00
2.213692556535538980e+00
2.213692556535538980e+00
2.220630268257698603e+00
2.191379375591296252e+00
2.191379375591296252e+00
2.204692281868953607e+00
2.204692281868953607e+00
2.186316721091342341e+00
2.176753929258095077e+00
2.176753929258095077e+00
2.317008209479048730e+00
2.348884182256538722e+00
2.348884182256538722e+00
2.331071138645588459e+00
2.331071138645588459e+00
2.445074617755668811e+00
2.350196722312082542e+00
2.350196722312082542e+00
2.305007843256935196e+00
2.305007843256935196e+00
2.229443037202063049e+00
2.212005005035553751e+00
2.212005005035553751e+00
2.215567613757744247e+00
2.215567613757744247e+00
2.199817133091219734e+00
2.184629169591357556e+00
2.184629169591357556e+00
2.119564683980834197e+00
2.312883083590197675e+00
2.312883083590197675e+00
2.476388073366496911e+00
2.476388073366496911e+00
2.379822626422925413e+00
2.343071504867702437e+00
2.343071504867702437e+00
2.335571275978881367e+00
2.335571275978881367e+00
2.391072969756157018e+00
2.266756675923947917e+00
2.266756675923947917e+00
2.133815118869594407e+00
2.133815118869594407e+00
2.099126560258797181e+00
2.216317636646626177e+00
2.216317636646626177e+00
2.204879787591174090e+00
2.204879787591174090e+00
2.106814294869838289e+00
2.159128391369365740e+00
2.159128391369365740e+00
2.263756584368419311e+00
2.263756584368419311e+00
2.284382213812677254e+00
2.337071321756645670e+00
2.270506790368358452e+00
2.270506790368358452e+00
2.413198644978179264e+00
2.413198644978179264e+00
2.432136722922452865e+00
2.383010223700674501e+00
2.383010223700674501e+00
2.271631824701681346e+00
2.271631824701681346e+00
2.198129581591235393e+00
2.050562578203680708e+00
2.050562578203680708e+00
2.225880428479872997e+00
2.225880428479872997e+00
2.306695394756919981e+00
2.324320932645649762e+00
2.324320932645649762e+00
2.270694296090578934e+00
2.251193700979644330e+00
2.251193700979644330e+00
2.205067293313394572e+00
2.205067293313394572e+00
2.255506332590716312e+00
2.284382213812677254e+00
2.284382213812677254e+00
2.230755577257606870e+00
2.230755577257606870e+00
2.272194341868343237e+00
2.283257179479354360e+00
2.283257179479354360e+00
2.243693472090823260e+00
2.243693472090823260e+00
2.224567888424329176e+00
2.228130497146519229e+00
2.228130497146519229e+00
2.241630909146397510e+00
2.241630909146397510e+00
2.282882168034912951e+00
2.344009033478804849e+00
2.344009033478804849e+00
2.348134159367656792e+00
2.251193700979644330e+00
2.251193700979644330e+00
2.312133060701315301e+00
2.312133060701315301e+00
2.389947935422834124e+00
2.284382213812677254e+00
2.284382213812677254e+00
2.224942899868770141e+00
2.224942899868770141e+00
2.287194799645985377e+00
2.299007660145878429e+00
2.299007660145878429e+00
2.140190313425092139e+00
2.140190313425092139e+00
2.235068208868678852e+00
2.277819513534959039e+00
2.277819513534959039e+00
2.117127109591967482e+00
2.117127109591967482e+00
2.100814111758781966e+00
2.130815027314065802e+00
2.130815027314065802e+00
2.309132969145787140e+00
2.309132969145787140e+00
2.455199926755577522e+00
2.456137455366679934e+00
2.380947660756248752e+00
2.329196081423383191e+00
2.329196081423383191e+00
2.300132694479201767e+00
2.173378826258125951e+00
2.173378826258125951e+00
2.209754936368907963e+00
2.209754936368907963e+00
2.252693746757408633e+00
2.263381572923978347e+00
2.263381572923978347e+00
2.326946012756737403e+00
2.326946012756737403e+00
2.272381847590563719e+00
2.167191137424848257e+00
2.167191137424848257e+00
2.205254799035615054e+00
2.205254799035615054e+00
2.312320566423536228e+00
2.326571001312295994e+00
2.326571001312295994e+00
2.353571825312051669e+00
2.283444685201574842e+00
2.283444685201574842e+00
2.197004547257912055e+00
2.197004547257912055e+00
2.161753471480452937e+00
2.139815301980651618e+00
2.139815301980651618e+00
2.202442213202307375e+00
2.202442213202307375e+00
2.241443403424177028e+00
2.361447065645314147e+00
2.361447065645314147e+00
2.322070863979003530e+00
2.322070863979003530e+00
2.195879512924588717e+00
2.218005188146610962e+00
2.218005188146610962e+00
2.295257545701467894e+00
2.290757408368175430e+00
2.290757408368175430e+00
2.320008301034577336e+00
2.320008301034577336e+00
2.377385052034058699e+00
2.309320474868007622e+00
2.309320474868007622e+00
2.273506881923887057e+00
2.273506881923887057e+00
2.266756675923947917e+00
2.255131321146275347e+00
2.255131321146275347e+00
2.254756309701834383e+00
2.254756309701834383e+00
2.230755577257606870e+00
2.233568163090914993e+00
2.233568163090914993e+00
2.220067751091036712e+00
2.220067751091036712e+00
2.168691183202612560e+00
2.192691915646840073e+00
2.192691915646840073e+00
2.310633014923550999e+00
2.242755943479720404e+00
2.242755943479720404e+00
2.278757042146061895e+00
2.297320108645893644e+00
2.297320108645893644e+00
2.362759605700857524e+00
2.362759605700857524e+00
2.401010773033844803e+00
2.383385235145115466e+00
2.383385235145115466e+00
2.301070223090304623e+00
2.301070223090304623e+00
2.130065004425183872e+00
2.173941343424787398e+00
2.173941343424787398e+00
2.191379375591296252e+00
2.149003082369457029e+00
2.149003082369457029e+00
2.218567705313272853e+00
2.218567705313272853e+00
2.182191595202490397e+00
2.282694662312692468e+00
2.282694662312692468e+00
2.337071321756645670e+00
2.337071321756645670e+00
2.443387066255684470e+00
2.404760887478255782e+00
2.404760887478255782e+00
2.279132053590502860e+00
2.155378276924954761e+00
2.155378276924954761e+00
2.232630634479812137e+00
2.232630634479812137e+00
2.299945188756981285e+00
2.265819147312845505e+00
2.265819147312845505e+00
2.231318094424268317e+00
2.231318094424268317e+00
2.236755760368663637e+00
2.255131321146275347e+00
2.255131321146275347e+00
2.296757591479232197e+00
2.296757591479232197e+00
2.259256447035126847e+00
2.220255256813257638e+00
2.220255256813257638e+00
2.304632831812494231e+00
2.304632831812494231e+00
2.316445692312387283e+00
2.286819788201544412e+00
2.286819788201544412e+00
2.307445417645802355e+00
2.331821161534470832e+00
2.331821161534470832e+00
2.280819605090487201e+00
2.280819605090487201e+00
2.297882625812555535e+00
2.204129764702292160e+00
2.204129764702292160e+00
2.105314249092073986e+00
2.105314249092073986e+00
2.041562303537095335e+00
2.106626789147617806e+00
2.106626789147617806e+00
2.329571092867824156e+00
2.329571092867824156e+00
2.399510727256080500e+00
2.380010132145145896e+00
2.380010132145145896e+00
2.314008117923521013e+00
2.263006561479537382e+00
2.263006561479537382e+00
2.223255348368785356e+00
2.239943357646412725e+00
2.239943357646412725e+00
2.296945097201452679e+00
2.296945097201452679e+00
2.359759514145329362e+00
2.334071230201117064e+00
2.334071230201117064e+00
2.218942716757713818e+00
2.203567247535630269e+00
2.203567247535630269e+00
2.208629902035584625e+00
2.208629902035584625e+00
2.256443861201819168e+00
2.282132145146031021e+00
2.282132145146031021e+00
2.166441114535965884e+00
2.166441114535965884e+00
2.276319467757194737e+00
2.268256721701712220e+00
2.268256721701712220e+00
2.268444227423932702e+00
2.268444227423932702e+00
2.369697317423017147e+00
2.307070406201360946e+00
2.307070406201360946e+00
2.304632831812494231e+00
2.304632831812494231e+00
2.321320841090121156e+00
2.250631183812982439e+00
2.250631183812982439e+00
2.224942899868770141e+00
2.182191595202490397e+00
2.182191595202490397e+00
2.199817133091219734e+00
2.199817133091219734e+00
2.194379467146824858e+00
2.222317819757682944e+00
2.222317819757682944e+00
2.323758415478988315e+00
2.323758415478988315e+00
2.406448438978240567e+00
2.359009491256446989e+00
2.359009491256446989e+00
2.335758781701101849e+00
2.335758781701101849e+00
2.272756859035004684e+00
2.179754020813623683e+00
2.179754020813623683e+00
2.152190679647205673e+00
2.152190679647205673e+00
2.263569078646198829e+00
2.304445326090273749e+00
2.304445326090273749e+00
2.247443586535233351e+00
2.225130405590991067e+00
2.225130405590991067e+00
2.151253151036103706e+00
2.151253151036103706e+00
2.167191137424848257e+00
2.308757957701345731e+00
2.308757957701345731e+00
2.364259651478621826e+00
2.364259651478621826e+00
2.374572466200750576e+00
2.313070589312418157e+00
2.313070589312418157e+00
2.300507705923642732e+00
2.300507705923642732e+00
2.263944090090640238e+00
2.225130405590991067e+00
2.225130405590991067e+00
2.248381115146336207e+00
2.262256538590655452e+00
2.262256538590655452e+00
2.214442579424420909e+00
2.214442579424420909e+00
2.213317545091097571e+00
2.213317545091097571e+00
2.213317545091097571e+00
2.244818506424146598e+00
2.244818506424146598e+00
2.327696035645618888e+00
2.341571459089938134e+00
2.341571459089938134e+00
2.319258278145695407e+00
2.319258278145695407e+00
2.332196172978911797e+00
2.289444868312631609e+00
2.289444868312631609e+00
2.210317453535568966e+00
2.218942716757713818e+00
2.218942716757713818e+00
2.210504959257789892e+00
2.210504959257789892e+00
2.257381389812921579e+00
2.150315622425000850e+00
2.150315622425000850e+00
2.175066377758110736e+00
2.175066377758110736e+00
2.214630085146641392e+00
2.219692739646595747e+00
2.219692739646595747e+00
2.173941343424787398e+00
2.173941343424787398e+00
2.280632099368266719e+00
2.378510086367381593e+00
2.378510086367381593e+00
2.400073244422742391e+00
2.366134708700827094e+00
2.366134708700827094e+00
2.333321207312235135e+00
2.333321207312235135e+00
2.302570268868068482e+00
2.229068025757622085e+00
2.229068025757622085e+00
2.245756035035248566e+00
2.245756035035248566e+00
2.259068941312906365e+00
2.238255806146427940e+00
2.238255806146427940e+00
2.251568712424085295e+00
2.251568712424085295e+00
2.247818597979674760e+00
2.264319101535081202e+00
2.264319101535081202e+00
2.280257087923826198e+00
2.280257087923826198e+00
2.231318094424268317e+00
2.248006103701895242e+00
2.248006103701895242e+00
2.260381481368449741e+00
2.196817041535691573e+00
2.196817041535691573e+00
2.192504409924619146e+00
2.265256630146183614e+00
2.265256630146183614e+00
2.272756859035004684e+00
2.272756859035004684e+00
2.287382305368205859e+00
2.284007202368236289e+00
2.284007202368236289e+00
2.262256538590655452e+00
2.261131504257332114e+00
2.261131504257332114e+00
2.244818506424146598e+00
2.244818506424146598e+00
2.233193151646474028e+00
2.283069673757133433e+00
2.283069673757133433e+00
2.366509720145268059e+00
2.366509720145268059e+00
2.333508713034455617e+00
2.257756401257362544e+00
2.257756401257362544e+00
2.257381389812921579e+00
2.257381389812921579e+00
2.285507248146000592e+00
2.255506332590716312e+00
2.255506332590716312e+00
2.212567522202215642e+00
2.210692464980010374e+00
2.210692464980010374e+00
2.200942167424543072e+00
2.200942167424543072e+00
2.196629535813471090e+00
2.213130039368877089e+00
2.213130039368877089e+00
2.282319650868251504e+00
2.282319650868251504e+00
2.323383404034546906e+00
2.352821802423169739e+00
2.352821802423169739e+00
2.362947111423078006e+00
2.362947111423078006e+00
2.367447248756370914e+00
2.295070039979247412e+00
2.295070039979247412e+00
2.242193426313058957e+00
2.247068575090792386e+00
2.247068575090792386e+00
2.176191412091433186e+00
2.176191412091433186e+00
2.231130588702047834e+00
2.214630085146641392e+00
2.214630085146641392e+00
2.247068575090792386e+00
2.185941709646900932e+00
2.185941709646900932e+00
2.217255165257729033e+00
2.300695211645863214e+00
2.300695211645863214e+00
2.326383495590075512e+00
2.326383495590075512e+00
2.363509628589739453e+00
2.337446333201086635e+00
2.337446333201086635e+00
2.241068391979735619e+00
2.208254890591143660e+00
2.208254890591143660e+00
2.234693197424237443e+00
2.234693197424237443e+00
2.273694387646107540e+00
2.250256172368541474e+00
2.250256172368541474e+00
2.188191778313547164e+00
2.188191778313547164e+00
2.236005737479781263e+00
2.218567705313272853e+00
2.218567705313272853e+00
2.298820154423657947e+00
2.298820154423657947e+00
2.276694479201635701e+00
2.187066743980223826e+00
2.187066743980223826e+00
2.248756126590777171e+00
2.356009399700918827e+00
2.356009399700918827e+00
2.345321573534348669e+00
2.345321573534348669e+00
2.264506607257301685e+00
2.301070223090304623e+00
2.301070223090304623e+00
2.259631458479567812e+00
2.259631458479567812e+00
2.200567155980101663e+00
2.216130130924405695e+00
2.216130130924405695e+00
2.291132419812616394e+00
2.291132419812616394e+00
2.212755027924436124e+00
2.169441206091494490e+00
2.169441206091494490e+00
2.233005645924253102e+00
2.287007293923764895e+00
2.287007293923764895e+00
2.272756859035004684e+00
2.272756859035004684e+00
2.341196447645496725e+00
2.345509079256569152e+00
2.345509079256569152e+00
2.315320657979064389e+00
2.315320657979064389e+00
2.264694112979522167e+00
2.250631183812982439e+00
2.250631183812982439e+00
2.226255439924313961e+00
2.226255439924313961e+00
2.285319742423780109e+00
2.232630634479812137e+00
2.232630634479812137e+00
2.229255531479842567e+00
2.229255531479842567e+00
2.220817773979919085e+00
2.214817590868861874e+00
2.214817590868861874e+00
2.269569261757255596e+00
2.351884273812066883e+00
2.351884273812066883e+00
2.329196081423383191e+00
2.329196081423383191e+00
2.332196172978911797e+00
2.353946836756492633e+00
2.349446699423200169e+00
2.312508072145756710e+00
2.312508072145756710e+00
2.164753563035981099e+00
2.164753563035981099e+00
2.125377361369670925e+00
2.170191228980376863e+00
2.170191228980376863e+00
2.188566789757988129e+00
2.186879238258003344e+00
2.186879238258003344e+00
2.232818140202032620e+00
2.232818140202032620e+00
2.243880977813043742e+00
2.271444318979460864e+00
2.271444318979460864e+00
2.295820062868129341e+00
2.295820062868129341e+00
2.317570726645710621e+00
2.351321756645405436e+00
2.351321756645405436e+00
2.311008026367992407e+00
2.311008026367992407e+00
2.266381664479506952e+00
2.222130314035462462e+00
2.222130314035462462e+00
2.253068758201849597e+00
2.253068758201849597e+00
2.277819513534959039e+00
2.247631092257453833e+00
2.247631092257453833e+00
2.313820612201300086e+00
2.300320200201422249e+00
2.300320200201422249e+00
2.159128391369365740e+00
2.159128391369365740e+00
2.151440656758324188e+00
2.269194250312814631e+00
2.269194250312814631e+00
